1000-SECPT.acq
2 msec/sample
6 channels
RSP, X, RSPEC-R
Volts
EDA, Y, PPGED-R
microsiemens
ECG R-R
Seconds
Respiration Rate
BPM
C7 - EDR
Peaks
C14 - Control
Volts
min,CH1,CH14,CH40,CH42,CH47,CH54,
,90796,90796,90796,90796,90796,90796,
69.6706,5.09155,6.25,0.412,13.0265,313,5,
69.6707,5.09247,6.25305,0.412,13.0265,313,5,
69.6707,5.09155,6.24848,0.412,13.0265,313,5,
69.6707,5.09155,6.24695,0.412,13.0265,313,5,
69.6708,5.09216,6.25153,0.412,13.0265,313,5,
69.6708,5.09155,6.24695,0.412,13.0265,313,5,
69.6708,5.09155,6.25,0.412,13.0265,313,5,
69.6709,5.09186,6.25153,0.412,13.0265,313,5,
69.6709,5.09247,6.24848,0.412,13.0265,313,5,
69.6709,5.09186,6.24848,0.412,13.0265,313,5,
69.671,5.09186,6.25,0.412,13.0265,313,5,
69.671,5.09186,6.24848,0.412,13.0265,313,5,
69.671,5.09399,6.25,0.412,13.0265,313,5,
69.6711,5.09644,6.24848,0.412,13.0265,313,5,
69.6711,5.09674,6.25,0.412,13.0265,313,5,
69.6711,5.09705,6.24848,0.412,13.0265,313,5,
69.6712,5.09766,6.25153,0.412,13.0265,313,5,
69.6712,5.09674,6.24848,0.412,13.0265,313,5,
69.6712,5.09705,6.25153,0.412,13.0265,313,5,
69.6713,5.09644,6.25,0.412,13.0265,313,5,
69.6713,5.09705,6.25,0.412,13.0265,313,5,
69.6713,5.09705,6.25305,0.412,13.0265,313,5,
69.6714,5.09705,6.24695,0.412,13.0265,313,5,
69.6714,5.09674,6.24848,0.412,13.0265,313,5,
69.6714,5.09705,6.25,0.412,13.0265,313,5,
69.6715,5.09705,6.24848,0.412,13.0265,313,5,
69.6715,5.09644,6.25,0.412,13.0265,313,5,
69.6715,5.09644,6.24848,0.412,13.0265,313,5,
69.6716,5.09674,6.25,0.412,13.0265,313,5,
69.6716,5.09644,6.25305,0.412,13.0265,313,5,
69.6716,5.09949,6.24848,0.412,13.0265,313,5,
69.6717,5.10162,6.25,0.412,13.0265,313,5,
69.6717,5.10162,6.25153,0.412,13.0265,313,5,
69.6717,5.10162,6.25153,0.412,13.0265,313,5,
69.6718,5.10193,6.25,0.412,13.0265,313,5,
69.6718,5.10162,6.25,0.412,13.0265,313,5,
69.6718,5.10071,6.25,0.412,13.0265,313,5,
69.6719,5.10132,6.25305,0.412,13.0265,313,5,
69.6719,5.10162,6.24848,0.412,13.0265,313,5,
69.6719,5.10254,6.24848,0.412,13.0265,313,5,
69.672,5.10132,6.25,0.412,13.0265,313,5,
69.672,5.10223,6.25,0.412,13.0265,313,5,
69.672,5.10193,6.25,0.412,13.0265,313,5,
69.6721,5.10162,6.25,0.412,13.0265,313,5,
69.6721,5.10193,6.24695,0.412,13.0265,313,5,
69.6721,5.10223,6.25305,0.412,13.0265,313,5,
69.6722,5.10193,6.25,0.412,13.0265,313,5,
69.6722,5.10132,6.25153,0.412,13.0265,313,5,
69.6722,5.10162,6.25,0.412,13.0265,313,5,
69.6723,5.10345,6.23474,0.412,13.0265,313,5,
69.6723,5.10773,6.23932,0.412,13.0265,313,5,
69.6723,5.10651,6.23627,0.412,13.0265,313,5,
69.6724,5.10651,6.23627,0.412,13.0265,313,5,
69.6724,5.10651,6.23932,0.412,13.0265,313,5,
69.6724,5.1062,6.23932,0.412,13.0265,313,5,
69.6725,5.10712,6.23932,0.412,13.0265,313,5,
69.6725,5.1059,6.23779,0.412,13.0265,313,5,
69.6725,5.1059,6.23779,0.412,13.0265,313,5,
69.6726,5.10681,6.23779,0.412,13.0265,313,5,
69.6726,5.10712,6.23627,0.412,13.0265,313,5,
69.6726,5.1062,6.23932,0.412,13.0265,313,5,
69.6727,5.10651,6.23627,0.412,13.0265,313,5,
69.6727,5.10681,6.23779,0.412,13.0265,313,5,
69.6727,5.1062,6.24085,0.412,13.0265,313,5,
69.6728,5.1059,6.23779,0.412,13.0265,313,5,
69.6728,5.10681,6.23779,0.412,13.0265,313,5,
69.6728,5.1062,6.23779,0.412,13.0265,313,5,
69.6729,5.1059,6.23932,0.412,13.0265,313,5,
69.6729,5.1059,6.24085,0.412,13.0265,313,5,
69.6729,5.11261,6.23627,0.412,13.0265,313,5,
69.673,5.11108,6.23627,0.412,13.0265,313,5,
69.673,5.11108,6.23474,0.412,13.0265,313,5,
69.673,5.11169,6.23779,0.412,13.0265,313,5,
69.6731,5.11169,6.23779,0.412,13.0265,313,5,
69.6731,5.11139,6.23627,0.412,13.0265,313,5,
69.6731,5.11139,6.23627,0.412,13.0265,313,5,
69.6732,5.11169,6.23627,0.412,13.0265,313,5,
69.6732,5.11169,6.23627,0.412,13.0265,313,5,
69.6732,5.11108,6.23779,0.412,13.0265,313,5,
69.6733,5.112,6.24085,0.412,13.0265,313,5,
69.6733,5.11169,6.23932,0.412,13.0265,313,5,
69.6733,5.11139,6.23627,0.412,13.0265,313,5,
69.6734,5.11169,6.23627,0.412,13.0265,313,5,
69.6734,5.11139,6.23322,0.412,13.0265,313,5,
69.6734,5.11169,6.23322,0.412,13.0265,313,5,
69.6735,5.112,6.23932,0.412,13.0265,313,5,
69.6735,5.11139,6.23779,0.412,13.0265,313,5,
69.6735,5.11169,6.23627,0.412,13.0265,313,5,
69.6736,5.11047,6.23779,0.412,13.0265,313,5,
69.6736,5.1123,6.23627,0.412,13.0265,313,5,
69.6736,5.11627,6.24237,0.412,13.0265,313,5,
69.6737,5.11597,6.23627,0.412,13.0265,313,5,
69.6737,5.11597,6.23474,0.412,13.0265,313,5,
69.6737,5.11658,6.23779,0.412,13.0265,313,5,
69.6738,5.11658,6.23627,0.412,13.0265,313,5,
69.6738,5.11658,6.23627,0.412,13.0265,313,5,
69.6738,5.11658,6.23322,0.412,13.0265,313,5,
69.6739,5.11688,6.23627,0.412,13.0265,313,5,
69.6739,5.11658,6.23932,0.412,13.0265,313,5,
69.6739,5.11658,6.23932,0.412,13.0265,313,5,
69.674,5.11688,6.23627,0.412,13.0265,313,5,
69.674,5.11566,6.23779,0.412,13.0265,313,5,
69.674,5.11658,6.23474,0.412,13.0265,313,5,
69.6741,5.11597,6.23627,0.412,13.0265,313,5,
69.6741,5.11658,6.23779,0.412,13.0265,313,5,
69.6741,5.11658,6.23932,0.412,13.0265,313,5,
69.6742,5.11627,6.23779,0.412,13.0265,313,5,
69.6742,5.11627,6.23779,0.412,13.0265,313,5,
69.6742,5.11566,6.23474,0.412,13.0265,313,5,
69.6743,5.11627,6.23779,0.412,13.0265,313,5,
69.6743,5.11627,6.23932,0.412,13.0265,313,5,
69.6743,5.11627,6.23779,0.412,13.0265,313,5,
69.6744,5.11658,6.23779,0.412,13.0265,313,5,
69.6744,5.11597,6.24237,0.412,13.0265,313,5,
69.6744,5.11566,6.23932,0.412,13.0265,313,5,
69.6745,5.11658,6.23627,0.412,13.0265,313,5,
69.6745,5.12115,6.24085,0.412,13.0265,313,5,
69.6745,5.12115,6.24085,0.412,13.0265,313,5,
69.6746,5.12115,6.23779,0.412,13.0265,313,5,
69.6746,5.12115,6.23474,0.412,13.0265,313,5,
69.6746,5.12207,6.23779,0.412,13.0265,313,5,
69.6747,5.12115,6.23627,0.412,13.0265,313,5,
69.6747,5.12085,6.23627,0.412,13.0265,313,5,
69.6747,5.12085,6.23779,0.412,13.0265,313,5,
69.6748,5.12115,6.23322,0.412,13.0265,313,5,
69.6748,5.12146,6.22559,0.412,13.0265,313,5,
69.6748,5.12115,6.22711,0.412,13.0265,313,5,
69.6749,5.12146,6.22559,0.412,13.0265,313,5,
69.6749,5.12146,6.22711,0.412,13.0265,313,5,
69.6749,5.12177,6.22711,0.412,13.0265,313,5,
69.675,5.12115,6.22406,0.412,13.0265,313,5,
69.675,5.12085,6.22864,0.412,13.0265,313,5,
69.675,5.12115,6.22559,0.412,13.0265,313,5,
69.6751,5.12115,6.22406,0.412,13.0265,313,5,
69.6751,5.12085,6.22711,0.412,13.0265,313,5,
69.6751,5.12146,6.22406,0.412,13.0265,313,5,
69.6752,5.12207,6.22406,0.412,13.0265,313,5,
69.6752,5.12177,6.22406,0.412,13.0265,313,5,
69.6752,5.12115,6.22406,0.412,13.0265,313,5,
69.6753,5.12207,6.22406,0.412,13.0265,313,5,
69.6753,5.12115,6.22559,0.412,13.0265,313,5,
69.6753,5.12207,6.22254,0.412,13.0265,313,5,
69.6754,5.12268,6.22559,0.412,13.0265,313,5,
69.6754,5.12177,6.22406,0.412,13.0265,313,5,
69.6754,5.12207,6.22559,0.412,13.0265,313,5,
69.6755,5.12207,6.22406,0.412,13.0265,313,5,
69.6755,5.12177,6.22254,0.412,13.0265,313,5,
69.6755,5.12207,6.22254,0.412,13.0265,313,5,
69.6756,5.12238,6.22406,0.412,13.0265,313,5,
69.6756,5.12146,6.22254,0.412,13.0265,313,5,
69.6756,5.12115,6.22254,0.412,13.0265,313,5,
69.6757,5.12665,6.22864,0.412,13.0265,313,5,
69.6757,5.12695,6.22711,0.412,13.0265,313,5,
69.6757,5.12573,6.22864,0.412,13.0265,313,5,
69.6758,5.12695,6.22101,0.412,13.0265,313,5,
69.6758,5.12573,6.22864,0.412,13.0265,313,5,
69.6758,5.12665,6.22559,0.412,13.0265,313,5,
69.6759,5.12604,6.22559,0.412,13.0265,313,5,
69.6759,5.12573,6.22559,0.412,13.0265,313,5,
69.6759,5.12604,6.22711,0.412,13.0265,313,5,
69.676,5.12604,6.22254,0.412,13.0265,313,5,
69.676,5.12543,6.22711,0.412,13.0265,313,5,
69.676,5.12573,6.22559,0.412,13.0265,313,5,
69.6761,5.12604,6.22559,0.412,13.0265,313,5,
69.6761,5.12573,6.22406,0.412,13.0265,313,5,
69.6761,5.12604,6.22711,0.412,13.0265,313,5,
69.6762,5.12573,6.22711,0.412,13.0265,313,5,
69.6762,5.12695,6.22559,0.412,13.0265,313,5,
69.6762,5.12665,6.22254,0.412,13.0265,313,5,
69.6763,5.12543,6.22711,0.412,13.0265,313,5,
69.6763,5.12604,6.22559,0.412,13.0265,313,5,
69.6763,5.12634,6.22559,0.412,13.0265,313,5,
69.6764,5.12695,6.22406,0.412,13.0265,313,5,
69.6764,5.12573,6.22254,0.412,13.0265,313,5,
69.6764,5.12604,6.22559,0.412,13.0265,313,5,
69.6765,5.12634,6.22406,0.412,13.0265,313,5,
69.6765,5.12634,6.22406,0.412,13.0265,313,5,
69.6765,5.12604,6.22406,0.412,13.0265,313,5,
69.6766,5.12604,6.22559,0.412,13.0265,313,5,
69.6766,5.12604,6.22406,0.412,13.0265,313,5,
69.6766,5.12573,6.22406,0.412,13.0265,313,5,
69.6767,5.12604,6.22254,0.412,13.0265,313,5,
69.6767,5.12573,6.21643,0.412,13.0265,313,5,
69.6767,5.12665,6.21338,0.412,13.0265,313,5,
69.6768,5.12634,6.21643,0.412,13.0265,313,5,
69.6768,5.12573,6.21033,0.412,13.0265,313,5,
69.6768,5.12665,6.21338,0.412,13.0265,313,5,
69.6769,5.12695,6.21338,0.412,13.0265,313,5,
69.6769,5.12604,6.21643,0.412,13.0265,313,5,
69.6769,5.12604,6.21338,0.412,13.0265,313,5,
69.677,5.12543,6.21033,0.412,13.0265,313,5,
69.677,5.12604,6.21338,0.412,13.0265,313,5,
69.677,5.12573,6.21185,0.412,13.0265,313,5,
69.6771,5.12604,6.21491,0.412,13.0265,313,5,
69.6771,5.12695,6.21185,0.412,13.0265,313,5,
69.6771,5.12695,6.21033,0.412,13.0265,313,5,
69.6772,5.12543,6.21185,0.412,13.0265,313,5,
69.6772,5.12634,6.21338,0.412,13.0265,313,5,
69.6772,5.12665,6.21491,0.412,13.0265,313,5,
69.6773,5.12573,6.21491,0.412,13.0265,313,5,
69.6773,5.12573,6.21338,0.412,13.0265,313,5,
69.6773,5.12695,6.21338,0.412,13.0265,313,5,
69.6774,5.12573,6.21338,0.412,13.0265,313,5,
69.6774,5.12573,6.21338,0.412,13.0265,313,5,
69.6774,5.12604,6.21338,0.412,13.0265,313,5,
69.6775,5.12573,6.21185,0.412,13.0265,313,5,
69.6775,5.12573,6.21033,0.412,13.0265,313,5,
69.6775,5.12543,6.21338,0.412,13.0265,313,5,
69.6776,5.12634,6.21643,0.412,13.0265,313,5,
69.6776,5.12604,6.21338,0.412,13.0265,313,5,
69.6776,5.12665,6.21338,0.412,13.0265,313,5,
69.6777,5.12604,6.21338,0.412,13.0265,313,5,
69.6777,5.12634,6.21491,0.412,13.0265,313,5,
69.6777,5.12634,6.21338,0.412,13.0265,313,5,
69.6778,5.12604,6.21643,0.412,13.0265,313,5,
69.6778,5.12604,6.21033,0.412,13.0265,313,5,
69.6778,5.12604,6.21643,0.412,13.0265,313,5,
69.6779,5.12512,6.21033,0.412,13.0265,313,5,
69.6779,5.12695,6.2088,0.412,13.0265,313,5,
69.6779,5.12665,6.21033,0.412,13.0265,313,5,
69.678,5.12695,6.21338,0.412,13.0265,313,5,
69.678,5.12634,6.21338,0.412,13.0265,313,5,
69.678,5.12604,6.21185,0.412,13.0265,313,5,
69.6781,5.12634,6.21033,0.412,13.0265,313,5,
69.6781,5.12604,6.21338,0.412,13.0265,313,5,
69.6781,5.12634,6.2088,0.412,13.0265,313,5,
69.6782,5.12634,6.21338,0.412,13.0265,313,5,
69.6782,5.12634,6.21338,0.412,13.0265,313,5,
69.6782,5.12573,6.21643,0.412,13.0265,313,5,
69.6783,5.12634,6.21491,0.412,13.0265,313,5,
69.6783,5.12665,6.21033,0.412,13.0265,313,5,
69.6783,5.12695,6.21185,0.412,13.0265,313,5,
69.6784,5.12573,6.21033,0.412,13.0265,313,5,
69.6784,5.12695,6.21491,0.412,13.0265,313,5,
69.6784,5.12573,6.21643,0.412,13.0265,313,5,
69.6785,5.12665,6.21338,0.412,13.0265,313,5,
69.6785,5.12634,6.21491,0.412,13.0265,313,5,
69.6785,5.12573,6.21338,0.412,13.0265,313,5,
69.6786,5.12573,6.21338,0.412,13.0265,313,5,
69.6786,5.12665,6.19965,0.412,13.0265,313,5,
69.6786,5.12634,6.20117,0.412,13.0265,313,5,
69.6787,5.12634,6.19812,0.412,13.0265,313,5,
69.6787,5.12604,6.19965,0.412,13.0265,313,5,
69.6787,5.12573,6.2027,0.412,13.0265,313,5,
69.6788,5.12604,6.20422,0.412,13.0265,313,5,
69.6788,5.12695,6.20422,0.412,13.0265,313,5,
69.6788,5.12543,6.20117,0.412,13.0265,313,5,
69.6789,5.12604,6.2027,0.412,13.0265,313,5,
69.6789,5.12604,6.20117,0.412,13.0265,313,5,
69.6789,5.12634,6.20117,0.412,13.0265,313,5,
69.679,5.12573,6.19965,0.412,13.0265,313,5,
69.679,5.12604,6.20422,0.412,13.0265,313,5,
69.679,5.12634,6.20422,0.412,13.0265,313,5,
69.6791,5.12604,6.20117,0.412,13.0265,313,5,
69.6791,5.12634,6.2027,0.412,13.0265,313,5,
69.6791,5.12543,6.2027,0.412,13.0265,313,5,
69.6792,5.12695,6.20422,0.412,13.0265,313,5,
69.6792,5.12634,6.19965,0.412,13.0265,313,5,
69.6792,5.12665,6.2027,0.412,13.0265,313,5,
69.6793,5.12665,6.19812,0.412,13.0265,313,5,
69.6793,5.12573,6.2027,0.412,13.0265,313,5,
69.6793,5.12634,6.20117,0.412,13.0265,313,5,
69.6794,5.12604,6.20117,0.412,13.0265,313,5,
69.6794,5.12634,6.19965,0.412,13.0265,313,5,
69.6794,5.12604,6.20117,0.412,13.0265,313,5,
69.6795,5.12634,6.19965,0.412,13.0265,313,5,
69.6795,5.12604,6.19965,0.412,13.0265,313,5,
69.6795,5.12573,6.19965,0.412,13.0265,313,5,
69.6796,5.12573,6.20117,0.412,13.0265,313,5,
69.6796,5.12207,6.20117,0.412,13.0265,313,5,
69.6796,5.12115,6.20117,0.412,13.0265,313,5,
69.6797,5.12146,6.19965,0.412,13.0265,313,5,
69.6797,5.12177,6.2027,0.412,13.0265,313,5,
69.6797,5.12054,6.2027,0.412,13.0265,313,5,
69.6798,5.12085,6.19965,0.412,13.0265,313,5,
69.6798,5.12115,6.2027,0.412,13.0265,313,5,
69.6798,5.12115,6.20117,0.412,13.0265,313,5,
69.6799,5.12115,6.2027,0.412,13.0265,313,5,
69.6799,5.12115,6.20117,0.412,13.0265,313,5,
69.6799,5.12115,6.2027,0.412,13.0265,313,5,
69.68,5.12146,6.20117,0.412,13.0265,313,5,
69.68,5.12115,6.19965,0.412,13.0265,313,5,
69.68,5.12115,6.20117,0.412,13.0265,313,5,
69.6801,5.12115,6.20422,0.412,13.0265,313,5,
69.6801,5.12115,6.19812,0.412,13.0265,313,5,
69.6801,5.12115,6.19965,0.412,13.0265,313,5,
69.6802,5.12146,6.20575,0.412,13.0265,313,5,
69.6802,5.12115,6.2027,0.412,13.0265,313,5,
69.6802,5.12146,6.20117,0.412,13.0265,313,5,
69.6803,5.12146,6.2027,0.412,13.0265,313,5,
69.6803,5.12115,6.2027,0.412,13.0265,313,5,
69.6803,5.12146,6.19965,0.412,13.0265,313,5,
69.6804,5.12054,6.20117,0.412,13.0265,313,5,
69.6804,5.12115,6.20117,0.412,13.0265,313,5,
69.6804,5.12146,6.20117,0.412,13.0265,313,5,
69.6805,5.12085,6.20422,0.412,13.0265,313,5,
69.6805,5.12115,6.19354,0.412,13.0265,313,5,
69.6805,5.12146,6.19202,0.412,13.0265,313,5,
69.6806,5.12146,6.18897,0.412,13.0265,313,5,
69.6806,5.12115,6.18897,0.412,13.0265,313,5,
69.6806,5.12146,6.18439,0.412,13.0265,313,5,
69.6807,5.11719,6.18744,0.412,13.0265,313,5,
69.6807,5.11597,6.19049,0.412,13.0265,313,5,
69.6807,5.11627,6.19202,0.412,13.0265,313,5,
69.6808,5.11688,6.18744,0.412,13.0265,313,5,
69.6808,5.11597,6.18591,0.412,13.0265,313,5,
69.6808,5.11597,6.19049,0.412,13.0265,313,5,
69.6809,5.11627,6.18897,0.412,13.0265,313,5,
69.6809,5.11597,6.19049,0.412,13.0265,313,5,
69.6809,5.11597,6.18439,0.412,13.0265,313,5,
69.681,5.11627,6.18744,0.412,13.0265,313,5,
69.681,5.11627,6.18744,0.412,13.0265,313,5,
69.681,5.11566,6.19354,0.412,13.0265,313,5,
69.6811,5.11536,6.18744,0.412,13.0265,313,5,
69.6811,5.11658,6.18591,0.412,13.0265,313,5,
69.6811,5.11566,6.18591,0.412,13.0265,313,5,
69.6812,5.11566,6.19049,0.412,13.0265,313,5,
69.6812,5.11627,6.18744,0.412,13.0265,313,5,
69.6812,5.11658,6.18897,0.412,13.0265,313,5,
69.6813,5.11658,6.18897,0.412,13.0265,313,5,
69.6813,5.11536,6.18897,0.412,13.0265,313,5,
69.6813,5.11566,6.18897,0.412,13.0265,313,5,
69.6814,5.11627,6.18897,0.412,13.0265,313,5,
69.6814,5.11627,6.18439,0.412,13.0265,313,5,
69.6814,5.11658,6.18897,0.412,13.0265,313,5,
69.6815,5.11597,6.19049,0.412,13.0265,313,5,
69.6815,5.11627,6.18897,0.412,13.0265,313,5,
69.6815,5.11658,6.19202,0.412,13.0265,313,5,
69.6816,5.11597,6.18897,0.412,13.0265,313,5,
69.6816,5.11108,6.19049,0.412,13.0265,313,5,
69.6816,5.11139,6.18897,0.412,13.0265,313,5,
69.6817,5.11139,6.19049,0.412,13.0265,313,5,
69.6817,5.11169,6.18744,0.412,13.0265,313,5,
69.6817,5.11108,6.18744,0.412,13.0265,313,5,
69.6818,5.11139,6.18897,0.412,13.0265,313,5,
69.6818,5.11078,6.18897,0.412,13.0265,313,5,
69.6818,5.11139,6.18591,0.412,13.0265,313,5,
69.6819,5.11139,6.19354,0.412,13.0265,313,5,
69.6819,5.11108,6.18897,0.412,13.0265,313,5,
69.6819,5.11169,6.18591,0.412,13.0265,313,5,
69.682,5.11108,6.19049,0.412,13.0265,313,5,
69.682,5.11139,6.18439,0.412,13.0265,313,5,
69.682,5.11108,6.18591,0.412,13.0265,313,5,
69.6821,5.11108,6.18897,0.412,13.0265,313,5,
69.6821,5.11169,6.19049,0.412,13.0265,313,5,
69.6821,5.11108,6.18897,0.412,13.0265,313,5,
69.6822,5.11139,6.18744,0.412,13.0265,313,5,
69.6822,5.11108,6.18744,0.412,13.0265,313,5,
69.6822,5.11108,6.18897,0.412,13.0265,313,5,
69.6823,5.11139,6.18134,0.412,13.0265,313,5,
69.6823,5.11108,6.17523,0.412,13.0265,313,5,
69.6823,5.11139,6.17523,0.412,13.0265,313,5,
69.6824,5.112,6.17523,0.412,13.0265,313,5,
69.6824,5.11139,6.17676,0.412,13.0265,313,5,
69.6824,5.11139,6.17676,0.412,13.0265,313,5,
69.6825,5.11139,6.17523,0.412,13.0265,313,5,
69.6825,5.11169,6.17676,0.412,13.0265,313,5,
69.6825,5.11139,6.17828,0.412,13.0265,313,5,
69.6826,5.10651,6.17676,0.412,13.0265,313,5,
69.6826,5.1062,6.17676,0.412,13.0265,313,5,
69.6826,5.1059,6.17523,0.412,13.0265,313,5,
69.6827,5.1059,6.17676,0.412,13.0265,313,5,
69.6827,5.1062,6.17676,0.412,13.0265,313,5,
69.6827,5.1062,6.17218,0.412,13.0265,313,5,
69.6828,5.1062,6.17676,0.412,13.0265,313,5,
69.6828,5.10681,6.17828,0.412,13.0265,313,5,
69.6828,5.1062,6.17523,0.412,13.0265,313,5,
69.6829,5.10742,6.17523,0.412,13.0265,313,5,
69.6829,5.1062,6.17676,0.412,13.0265,313,5,
69.6829,5.1059,6.17676,0.412,13.0265,313,5,
69.683,5.10651,6.17981,0.412,13.0265,313,5,
69.683,5.1059,6.17676,0.412,13.0265,313,5,
69.683,5.10742,6.17371,0.412,13.0265,313,5,
69.6831,5.1059,6.17523,0.412,13.0265,313,5,
69.6831,5.10681,6.17676,0.412,13.0265,313,5,
69.6831,5.1059,6.17676,0.412,13.0265,313,5,
69.6832,5.10712,6.17981,0.412,13.0265,313,5,
69.6832,5.1062,6.17981,0.412,13.0265,313,5,
69.6832,5.1059,6.17371,0.412,13.0265,313,5,
69.6833,5.1062,6.17981,0.412,13.0265,313,5,
69.6833,5.10681,6.17676,0.412,13.0265,313,5,
69.6833,5.10681,6.17371,0.412,13.0265,313,5,
69.6834,5.10651,6.17523,0.412,13.0265,313,5,
69.6834,5.10651,6.17523,0.412,13.0265,313,5,
69.6834,5.10681,6.17828,0.412,13.0265,313,5,
69.6835,5.1059,6.17676,0.412,13.0265,313,5,
69.6835,5.1059,6.17676,0.412,13.0265,313,5,
69.6835,5.10651,6.17676,0.412,13.0265,313,5,
69.6836,5.1062,6.17523,0.412,13.0265,313,5,
69.6836,5.1062,6.17981,0.412,13.0265,313,5,
69.6836,5.10651,6.17828,0.412,13.0265,313,5,
69.6837,5.10651,6.17676,0.412,13.0265,313,5,
69.6837,5.10651,6.17828,0.412,13.0265,313,5,
69.6837,5.1059,6.17523,0.412,13.0265,313,5,
69.6838,5.10651,6.17371,0.412,13.0265,313,5,
69.6838,5.10651,6.17981,0.412,13.0265,313,5,
69.6838,5.1062,6.17676,0.412,13.0265,313,5,
69.6839,5.10651,6.17676,0.412,13.0265,313,5,
69.6839,5.1059,6.17523,0.412,13.0265,313,5,
69.6839,5.10193,6.17066,0.412,13.0265,313,5,
69.684,5.10071,6.17676,0.412,13.0265,313,5,
69.684,5.10132,6.17828,0.412,13.0265,313,5,
69.684,5.10162,6.17981,0.412,13.0265,313,5,
69.6841,5.10162,6.17676,0.412,13.0265,313,5,
69.6841,5.10162,6.17676,0.412,13.0265,313,5,
69.6841,5.10162,6.17523,0.412,13.0265,313,5,
69.6842,5.10162,6.16455,0.412,13.0265,313,5,
69.6842,5.10132,6.16455,0.412,13.0265,313,5,
69.6842,5.10162,6.16455,0.412,13.0265,313,5,
69.6843,5.10101,6.1615,0.412,13.0265,313,5,
69.6843,5.10132,6.1615,0.412,13.0265,313,5,
69.6843,5.1004,6.1676,0.412,13.0265,313,5,
69.6844,5.10132,6.16608,0.412,13.0265,313,5,
69.6844,5.10101,6.16455,0.412,13.0265,313,5,
69.6844,5.10101,6.15997,0.412,13.0265,313,5,
69.6845,5.10193,6.1676,0.412,13.0265,313,5,
69.6845,5.10162,6.1676,0.412,13.0265,313,5,
69.6845,5.10193,6.16608,0.412,13.0265,313,5,
69.6846,5.10132,6.16455,0.412,13.0265,313,5,
69.6846,5.10132,6.16303,0.412,13.0265,313,5,
69.6846,5.10101,6.1676,0.412,13.0265,313,5,
69.6847,5.10162,6.16608,0.412,13.0265,313,5,
69.6847,5.10162,6.16303,0.412,13.0265,313,5,
69.6847,5.10162,6.16303,0.412,13.0265,313,5,
69.6848,5.10162,6.16455,0.412,13.0265,313,5,
69.6848,5.10132,6.16303,0.412,13.0265,313,5,
69.6848,5.10162,6.16608,0.412,13.0265,313,5,
69.6849,5.10101,6.16455,0.412,13.0265,313,5,
69.6849,5.10132,6.16455,0.412,13.0265,313,5,
69.6849,5.10101,6.16608,0.412,13.0265,313,5,
69.685,5.10162,6.16455,0.412,13.0265,313,5,
69.685,5.10223,6.1676,0.412,13.0265,313,5,
69.685,5.10132,6.16455,0.412,13.0265,313,5,
69.6851,5.10132,6.16455,0.412,13.0265,313,5,
69.6851,5.10162,6.16608,0.412,13.0265,313,5,
69.6851,5.10162,6.16913,0.412,13.0265,313,5,
69.6852,5.10101,6.16455,0.412,13.0265,313,5,
69.6852,5.10193,6.16455,0.412,13.0265,313,5,
69.6852,5.10193,6.16608,0.412,13.0265,313,5,
69.6853,5.10223,6.16455,0.412,13.0265,313,5,
69.6853,5.10223,6.16608,0.412,13.0265,313,5,
69.6853,5.10162,6.16608,0.412,13.0265,313,5,
69.6854,5.10193,6.16303,0.412,13.0265,313,5,
69.6854,5.10193,6.1615,0.412,13.0265,313,5,
69.6854,5.10162,6.16455,0.412,13.0265,313,5,
69.6855,5.10193,6.16455,0.412,13.0265,313,5,
69.6855,5.10132,6.16455,0.412,13.0265,313,5,
69.6855,5.10162,6.16455,0.412,13.0265,313,5,
69.6856,5.10193,6.16455,0.412,13.0265,313,5,
69.6856,5.10193,6.16455,0.412,13.0265,313,5,
69.6856,5.10223,6.16455,0.412,13.0265,313,5,
69.6857,5.10132,6.16455,0.412,13.0265,313,5,
69.6857,5.10162,6.16455,0.412,13.0265,313,5,
69.6857,5.10162,6.16455,0.412,13.0265,313,5,
69.6858,5.10162,6.16608,0.412,13.0265,313,5,
69.6858,5.10132,6.1615,0.412,13.0265,313,5,
69.6858,5.10193,6.16303,0.412,13.0265,313,5,
69.6859,5.10132,6.16303,0.412,13.0265,313,5,
69.6859,5.10132,6.1676,0.412,13.0265,313,5,
69.6859,5.10162,6.16608,0.412,13.0265,313,5,
69.686,5.09705,6.16608,0.412,13.0265,313,5,
69.686,5.09705,6.15387,0.412,13.0265,313,5,
69.686,5.09674,6.15082,0.412,13.0265,313,5,
69.6861,5.09674,6.15082,0.412,13.0265,313,5,
69.6861,5.09644,6.15082,0.412,13.0265,313,5,
69.6861,5.09705,6.1554,0.412,13.0265,313,5,
69.6862,5.09705,6.1554,0.412,13.0265,313,5,
69.6862,5.09705,6.15234,0.412,13.0265,313,5,
69.6862,5.09644,6.15082,0.412,13.0265,313,5,
69.6863,5.09705,6.1554,0.412,13.0265,313,5,
69.6863,5.09705,6.15082,0.412,13.0265,313,5,
69.6863,5.09674,6.1554,0.412,13.0265,313,5,
69.6864,5.09644,6.15082,0.412,13.0265,313,5,
69.6864,5.09705,6.14929,0.412,13.0265,313,5,
69.6864,5.09674,6.15234,0.412,13.0265,313,5,
69.6865,5.09644,6.15234,0.412,13.0265,313,5,
69.6865,5.09674,6.15387,0.412,13.0265,313,5,
69.6865,5.09644,6.15082,0.412,13.0265,313,5,
69.6866,5.09644,6.15234,0.412,13.0265,313,5,
69.6866,5.09674,6.15387,0.412,13.0265,313,5,
69.6866,5.09644,6.15082,0.412,13.0265,313,5,
69.6867,5.09674,6.15234,0.412,13.0265,313,5,
69.6867,5.09674,6.15082,0.412,13.0265,313,5,
69.6867,5.09644,6.15082,0.412,13.0265,313,5,
69.6868,5.09613,6.15234,0.412,13.0265,313,5,
69.6868,5.09644,6.15082,0.412,13.0265,313,5,
69.6868,5.09674,6.15234,0.412,13.0265,313,5,
69.6869,5.09613,6.1554,0.412,13.0265,313,5,
69.6869,5.09644,6.1554,0.412,13.0265,313,5,
69.6869,5.09613,6.15234,0.412,13.0265,313,5,
69.687,5.09613,6.14929,0.412,13.0265,313,5,
69.687,5.09674,6.15082,0.412,13.0265,313,5,
69.687,5.09613,6.15387,0.412,13.0265,313,5,
69.6871,5.09674,6.14929,0.412,13.0265,313,5,
69.6871,5.09674,6.14929,0.412,13.0265,313,5,
69.6871,5.09674,6.15082,0.412,13.0265,313,5,
69.6872,5.09644,6.15387,0.412,13.0265,313,5,
69.6872,5.09186,6.1554,0.412,13.0265,313,5,
69.6872,5.09125,6.15387,0.412,13.0265,313,5,
69.6873,5.09125,6.15234,0.412,13.0265,313,5,
69.6873,5.09155,6.15234,0.412,13.0265,313,5,
69.6873,5.09216,6.15387,0.412,13.0265,313,5,
69.6874,5.09125,6.15234,0.412,13.0265,313,5,
69.6874,5.09216,6.15234,0.412,13.0265,313,5,
69.6874,5.09247,6.15234,0.412,13.0265,313,5,
69.6875,5.09186,6.14777,0.412,13.0265,313,5,
69.6875,5.09155,6.15234,0.412,13.0265,313,5,
69.6875,5.09186,6.15234,0.412,13.0265,313,5,
69.6876,5.09155,6.15082,0.412,13.0265,313,5,
69.6876,5.09186,6.15387,0.412,13.0265,313,5,
69.6876,5.09155,6.15234,0.412,13.0265,313,5,
69.6877,5.09247,6.15387,0.412,13.0265,313,5,
69.6877,5.09216,6.15387,0.412,13.0265,313,5,
69.6877,5.09277,6.14014,0.412,13.0265,313,5,
69.6878,5.09216,6.14014,0.412,13.0265,313,5,
69.6878,5.09247,6.13556,0.412,13.0265,313,5,
69.6878,5.09277,6.13709,0.412,13.0265,313,5,
69.6879,5.09186,6.14014,0.412,13.0265,313,5,
69.6879,5.08911,6.13861,0.412,13.0265,313,5,
69.6879,5.08759,6.14014,0.412,13.0265,313,5,
69.688,5.08728,6.14014,0.412,13.0265,313,5,
69.688,5.08728,6.13709,0.412,13.0265,313,5,
69.688,5.08667,6.13861,0.412,13.0265,313,5,
69.6881,5.08636,6.14014,0.412,13.0265,313,5,
69.6881,5.08789,6.14014,0.412,13.0265,313,5,
69.6881,5.08636,6.14319,0.412,13.0265,313,5,
69.6882,5.08698,6.14014,0.412,13.0265,313,5,
69.6882,5.08667,6.14014,0.412,13.0265,313,5,
69.6882,5.08698,6.14014,0.412,13.0265,313,5,
69.6883,5.08636,6.13861,0.412,13.0265,313,5,
69.6883,5.08698,6.14166,0.412,13.0265,313,5,
69.6883,5.08636,6.13709,0.412,13.0265,313,5,
69.6884,5.08667,6.14014,0.412,13.0265,313,5,
69.6884,5.08636,6.13709,0.412,13.0265,313,5,
69.6884,5.08667,6.14014,0.412,13.0265,313,5,
69.6885,5.08698,6.13861,0.412,13.0265,313,5,
69.6885,5.08179,6.13709,0.412,13.0265,313,5,
69.6885,5.08179,6.13861,0.412,13.0265,313,5,
69.6886,5.08209,6.14166,0.412,13.0265,313,5,
69.6886,5.08179,6.13861,0.412,13.0265,313,5,
69.6886,5.08118,6.14014,0.412,13.0265,313,5,
69.6887,5.08179,6.14014,0.412,13.0265,313,5,
69.6887,5.08179,6.14319,0.412,13.0265,313,5,
69.6887,5.08179,6.13709,0.412,13.0265,313,5,
69.6888,5.08209,6.13861,0.412,13.0265,313,5,
69.6888,5.0824,6.14166,0.412,13.0265,313,5,
69.6888,5.08209,6.13861,0.412,13.0265,313,5,
69.6889,5.08209,6.14166,0.412,13.0265,313,5,
69.6889,5.08179,6.14014,0.412,13.0265,313,5,
69.6889,5.08179,6.13861,0.412,13.0265,313,5,
69.689,5.08209,6.14014,0.412,13.0265,313,5,
69.689,5.08179,6.13861,0.412,13.0265,313,5,
69.689,5.07782,6.13709,0.412,13.0265,313,5,
69.6891,5.07751,6.13556,0.412,13.0265,313,5,
69.6891,5.07721,6.14014,0.412,13.0265,313,5,
69.6891,5.07782,6.14166,0.412,13.0265,313,5,
69.6892,5.0769,6.14014,0.412,13.0265,313,5,
69.6892,5.07782,6.14014,0.412,13.0265,313,5,
69.6892,5.07721,6.14014,0.412,13.0265,313,5,
69.6893,5.07812,6.14014,0.412,13.0265,313,5,
69.6893,5.07782,6.12488,0.412,13.0265,313,5,
69.6893,5.07812,6.12946,0.412,13.0265,313,5,
69.6894,5.0766,6.13098,0.412,13.0265,313,5,
69.6894,5.07721,6.12946,0.412,13.0265,313,5,
69.6894,5.07782,6.12793,0.412,13.0265,313,5,
69.6895,5.07751,6.12946,0.412,13.0265,313,5,
69.6895,5.07751,6.13098,0.412,13.0265,313,5,
69.6895,5.07721,6.1264,0.412,13.0265,313,5,
69.6896,5.07202,6.1264,0.412,13.0265,313,5,
69.6896,5.07233,6.1264,0.412,13.0265,313,5,
69.6896,5.07202,6.12488,0.412,13.0265,313,5,
69.6897,5.07202,6.1264,0.412,13.0265,313,5,
69.6897,5.07263,6.12793,0.412,13.0265,313,5,
69.6897,5.07263,6.1264,0.412,13.0265,313,5,
69.6898,5.07324,6.12793,0.412,13.0265,313,5,
69.6898,5.07263,6.1264,0.412,13.0265,313,5,
69.6898,5.07294,6.12793,0.412,13.0265,313,5,
69.6899,5.07202,6.12793,0.412,13.0265,313,5,
69.6899,5.07355,6.1264,0.412,13.0265,313,5,
69.6899,5.07202,6.12946,0.412,13.0265,313,5,
69.69,5.07294,6.1264,0.412,13.0265,313,5,
69.69,5.07324,6.1264,0.412,13.0265,313,5,
69.69,5.06775,6.12946,0.412,13.0265,313,5,
69.6901,5.06714,6.12793,0.412,13.0265,313,5,
69.6901,5.06683,6.13098,0.412,13.0265,313,5,
69.6901,5.06775,6.1264,0.412,13.0265,313,5,
69.6902,5.06714,6.1264,0.412,13.0265,313,5,
69.6902,5.06775,6.12793,0.412,13.0265,313,5,
69.6902,5.06744,6.1264,0.412,13.0265,313,5,
69.6903,5.06744,6.1264,0.412,13.0265,313,5,
69.6903,5.06744,6.12488,0.412,13.0265,313,5,
69.6903,5.06836,6.1264,0.412,13.0265,313,5,
69.6904,5.06714,6.12488,0.412,13.0265,313,5,
69.6904,5.06744,6.12793,0.412,13.0265,313,5,
69.6904,5.06836,6.12793,0.412,13.0265,313,5,
69.6905,5.06531,6.1264,0.412,13.0265,313,5,
69.6905,5.06226,6.12946,0.412,13.0265,313,5,
69.6905,5.06256,6.12946,0.412,13.0265,313,5,
69.6906,5.06287,6.12946,0.412,13.0265,313,5,
69.6906,5.06287,6.1264,0.412,13.0265,313,5,
69.6906,5.06195,6.1264,0.412,13.0265,313,5,
69.6907,5.06226,6.1264,0.412,13.0265,313,5,
69.6907,5.06287,6.1264,0.412,13.0265,313,5,
69.6907,5.06256,6.1264,0.412,13.0265,313,5,
69.6908,5.06317,6.1264,0.412,13.0265,313,5,
69.6908,5.06287,6.12488,0.412,13.0265,313,5,
69.6908,5.06226,6.1264,0.412,13.0265,313,5,
69.6909,5.05859,6.12488,0.412,13.0265,313,5,
69.6909,5.05737,6.1264,0.412,13.0265,313,5,
69.6909,5.05798,6.12793,0.412,13.0265,313,5,
69.691,5.05737,6.11725,0.412,13.0265,313,5,
69.691,5.05798,6.11267,0.412,13.0265,313,5,
69.691,5.05798,6.11267,0.412,13.0265,313,5,
69.6911,5.05768,6.11878,0.412,13.0265,313,5,
69.6911,5.05859,6.11267,0.412,13.0265,313,5,
69.6911,5.05859,6.1142,0.412,13.0265,313,5,
69.6912,5.05798,6.11572,0.412,13.0265,313,5,
69.6912,5.05737,6.1142,0.412,13.0265,313,5,
69.6912,5.0531,6.11572,0.412,13.0265,313,5,
69.6913,5.0531,6.11725,0.412,13.0265,313,5,
69.6913,5.05371,6.11572,0.412,13.0265,313,5,
69.6913,5.0528,6.11572,0.412,13.0265,313,5,
69.6914,5.0528,6.1142,0.412,13.0265,313,5,
69.6914,5.05341,6.11572,0.412,13.0265,313,5,
69.6914,5.0528,6.1142,0.412,13.0265,313,5,
69.6915,5.0531,6.11267,0.412,13.0265,313,5,
69.6915,5.05371,6.11725,0.412,13.0265,313,5,
69.6915,5.04852,6.1142,0.412,13.0265,313,5,
69.6916,5.04852,6.11267,0.412,13.0265,313,5,
69.6916,5.04852,6.11725,0.412,13.0265,313,5,
69.6916,5.04883,6.11267,0.412,13.0265,313,5,
69.6917,5.04883,6.11572,0.412,13.0265,313,5,
69.6917,5.04883,6.11878,0.412,13.0265,313,5,
69.6917,5.04669,6.1142,0.412,13.0265,313,5,
69.6918,5.04822,6.11725,0.412,13.0265,313,5,
69.6918,5.04761,6.11725,0.412,13.0265,313,5,
69.6918,5.04242,6.11267,0.412,13.0265,313,5,
69.6919,5.04272,6.11725,0.412,13.0265,313,5,
69.6919,5.04333,6.1142,0.412,13.0265,313,5,
69.6919,5.04364,6.11572,0.412,13.0265,313,5,
69.692,5.04303,6.11267,0.412,13.0265,313,5,
69.692,5.04303,6.11572,0.412,13.0265,313,5,
69.692,5.04242,6.11878,0.412,13.0265,313,5,
69.6921,5.04272,6.11725,0.412,13.0265,313,5,
69.6921,5.04211,6.1142,0.412,13.0265,313,5,
69.6921,5.03815,6.11572,0.412,13.0265,313,5,
69.6922,5.03754,6.11572,0.412,13.0265,313,5,
69.6922,5.03784,6.1142,0.412,13.0265,313,5,
69.6922,5.03876,6.11725,0.412,13.0265,313,5,
69.6923,5.03815,6.11572,0.412,13.0265,313,5,
69.6923,5.03784,6.11572,0.412,13.0265,313,5,
69.6923,5.03815,6.11725,0.412,13.0265,313,5,
69.6924,5.03784,6.11878,0.412,13.0265,313,5,
69.6924,5.03357,6.11267,0.412,13.0265,313,5,
69.6924,5.03326,6.11572,0.412,13.0265,313,5,
69.6925,5.03296,6.11725,0.412,13.0265,313,5,
69.6925,5.03418,6.11725,0.412,13.0265,313,5,
69.6925,5.03357,6.11572,0.412,13.0265,313,5,
69.6926,5.03357,6.11267,0.412,13.0265,313,5,
69.6926,5.03357,6.11572,0.412,13.0265,313,5,
69.6926,5.03082,6.11115,0.412,13.0265,313,5,
69.6927,5.02838,6.10504,0.412,13.0265,313,5,
69.6927,5.02869,6.10657,0.412,13.0265,313,5,
69.6927,5.02808,6.10046,0.412,13.0265,313,5,
69.6928,5.02869,6.10352,0.412,13.0265,313,5,
69.6928,5.0293,6.10504,0.412,13.0265,313,5,
69.6928,5.02838,6.10199,0.412,13.0265,313,5,
69.6929,5.02777,6.10199,0.412,13.0265,313,5,
69.6929,5.02472,6.10199,0.412,13.0265,313,5,
69.6929,5.02441,6.10352,0.412,13.0265,313,5,
69.693,5.0235,6.10657,0.412,13.0265,313,5,
69.693,5.0235,6.10046,0.412,13.0265,313,5,
69.693,5.0235,6.10199,0.412,13.0265,313,5,
69.6931,5.0235,6.10199,0.412,13.0265,313,5,
69.6931,5.0235,6.10199,0.412,13.0265,313,5,
69.6931,5.02319,6.10504,0.412,13.0265,313,5,
69.6932,5.01862,6.10352,0.412,13.0265,313,5,
69.6932,5.01923,6.10352,0.412,13.0265,313,5,
69.6932,5.01862,6.10046,0.412,13.0265,313,5,
69.6933,5.01862,6.10352,0.412,13.0265,313,5,
69.6933,5.01923,6.10199,0.412,13.0265,313,5,
69.6933,5.01862,6.10504,0.412,13.0265,313,5,
69.6934,5.01892,6.10504,0.412,13.0265,313,5,
69.6934,5.01465,6.10046,0.412,13.0265,313,5,
69.6934,5.01404,6.10352,0.412,13.0265,313,5,
69.6935,5.01373,6.10352,0.412,13.0265,313,5,
69.6935,5.01343,6.10199,0.412,13.0265,313,5,
69.6935,5.01373,6.10352,0.412,13.0265,313,5,
69.6936,5.01343,6.09894,0.412,13.0265,313,5,
69.6936,5.01404,6.10352,0.412,13.0265,313,5,
69.6936,5.01373,6.10504,0.412,13.0265,313,5,
69.6937,5.00885,6.10199,0.412,13.0265,313,5,
69.6937,5.00916,6.10352,0.412,13.0265,313,5,
69.6937,5.00824,6.10504,0.412,13.0265,313,5,
69.6938,5.00793,6.10504,0.412,13.0265,313,5,
69.6938,5.00824,6.10199,0.412,13.0265,313,5,
69.6938,5.00885,6.10199,0.412,13.0265,313,5,
69.6939,5.00854,6.10199,0.412,13.0265,313,5,
69.6939,5.00702,6.10046,0.412,13.0265,313,5,
69.6939,5.00397,6.10504,0.412,13.0265,313,5,
69.694,5.00397,6.10199,0.412,13.0265,313,5,
69.694,5.00366,6.10199,0.412,13.0265,313,5,
69.694,5.00336,6.10352,0.412,13.0265,313,5,
69.6941,5.00427,6.10504,0.412,13.0265,313,5,
69.6941,5.00427,6.10352,0.412,13.0265,313,5,
69.6941,5.00427,6.10352,0.412,13.0265,313,5,
69.6942,4.99969,6.10199,0.412,13.0265,313,5,
69.6942,4.99908,6.10657,0.412,13.0265,313,5,
69.6942,4.99878,6.10046,0.412,13.0265,313,5,
69.6943,4.99908,6.10657,0.412,13.0265,313,5,
69.6943,4.99908,6.09284,0.412,13.0265,313,5,
69.6943,4.99878,6.08978,0.412,13.0265,313,5,
69.6944,4.99847,6.08978,0.412,13.0265,313,5,
69.6944,4.99939,6.09131,0.412,13.0265,313,5,
69.6944,4.99481,6.09284,0.412,13.0265,313,5,
69.6945,4.99512,6.08978,0.412,13.0265,313,5,
69.6945,4.99359,6.09284,0.412,13.0265,313,5,
69.6945,4.99451,6.09284,0.412,13.0265,313,5,
69.6946,4.99512,6.08978,0.412,13.0265,313,5,
69.6946,4.99451,6.09284,0.412,13.0265,313,5,
69.6946,4.9942,6.09436,0.412,13.0265,313,5,
69.6947,4.9939,6.08826,0.412,13.0265,313,5,
69.6947,4.99359,6.09284,0.412,13.0265,313,5,
69.6947,4.98871,6.09131,0.412,13.0265,313,5,
69.6948,4.98932,6.08826,0.412,13.0265,313,5,
69.6948,4.98901,6.09131,0.412,13.0265,313,5,
69.6948,4.98932,6.09436,0.412,13.0265,313,5,
69.6949,4.9881,6.09284,0.412,13.0265,313,5,
69.6949,4.98901,6.09131,0.412,13.0265,313,5,
69.6949,4.98901,6.09131,0.412,13.0265,313,5,
69.695,4.98871,6.09131,0.412,13.0265,313,5,
69.695,4.98932,6.09131,0.412,13.0265,313,5,
69.695,4.98474,6.09284,0.412,13.0265,313,5,
69.6951,4.98474,6.09284,0.412,13.0265,313,5,
69.6951,4.98474,6.09131,0.412,13.0265,313,5,
69.6951,4.98383,6.08826,0.412,13.0265,313,5,
69.6952,4.98383,6.09284,0.412,13.0265,313,5,
69.6952,4.98413,6.08978,0.412,13.0265,313,5,
69.6952,4.98444,6.09284,0.412,13.0265,313,5,
69.6953,4.98444,6.08978,0.412,13.0265,313,5,
69.6953,4.98474,6.09131,0.412,13.0265,313,5,
69.6953,4.98383,6.09284,0.412,13.0265,313,5,
69.6954,4.97894,6.09131,0.412,13.0265,313,5,
69.6954,4.97925,6.09131,0.412,13.0265,313,5,
69.6954,4.97894,6.09284,0.412,13.0265,313,5,
69.6955,4.97894,6.08673,0.412,13.0265,313,5,
69.6955,4.97894,6.09284,0.412,13.0265,313,5,
69.6955,4.97955,6.09131,0.412,13.0265,313,5,
69.6956,4.97955,6.08978,0.412,13.0265,313,5,
69.6956,4.97955,6.09131,0.412,13.0265,313,5,
69.6956,4.97894,6.09131,0.412,13.0265,313,5,
69.6957,4.97894,6.08826,0.412,13.0265,313,5,
69.6957,4.97437,6.08978,0.412,13.0265,313,5,
69.6957,4.97467,6.09436,0.412,13.0265,313,5,
69.6958,4.97406,6.09284,0.412,13.0265,313,5,
69.6958,4.97467,6.09131,0.412,13.0265,313,5,
69.6958,4.97406,6.09131,0.412,13.0265,313,5,
69.6959,4.97437,6.07605,0.412,13.0265,313,5,
69.6959,4.97528,6.07758,0.412,13.0265,313,5,
69.6959,4.97437,6.08063,0.412,13.0265,313,5,
69.696,4.97498,6.08063,0.412,13.0265,313,5,
69.696,4.97437,6.07758,0.412,13.0265,313,5,
69.696,4.97253,6.07758,0.412,13.0265,313,5,
69.6961,4.96948,6.07758,0.412,13.0265,313,5,
69.6961,4.96979,6.0791,0.412,13.0265,313,5,
69.6961,4.96979,6.0791,0.412,13.0265,313,5,
69.6962,4.96948,6.08215,0.412,13.0265,313,5,
69.6962,4.96979,6.0791,0.412,13.0265,313,5,
69.6962,4.96918,6.0791,0.412,13.0265,313,5,
69.6963,4.96887,6.0791,0.412,13.0265,313,5,
69.6963,4.96857,6.0791,0.412,13.0265,313,5,
69.6963,4.97009,6.0791,0.412,13.0265,313,5,
69.6964,4.96948,6.07758,0.412,13.0265,313,5,
69.6964,4.96918,6.07758,0.412,13.0265,313,5,
69.6964,4.96429,6.07605,0.412,13.0265,313,5,
69.6965,4.96399,6.07758,0.412,13.0265,313,5,
69.6965,4.9646,6.07758,0.412,13.0265,313,5,
69.6965,4.96521,6.0791,0.412,13.0265,313,5,
69.6966,4.9649,6.0791,0.412,13.0265,313,5,
69.6966,4.9646,6.07605,0.412,13.0265,313,5,
69.6966,4.96521,6.07758,0.412,13.0265,313,5,
69.6967,4.96399,6.0791,0.412,13.0265,313,5,
69.6967,4.96429,6.07758,0.412,13.0265,313,5,
69.6967,4.9646,6.0791,0.412,13.0265,313,5,
69.6968,4.9646,6.0791,0.412,13.0265,313,5,
69.6968,4.96429,6.0791,0.412,13.0265,313,5,
69.6968,4.96002,6.073,0.412,13.0265,313,5,
69.6969,4.96002,6.06384,0.412,13.0265,313,5,
69.6969,4.96002,6.06842,0.412,13.0265,313,5,
69.6969,4.96002,6.06232,0.412,13.0265,313,5,
69.697,4.96002,6.06995,0.412,13.0265,313,5,
69.697,4.96002,6.06537,0.412,13.0265,313,5,
69.697,4.95972,6.06995,0.412,13.0265,313,5,
69.6971,4.95911,6.0669,0.412,13.0265,313,5,
69.6971,4.95972,6.06842,0.412,13.0265,313,5,
69.6971,4.96002,6.0669,0.412,13.0265,313,5,
69.6972,4.95972,6.06384,0.412,13.0265,313,5,
69.6972,4.95972,6.06842,0.412,13.0265,313,5,
69.6972,4.95575,6.0669,0.412,13.0265,313,5,
69.6973,4.95514,6.06842,0.412,13.0265,313,5,
69.6973,4.95483,6.06384,0.412,13.0265,313,5,
69.6973,4.95483,6.06537,0.412,13.0265,313,5,
69.6974,4.95483,6.06384,0.412,13.0265,313,5,
69.6974,4.95514,6.0669,0.412,13.0265,313,5,
69.6974,4.95453,6.06537,0.412,13.0265,313,5,
69.6975,4.95453,6.0669,0.412,13.0265,313,5,
69.6975,4.95514,6.06537,0.412,13.0265,313,5,
69.6975,4.95483,6.0669,0.412,13.0265,313,5,
69.6976,4.95453,6.06842,0.412,13.0265,313,5,
69.6976,4.95483,6.06842,0.412,13.0265,313,5,
69.6976,4.95453,6.0669,0.412,13.0265,313,5,
69.6977,4.94965,6.0669,0.412,13.0265,313,5,
69.6977,4.95026,6.0669,0.412,13.0265,313,5,
69.6977,4.95026,6.06384,0.412,13.0265,313,5,
69.6978,4.95056,6.06995,0.412,13.0265,313,5,
69.6978,4.94934,6.05011,0.412,13.0265,313,5,
69.6978,4.94995,6.05469,0.412,13.0265,313,5,
69.6979,4.94965,6.05469,0.412,13.0265,313,5,
69.6979,4.94995,6.05469,0.412,13.0265,313,5,
69.6979,4.94995,6.05774,0.412,13.0265,313,5,
69.698,4.94965,6.05316,0.412,13.0265,313,5,
69.698,4.94995,6.05164,0.412,13.0265,313,5,
69.698,4.94995,6.05621,0.412,13.0265,313,5,
69.6981,4.94843,6.05469,0.412,13.0265,313,5,
69.6981,4.94507,6.05316,0.412,13.0265,313,5,
69.6981,4.94446,6.05469,0.412,13.0265,313,5,
69.6982,4.94507,6.05011,0.412,13.0265,313,5,
69.6982,4.94476,6.05469,0.412,13.0265,313,5,
69.6982,4.94507,6.05316,0.412,13.0265,313,5,
69.6983,4.94507,6.05164,0.412,13.0265,313,5,
69.6983,4.94507,6.05621,0.412,13.0265,313,5,
69.6983,4.94507,6.05316,0.412,13.0265,313,5,
69.6984,4.94476,6.05164,0.412,13.0265,313,5,
69.6984,4.94537,6.05316,0.412,13.0265,313,5,
69.6984,4.94446,6.05316,0.412,13.0265,313,5,
69.6985,4.94476,6.05774,0.412,13.0265,313,5,
69.6985,4.9408,6.05316,0.412,13.0265,313,5,
69.6985,4.93988,6.05316,0.412,13.0265,313,5,
69.6986,4.93958,6.05774,0.412,13.0265,313,5,
69.6986,4.93988,6.05316,0.412,13.0265,313,5,
69.6986,4.94019,6.05316,0.412,13.0265,313,5,
69.6987,4.94019,6.05164,0.412,13.0265,313,5,
69.6987,4.93988,6.05621,0.412,13.0265,313,5,
69.6987,4.94019,6.05316,0.412,13.0265,313,5,
69.6988,4.93958,6.05469,0.412,13.0265,313,5,
69.6988,4.94019,6.05316,0.412,13.0265,313,5,
69.6988,4.94019,6.05316,0.412,13.0265,313,5,
69.6989,4.94049,6.05469,0.412,13.0265,313,5,
69.6989,4.94049,6.05469,0.412,13.0265,313,5,
69.6989,4.93591,6.04248,0.412,13.0265,313,5,
69.699,4.935,6.04096,0.412,13.0265,313,5,
69.699,4.9353,6.04401,0.412,13.0265,313,5,
69.699,4.93591,6.04401,0.412,13.0265,313,5,
69.6991,4.9353,6.04248,0.412,13.0265,313,5,
69.6991,4.93591,6.04248,0.412,13.0265,313,5,
69.6991,4.93591,6.04096,0.412,13.0265,313,5,
69.6992,4.935,6.03943,0.412,13.0265,313,5,
69.6992,4.9353,6.04096,0.412,13.0265,313,5,
69.6992,4.93561,6.04248,0.412,13.0265,313,5,
69.6993,4.935,6.04248,0.412,13.0265,313,5,
69.6993,4.93561,6.04401,0.412,13.0265,313,5,
69.6993,4.93103,6.04096,0.412,13.0265,313,5,
69.6994,4.93011,6.04401,0.412,13.0265,313,5,
69.6994,4.93042,6.04248,0.412,13.0265,313,5,
69.6994,4.93073,6.04401,0.412,13.0265,313,5,
69.6995,4.93011,6.04248,0.412,13.0265,313,5,
69.6995,4.93042,6.04401,0.412,13.0265,313,5,
69.6995,4.93042,6.04248,0.412,13.0265,313,5,
69.6996,4.93011,6.04248,0.412,13.0265,313,5,
69.6996,4.93103,6.04248,0.412,13.0265,313,5,
69.6996,4.93011,6.04401,0.412,13.0265,313,5,
69.6997,4.93042,6.04096,0.412,13.0265,313,5,
69.6997,4.93011,6.04401,0.412,13.0265,313,5,
69.6997,4.93011,6.04401,0.412,13.0265,313,5,
69.6998,4.92645,6.04248,0.412,13.0265,313,5,
69.6998,4.92554,6.04248,0.412,13.0265,313,5,
69.6998,4.92554,6.04553,0.412,13.0265,313,5,
69.6999,4.92554,6.04553,0.412,13.0265,313,5,
69.6999,4.92523,6.04248,0.412,13.0265,313,5,
69.6999,4.92584,6.04401,0.412,13.0265,313,5,
69.7,4.92554,6.04248,0.412,13.0265,313,5,
69.7,4.92554,6.04248,0.412,13.0265,313,5,
69.7,4.92493,6.04096,0.412,13.0265,313,5,
69.7001,4.92554,6.04096,0.412,13.0265,313,5,
69.7001,4.92523,6.04096,0.412,13.0265,313,5,
69.7001,4.92554,6.04096,0.412,13.0265,313,5,
69.7002,4.92126,6.04248,0.412,13.0265,313,5,
69.7002,4.92065,6.04096,0.412,13.0265,313,5,
69.7002,4.92096,6.03485,0.412,13.0265,313,5,
69.7003,4.92035,6.02875,0.412,13.0265,313,5,
69.7003,4.92065,6.03027,0.412,13.0265,313,5,
69.7003,4.92035,6.03027,0.412,13.0265,313,5,
69.7004,4.92004,6.02875,0.412,13.0265,313,5,
69.7004,4.92065,6.03027,0.412,13.0265,313,5,
69.7004,4.92065,6.02875,0.412,13.0265,313,5,
69.7005,4.92065,6.02722,0.412,13.0265,313,5,
69.7005,4.92157,6.02722,0.412,13.0265,313,5,
69.7005,4.92065,6.0318,0.412,13.0265,313,5,
69.7006,4.91547,6.02875,0.412,13.0265,313,5,
69.7006,4.91516,6.0318,0.412,13.0265,313,5,
69.7006,4.91486,6.03027,0.412,13.0265,313,5,
69.7007,4.91516,6.02875,0.412,13.0265,313,5,
69.7007,4.91577,6.03027,0.412,13.0265,313,5,
69.7007,4.91608,6.03027,0.412,13.0265,313,5,
69.7008,4.91577,6.02875,0.412,13.0265,313,5,
69.7008,4.91577,6.03027,0.412,13.0265,313,5,
69.7008,4.91516,6.03027,0.412,13.0265,313,5,
69.7009,4.91516,6.03027,0.412,13.0265,313,5,
69.7009,4.91516,6.0318,0.412,13.0265,313,5,
69.7009,4.91089,6.03333,0.412,13.0265,313,5,
69.701,4.90936,6.03027,0.412,13.0265,313,5,
69.701,4.91119,6.03485,0.412,13.0265,313,5,
69.701,4.91089,6.0318,0.412,13.0265,313,5,
69.7011,4.91028,6.0318,0.412,13.0265,313,5,
69.7011,4.91058,6.02875,0.412,13.0265,313,5,
69.7011,4.91058,6.03027,0.412,13.0265,313,5,
69.7012,4.91119,6.03027,0.412,13.0265,313,5,
69.7012,4.9115,6.0318,0.412,13.0265,313,5,
69.7012,4.91119,6.02875,0.412,13.0265,313,5,
69.7013,4.90631,6.02875,0.412,13.0265,313,5,
69.7013,4.90601,6.0318,0.412,13.0265,313,5,
69.7013,4.90601,6.03027,0.412,13.0265,313,5,
69.7014,4.90692,6.03027,0.412,13.0265,313,5,
69.7014,4.90631,6.02875,0.412,13.0265,313,5,
69.7014,4.90662,6.03027,0.412,13.0265,313,5,
69.7015,4.90631,6.03027,0.412,13.0265,313,5,
69.7015,4.90662,6.02722,0.412,13.0265,313,5,
69.7015,4.90692,6.02722,0.412,13.0265,313,5,
69.7016,4.9057,6.02875,0.412,13.0265,313,5,
69.7016,4.90204,6.03027,0.412,13.0265,313,5,
69.7016,4.90112,6.02722,0.412,13.0265,313,5,
69.7017,4.90082,6.03333,0.412,13.0265,313,0,
69.7017,4.90112,6.01807,0.412,13.0265,313,0,
69.7017,4.90082,6.01502,0.412,13.0265,313,0,
69.7018,4.90051,6.01654,0.412,13.0265,313,0,
69.7018,4.90082,6.01654,0.412,13.0265,313,0,
69.7018,4.90082,6.01959,0.412,13.0265,313,0,
69.7019,4.90051,6.01807,0.412,13.0265,313,0,
69.7019,4.90051,6.01654,0.412,13.0265,313,0,
69.7019,4.89624,6.01502,0.412,13.0265,313,0,
69.702,4.89624,6.02112,0.412,13.0265,313,0,
69.702,4.89594,6.01959,0.412,13.0265,313,0,
69.702,4.89563,6.01654,0.412,13.0265,313,0,
69.7021,4.89532,6.01654,0.412,13.0265,313,0,
69.7021,4.89532,6.01654,0.412,13.0265,313,0,
69.7021,4.89532,6.01807,0.412,13.0265,313,0,
69.7022,4.89563,6.01807,0.412,13.0265,313,0,
69.7022,4.89594,6.01807,0.412,13.0265,313,0,
69.7022,4.89594,6.01807,0.412,13.0265,313,0,
69.7023,4.8938,6.01196,0.412,13.0265,313,0,
69.7023,4.89075,6.02112,0.412,13.0265,313,0,
69.7023,4.89105,6.01807,0.412,13.0265,313,0,
69.7024,4.89105,6.01807,0.412,13.0265,313,0,
69.7024,4.89075,6.01502,0.412,13.0265,313,0,
69.7024,4.89166,6.01807,0.412,13.0265,313,0,
69.7025,4.89136,6.01502,0.412,13.0265,313,0,
69.7025,4.89105,6.01654,0.412,13.0265,313,0,
69.7025,4.89044,6.01959,0.412,13.0265,313,0,
69.7026,4.89075,6.01349,0.412,13.0265,313,0,
69.7026,4.89105,6.01959,0.412,13.0265,313,0,
69.7026,4.88617,6.01654,0.412,13.0265,313,0,
69.7027,4.88586,6.01807,0.412,13.0265,313,0,
69.7027,4.88678,6.01959,0.412,13.0265,313,0,
69.7027,4.88556,6.01807,0.412,13.0265,313,0,
69.7028,4.88525,6.01807,0.412,13.0265,313,0,
69.7028,4.88586,6.01959,0.412,13.0265,313,0,
69.7028,4.88617,6.01959,0.412,13.0265,313,0,
69.7029,4.88525,6.01654,0.412,13.0265,313,0,
69.7029,4.88617,6.01807,0.412,13.0265,313,0,
69.7029,4.88647,6.01807,0.412,13.0265,313,0,
69.703,4.88586,6.01959,0.412,13.0265,313,0,
69.703,4.88098,6.01807,0.412,13.0265,313,0,
69.703,4.88068,6.01807,0.412,13.0265,313,0,
69.7031,4.88129,6.01654,0.412,13.0265,313,0,
69.7031,4.88129,6.01807,0.412,13.0265,313,0,
69.7031,4.88129,6.01196,0.412,13.0265,313,0,
69.7032,4.88068,6.01654,0.412,13.0265,313,0,
69.7032,4.88037,6.01654,0.412,13.0265,313,0,
69.7032,4.88068,6.01959,0.412,13.0265,313,0,
69.7033,4.8822,6.01959,0.412,13.0265,313,0,
69.7033,4.88159,6.01959,0.412,13.0265,313,0,
69.7033,4.88098,6.01807,0.412,13.0265,313,0,
69.7034,4.87732,6.01654,0.412,13.0265,313,0,
69.7034,4.87671,6.01502,0.412,13.0265,313,0,
69.7034,4.87671,6.01654,0.412,13.0265,313,0,
69.7035,4.87732,6.00586,0.412,13.0265,313,0,
69.7035,4.87671,6.00739,0.412,13.0265,313,0,
69.7035,4.87671,6.00586,0.412,13.0265,313,0,
69.7036,4.8761,6.00433,0.412,13.0265,313,0,
69.7036,4.8764,6.00586,0.412,13.0265,313,0,
69.7036,4.8761,6.00128,0.412,13.0265,313,0,
69.7037,4.8761,6.00433,0.412,13.0265,313,0,
69.7037,4.8764,6.00586,0.412,13.0265,313,0,
69.7037,4.87122,6.00739,0.412,13.0265,313,0,
69.7038,4.87122,6.00739,0.412,13.0265,313,0,
69.7038,4.87183,6.00281,0.412,13.0265,313,0,
69.7038,4.87152,6.00739,0.412,13.0265,313,0,
69.7039,4.87152,6.00739,0.412,13.0265,313,0,
69.7039,4.87152,6.00281,0.412,13.0265,313,0,
69.7039,4.87152,6.00739,0.412,13.0265,313,0,
69.704,4.87122,6.00586,0.412,13.0265,313,0,
69.704,4.87152,6.00586,0.412,13.0265,313,0,
69.704,4.87122,6.00586,0.412,13.0265,313,0,
69.7041,4.87091,6.00433,0.412,13.0265,313,0,
69.7041,4.86969,6.00586,0.412,13.0265,313,0,
69.7041,4.86694,6.00586,0.412,13.0265,313,0,
69.7042,4.86633,6.00739,0.412,13.0265,313,0,
69.7042,4.86694,6.00739,0.412,13.0265,313,0,
69.7042,4.86694,6.00739,0.412,13.0265,313,0,
69.7043,4.86633,6.00739,0.412,13.0265,313,0,
69.7043,4.86694,6.00433,0.412,13.0265,313,0,
69.7043,4.86694,6.00586,0.412,13.0265,313,0,
69.7044,4.86664,6.00128,0.412,13.0265,313,0,
69.7044,4.86694,6.00739,0.412,13.0265,313,0,
69.7044,4.86755,6.00586,0.412,13.0265,313,0,
69.7045,4.86633,6.00433,0.412,13.0265,313,0,
69.7045,4.86481,6.00586,0.412,13.0265,313,0,
69.7045,4.86145,6.00433,0.412,13.0265,313,0,
69.7046,4.86176,6.00739,0.412,13.0265,313,0,
69.7046,4.86206,6.00433,0.412,13.0265,313,0,
69.7046,4.86176,6.00739,0.412,13.0265,313,0,
69.7047,4.86267,6.00891,0.412,13.0265,313,0,
69.7047,4.86206,6.00586,0.412,13.0265,313,0,
69.7047,4.86145,6.00586,0.412,13.0265,313,0,
69.7048,4.86237,6.00433,0.412,13.0265,313,0,
69.7048,4.86206,6.00891,0.412,13.0265,313,0,
69.7048,4.86145,6.00586,0.412,13.0265,313,0,
69.7049,4.86206,6.00739,0.412,13.0265,313,0,
69.7049,4.85992,6.00586,0.412,13.0265,313,0,
69.7049,4.85687,6.00739,0.412,13.0265,313,0,
69.705,4.85687,6.00281,0.412,13.0265,313,0,
69.705,4.85718,6.00739,0.412,13.0265,313,0,
69.705,4.85748,6.00433,0.412,13.0265,313,0,
69.7051,4.85718,6.00739,0.412,13.0265,313,0,
69.7051,4.85748,6.00891,0.412,13.0265,313,0,
69.7051,4.85687,6.01044,0.412,13.0265,313,0,
69.7052,4.85748,6.00891,0.412,13.0265,313,0,
69.7052,4.85718,6.00739,0.412,13.0265,313,0,
69.7052,4.85748,6.00891,0.412,13.0265,313,0,
69.7053,4.85657,6.00433,0.412,13.0265,313,0,
69.7053,4.85687,6.00433,0.412,13.0265,313,0,
69.7053,4.85138,6.00433,0.412,13.0265,313,0,
69.7054,4.8526,6.00433,0,13.0265,313,0,
69.7054,4.85199,6.00281,0,13.0265,313,0,
69.7054,4.8526,6.00281,0,13.0265,313,0,
69.7055,4.85199,6.00433,0,13.0265,313,0,
69.7055,4.85168,6.00433,0,13.0265,313,0,
69.7055,4.85168,6.00433,0,13.0265,313,0,
69.7056,4.85199,6.00586,0,13.0265,313,0,
69.7056,4.8526,6.00433,0,13.0265,313,0,
69.7056,4.85199,6.00891,0,13.0265,313,0,
69.7057,4.85199,6.00281,0,13.0265,313,0,
69.7057,4.85199,6.00433,0,13.0265,313,0,
69.7057,4.85199,6.00433,0,13.0265,313,0,
69.7058,4.8468,6.00586,2.272,13.0265,313,0,
69.7058,4.84802,6.00433,2.272,13.0265,313,0,
69.7058,4.84711,6.00586,2.272,13.0265,313,0,
69.7059,4.84711,6.00586,2.272,13.0265,313,0,
69.7059,4.84741,6.00586,2.272,13.0265,313,0,
69.7059,4.84711,6.00586,2.272,13.0265,313,0,
69.706,4.84741,6.00586,2.272,13.0265,313,0,
69.706,4.84711,6.00433,2.272,13.0265,313,0,
69.706,4.84741,6.00281,2.272,13.0265,313,0,
69.7061,4.84711,6.00891,2.272,13.0265,313,0,
69.7061,4.8468,6.00281,2.272,13.0265,313,0,
69.7061,4.84711,6.00433,2.272,13.0265,313,0,
69.7062,4.84497,6.00433,2.272,13.0265,313,0,
69.7062,4.84192,6.00433,2.272,13.0265,313,0,
69.7062,4.84192,6.00433,2.272,13.0265,313,0,
69.7063,4.84192,6.00739,2.272,13.0265,313,0,
69.7063,4.84192,6.00281,2.272,13.0265,313,0,
69.7063,4.84161,6.00586,2.272,13.0265,313,0,
69.7064,4.84222,5.99213,2.272,13.0265,313,0,
69.7064,4.84161,5.99365,2.272,13.0265,313,0,
69.7064,4.84192,5.99365,2.272,13.0265,313,0,
69.7065,4.84222,5.9906,2.272,13.0265,313,0,
69.7065,4.84192,5.99365,2.272,13.0265,313,0,
69.7065,4.84192,5.99365,2.272,13.0265,313,0,
69.7066,4.83826,5.9906,2.272,13.0265,313,0,
69.7066,4.83734,5.99213,2.272,13.0265,313,0,
69.7066,4.83704,5.99365,2.272,13.0265,313,0,
69.7067,4.83673,5.99823,2.272,13.0265,313,0,
69.7067,4.83704,5.98908,2.272,13.0265,313,0,
69.7067,4.83704,5.99518,2.272,13.0265,313,0,
69.7068,4.83734,5.99365,2.272,13.0265,313,0,
69.7068,4.83734,5.99518,2.272,13.0265,313,0,
69.7068,4.83704,5.99213,2.272,13.0265,313,0,
69.7069,4.83734,5.99671,2.272,13.0265,313,0,
69.7069,4.83673,5.99213,2.272,13.0265,313,0,
69.7069,4.83276,5.99365,2.272,13.0265,313,0,
69.707,4.83185,5.99671,2.272,13.0265,313,0,
69.707,4.83185,5.98908,2.272,13.0265,313,0,
69.707,4.83215,5.99365,2.272,13.0265,313,0,
69.7071,4.83215,5.98908,2.272,13.0265,313,0,
69.7071,4.83246,5.99671,2.272,13.0265,313,0,
69.7071,4.83246,5.99213,2.272,13.0265,313,0,
69.7072,4.83215,5.99213,2.272,13.0265,313,0,
69.7072,4.83215,5.99365,2.272,13.0265,313,0,
69.7072,4.82819,5.99518,2.272,13.0265,313,0,
69.7073,4.82697,5.99213,2.272,13.0265,313,0,
69.7073,4.82697,5.99365,2.272,13.0265,313,0,
69.7073,4.82758,5.99213,2.272,13.0265,313,0,
69.7074,4.82727,5.99671,2.272,13.0265,313,0,
69.7074,4.82727,5.99213,2.272,13.0265,313,0,
69.7074,4.82727,5.99213,2.272,13.0265,313,0,
69.7075,4.82758,5.99213,2.272,13.0265,313,0,
69.7075,4.82361,5.99518,2.272,13.0265,313,0,
69.7075,4.82269,5.99976,2.272,13.0265,313,0,
69.7076,4.82239,5.99365,2.272,13.0265,313,0,
69.7076,4.823,5.99518,2.272,13.0265,313,0,
69.7076,4.82239,5.99365,2.272,13.0265,313,0,
69.7077,4.823,5.99518,2.272,13.0265,313,0,
69.7077,4.82269,5.99213,2.272,13.0265,313,0,
69.7077,4.81842,5.98297,2.272,13.0265,313,0,
69.7078,4.8172,5.98297,2.272,13.0265,313,0,
69.7078,4.8175,5.97992,2.272,13.0265,313,0,
69.7078,4.81812,5.98145,2.272,13.0265,313,0,
69.7079,4.81781,5.97992,2.272,13.0265,313,0,
69.7079,4.8172,5.97839,2.272,13.0265,313,0,
69.7079,4.81537,5.97992,2.272,13.0265,313,0,
69.708,4.81201,5.97839,2.272,13.0265,313,0,
69.708,4.81293,5.98145,2.272,13.0265,313,0,
69.708,4.81232,5.97839,2.272,13.0265,313,0,
69.7081,4.81232,5.97992,2.272,13.0265,313,0,
69.7081,4.81293,5.98145,2.272,13.0265,313,0,
69.7081,4.80774,5.97992,2.272,13.0265,313,0,
69.7082,4.80835,5.97687,2.272,13.0265,313,0,
69.7082,4.80774,5.98297,2.272,13.0265,313,0,
69.7082,4.80804,5.98297,2.272,13.0265,313,0,
69.7083,4.80713,5.9845,2.272,13.0265,313,0,
69.7083,4.80316,5.97687,2.272,13.0265,313,0,
69.7083,4.80255,5.97992,2.272,13.0265,313,0,
69.7084,4.80286,5.97992,2.272,13.0265,313,0,
69.7084,4.80225,5.97839,2.272,13.0265,313,0,
69.7084,4.80255,5.97992,2.272,13.0265,313,0,
69.7085,4.79858,5.98145,2.272,13.0265,313,0,
69.7085,4.79858,5.97992,2.272,13.0265,313,0,
69.7085,4.79767,5.9845,2.272,13.0265,313,0,
69.7086,4.79736,5.98297,2.272,13.0265,313,0,
69.7086,4.79828,5.98297,2.272,13.0265,313,0,
69.7086,4.79279,5.97992,2.272,13.0265,313,0,
69.7087,4.79309,5.98145,2.272,13.0265,313,0,
69.7087,4.79279,5.97992,2.272,13.0265,313,0,
69.7087,4.79218,5.97839,2.272,13.0265,313,0,
69.7088,4.79095,5.97839,2.272,13.0265,313,0,
69.7088,4.7879,5.97992,2.272,13.0265,313,0,
69.7088,4.78851,5.97077,2.272,13.0265,313,0,
69.7089,4.78821,5.96771,2.272,13.0265,313,0,
69.7089,4.7879,5.96466,2.272,13.0265,313,0,
69.7089,4.78333,5.96771,2.272,13.0265,313,0,
69.709,4.78302,5.97077,2.272,13.0265,313,0,
69.709,4.78394,5.96619,2.272,13.0265,313,0,
69.709,4.78302,5.96771,2.272,13.0265,313,0,
69.7091,4.77783,5.97077,2.272,13.0265,313,0,
69.7091,4.77783,5.97077,2.272,13.0265,313,0,
69.7091,4.77875,5.96619,2.272,13.0265,313,0,
69.7092,4.77783,5.97229,2.272,13.0265,313,0,
69.7092,4.77417,5.96771,2.272,13.0265,313,0,
69.7092,4.77325,5.96771,2.272,13.0265,313,0,
69.7093,4.77295,5.97077,2.272,13.0265,313,0,
69.7093,4.77325,5.96619,2.272,13.0265,313,0,
69.7093,4.76959,5.96924,2.272,13.0265,313,0,
69.7094,4.76807,5.97077,2.272,13.0265,313,0,
69.7094,4.76837,5.96924,2.272,13.0265,313,0,
69.7094,4.76929,5.96924,2.272,13.0265,313,0,
69.7095,4.76532,5.96619,2.272,13.0265,313,0,
69.7095,4.76349,5.96771,2.272,13.0265,313,0,
69.7095,4.76349,5.96771,2.272,13.0265,313,0,
69.7096,4.76379,5.97077,2.272,13.0265,313,0,
69.7096,4.75922,5.97077,2.272,13.0265,313,0,
69.7096,4.7583,5.96619,2.272,13.0265,313,0,
69.7097,4.75861,5.96771,2.272,13.0265,313,0,
69.7097,4.75891,5.97077,2.272,13.0265,313,0,
69.7097,4.75372,5.96771,2.272,13.0265,313,0,
69.7098,4.75342,5.96924,2.272,13.0265,313,0,
69.7098,4.75372,5.96924,2.272,13.0265,313,0,
69.7098,4.75403,5.97077,2.272,13.0265,313,0,
69.7099,4.74915,5.96008,2.272,13.0265,313,0,
69.7099,4.74884,5.95398,2.272,13.0265,313,0,
69.7099,4.74915,5.95551,2.272,13.0265,313,0,
69.71,4.74884,5.95703,2.272,13.0265,313,0,
69.71,4.74365,5.95093,2.272,13.0265,313,0,
69.71,4.74396,5.95703,2.272,13.0265,313,0,
69.7101,4.74365,5.95703,2.272,13.0265,313,0,
69.7101,4.74335,5.95398,2.272,13.0265,313,0,
69.7101,4.73877,5.95703,2.272,13.0265,313,0,
69.7102,4.73907,5.95398,2.272,13.0265,313,0,
69.7102,4.73846,5.95398,2.272,13.0265,313,0,
69.7102,4.73694,5.95551,2.272,13.0265,313,0,
69.7103,4.73358,5.95551,2.272,13.0265,313,0,
69.7103,4.7348,5.95551,2.272,13.0265,313,0,
69.7103,4.73419,5.95703,2.272,13.0265,313,0,
69.7104,4.73022,5.95856,2.272,13.0265,313,0,
69.7104,4.72931,5.95398,2.272,13.0265,313,0,
69.7104,4.72931,5.95703,2.272,13.0265,313,0,
69.7105,4.72931,5.95551,2.272,13.0265,313,0,
69.7105,4.72412,5.96314,2.272,13.0265,313,0,
69.7105,4.72473,5.95551,2.272,13.0265,313,0,
69.7106,4.72351,5.95703,2.272,13.0265,313,0,
69.7106,4.72382,5.96008,2.272,13.0265,313,0,
69.7106,4.71954,5.95245,2.272,13.0265,313,0,
69.7107,4.71893,5.95551,2.272,13.0265,313,0,
69.7107,4.71985,5.95551,2.272,13.0265,313,0,
69.7107,4.71741,5.95551,2.272,13.0265,313,0,
69.7108,4.71527,5.95551,2.272,13.0265,313,0,
69.7108,4.71436,5.95703,2.272,13.0265,313,0,
69.7108,4.71436,5.95398,2.272,13.0265,313,0,
69.7109,4.71039,5.95245,2.272,13.0265,313,0,
69.7109,4.70978,5.95551,2.272,13.0265,313,0,
69.7109,4.70947,5.95703,2.272,13.0265,313,0,
69.711,4.70978,5.95398,2.272,13.0265,313,0,
69.711,4.7049,5.95703,2.272,13.0265,313,0,
69.711,4.7049,5.94177,2.272,13.0265,313,0,
69.7111,4.70428,5.9433,2.272,13.0265,313,0,
69.7111,4.7049,5.94483,2.272,13.0265,313,0,
69.7111,4.70001,5.94483,2.272,13.0265,313,0,
69.7112,4.69971,5.94635,2.272,13.0265,313,0,
69.7112,4.70001,5.94177,2.272,13.0265,313,0,
69.7112,4.69757,5.94635,2.272,13.0265,313,0,
69.7113,4.69543,5.9433,2.272,13.0265,313,0,
69.7113,4.69482,5.94483,2.272,13.0265,313,0,
69.7113,4.69452,5.94635,2.272,13.0265,313,0,
69.7114,4.69269,5.9433,2.272,13.0265,313,0,
69.7114,4.68964,5.94483,2.272,13.0265,313,0,
69.7114,4.68964,5.94483,2.272,13.0265,313,0,
69.7115,4.69025,5.9433,2.272,13.0265,313,0,
69.7115,4.68658,5.9433,2.272,13.0265,313,0,
69.7115,4.68536,5.94483,2.272,13.0265,313,0,
69.7116,4.68597,5.9433,2.272,13.0265,313,0,
69.7116,4.68536,5.9433,2.272,13.0265,313,0,
69.7116,4.68079,5.94177,2.272,13.0265,313,0,
69.7117,4.68018,5.94177,2.272,13.0265,313,0,
69.7117,4.68048,5.94177,2.272,13.0265,313,0,
69.7117,4.68048,5.94177,2.272,13.0265,313,0,
69.7118,4.6759,5.9433,2.272,13.0265,313,0,
69.7118,4.6756,5.93872,2.272,13.0265,313,0,
69.7118,4.6756,5.94025,2.272,13.0265,313,0,
69.7119,4.67499,5.94025,2.272,13.0265,313,0,
69.7119,4.67041,5.94483,2.272,13.0265,313,0,
69.7119,4.67072,5.94483,2.272,13.0265,313,0,
69.712,4.67041,5.94025,2.272,13.0265,313,0,
69.712,4.67072,5.94788,2.272,13.0265,313,0,
69.712,4.66644,5.94177,2.272,13.0265,313,0,
69.7121,4.66614,5.9433,2.272,13.0265,313,0,
69.7121,4.66553,5.94483,2.272,13.0265,313,0,
69.7121,4.66553,5.94177,2.272,13.0265,313,0,
69.7122,4.66064,5.94177,2.272,13.0265,313,0,
69.7122,4.66125,5.94483,2.272,13.0265,313,0,
69.7122,4.66095,5.92957,2.272,13.0265,313,0,
69.7123,4.66095,5.93262,2.272,13.0265,313,0,
69.7123,4.65607,5.93109,2.272,13.0265,313,0,
69.7123,4.65546,5.92804,2.272,13.0265,313,0,
69.7124,4.65546,5.93262,2.272,13.0265,313,0,
69.7124,4.65607,5.92957,2.272,13.0265,313,0,
69.7124,4.65149,5.93109,2.272,13.0265,313,0,
69.7125,4.65118,5.92957,2.272,13.0265,313,0,
69.7125,4.65057,5.93262,2.272,13.0265,313,0,
69.7125,4.65118,5.92957,2.272,13.0265,313,0,
69.7126,4.64661,5.92804,2.272,13.0265,313,0,
69.7126,4.64569,5.93262,2.272,13.0265,313,0,
69.7126,4.64691,5.93109,2.272,13.0265,313,0,
69.7127,4.646,5.93262,2.272,13.0265,313,0,
69.7127,4.64417,5.93414,2.272,13.0265,313,0,
69.7127,4.64111,5.93109,2.272,13.0265,313,0,
69.7128,4.6405,5.93262,2.272,13.0265,313,0,
69.7128,4.64111,5.93414,2.272,13.0265,313,0,
69.7128,4.6405,5.93567,2.272,13.0265,313,0,
69.7129,4.63623,5.93109,2.272,13.0265,313,0,
69.7129,4.63654,5.93262,2.272,13.0265,313,0,
69.7129,4.63715,5.93262,2.272,13.0265,313,0,
69.713,4.63654,5.93262,2.272,13.0265,313,0,
69.713,4.63165,5.93109,2.272,13.0265,313,0,
69.713,4.63165,5.93109,2.272,13.0265,313,0,
69.7131,4.63165,5.92804,2.272,13.0265,313,0,
69.7131,4.63135,5.93109,2.272,13.0265,313,0,
69.7131,4.62982,5.93262,2.272,13.0265,313,0,
69.7132,4.62646,5.93414,2.272,13.0265,313,0,
69.7132,4.62616,5.93414,2.272,13.0265,313,0,
69.7132,4.62677,5.92957,2.272,13.0265,313,0,
69.7133,4.62677,5.93262,2.272,13.0265,313,0,
69.7133,4.62189,5.93262,2.272,13.0265,313,0,
69.7133,4.62158,5.92957,2.272,13.0265,313,0,
69.7134,4.62158,5.93262,2.272,13.0265,313,0,
69.7134,4.62189,5.92957,2.272,13.0265,313,0,
69.7134,4.62189,5.92041,2.272,13.0265,313,0,
69.7135,4.61639,5.92346,2.272,13.0265,313,0,
69.7135,4.6167,5.91583,2.272,13.0265,313,0,
69.7135,4.6167,5.91736,2.272,13.0265,313,0,
69.7136,4.617,5.91736,2.272,13.0265,313,0,
69.7136,4.61304,5.91583,2.272,13.0265,313,0,
69.7136,4.61182,5.91889,2.272,13.0265,313,0,
69.7137,4.61182,5.91736,2.272,13.0265,313,0,
69.7137,4.61182,5.91889,2.272,13.0265,313,0,
69.7137,4.61182,5.92041,2.272,13.0265,313,0,
69.7138,4.60663,5.91736,2.272,13.0265,313,0,
69.7138,4.60693,5.91431,2.272,13.0265,313,0,
69.7138,4.60724,5.92041,2.272,13.0265,313,0,
69.7139,4.60724,5.91583,2.272,13.0265,313,0,
69.7139,4.60632,5.92041,2.272,13.0265,313,0,
69.7139,4.60236,5.91736,2.272,13.0265,313,0,
69.714,4.60236,5.92041,2.272,13.0265,313,0,
69.714,4.60236,5.91583,2.272,13.0265,313,0,
69.714,4.60175,5.92194,2.272,13.0265,313,0,
69.7141,4.60205,5.91736,2.272,13.0265,313,0,
69.7141,4.59717,5.91736,2.272,13.0265,313,0,
69.7141,4.59625,5.92041,2.272,13.0265,313,0,
69.7142,4.59686,5.92041,2.272,13.0265,313,0,
69.7142,4.59198,5.91889,2.272,13.0265,313,0,
69.7142,4.59167,5.92041,2.272,13.0265,313,0,
69.7143,4.59167,5.91736,2.272,13.0265,313,0,
69.7143,4.59229,5.91736,2.272,13.0265,313,0,
69.7143,4.59259,5.91736,2.272,13.0265,313,0,
69.7144,4.58679,5.91889,2.272,13.0265,313,0,
69.7144,4.5871,5.91583,2.272,13.0265,313,0,
69.7144,4.5871,5.92041,2.272,13.0265,313,0,
69.7145,4.58679,5.92041,2.272,13.0265,313,0,
69.7145,4.58618,5.91736,2.272,13.0265,313,0,
69.7145,4.58252,5.91889,2.272,13.0265,313,0,
69.7146,4.58191,5.91431,2.272,13.0265,313,0,
69.7146,4.58252,5.92041,2.272,13.0265,313,0,
69.7146,4.5816,5.9082,2.272,13.0265,313,0,
69.7147,4.58282,5.90668,2.272,13.0265,313,0,
69.7147,4.57825,5.90668,2.272,13.0265,313,0,
69.7147,4.57703,5.9082,2.272,13.0265,313,0,
69.7148,4.57703,5.90515,2.272,13.0265,313,0,
69.7148,4.57764,5.90668,2.272,13.0265,313,0,
69.7148,4.57733,5.90668,2.272,13.0265,313,0,
69.7149,4.57245,5.90515,2.272,13.0265,313,0,
69.7149,4.57245,5.90668,2.272,13.0265,313,0,
69.7149,4.57275,5.9082,2.272,13.0265,313,0,
69.715,4.57245,5.90668,2.272,13.0265,313,0,
69.715,4.57245,5.90973,2.272,13.0265,313,0,
69.715,4.57062,5.90668,2.272,13.0265,313,0,
69.7151,4.56696,5.90668,2.272,13.0265,313,0,
69.7151,4.56726,5.90363,2.272,13.0265,313,0,
69.7151,4.56787,5.90515,2.272,13.0265,313,0,
69.7152,4.56787,5.90515,2.272,13.0265,313,0,
69.7152,4.56696,5.9082,2.272,13.0265,313,0,
69.7152,4.56268,5.90668,2.272,13.0265,313,0,
69.7153,4.56238,5.91126,2.272,13.0265,313,0,
69.7153,4.56207,5.9082,2.272,13.0265,313,0,
69.7153,4.56268,5.90668,2.272,13.0265,313,0,
69.7154,4.56238,5.90668,2.272,13.0265,313,0,
69.7154,4.55872,5.90668,2.272,13.0265,313,0,
69.7154,4.55811,5.90515,2.272,13.0265,313,0,
69.7155,4.5578,5.90668,2.272,13.0265,313,0,
69.7155,4.55872,5.90515,2.272,13.0265,313,0,
69.7155,4.55841,5.9082,2.272,13.0265,313,0,
69.7156,4.55841,5.9082,2.272,13.0265,313,0,
69.7156,4.55383,5.90363,2.272,13.0265,313,0,
69.7156,4.55322,5.9082,2.272,13.0265,313,0,
69.7157,4.55353,5.90973,2.272,13.0265,313,0,
69.7157,4.55383,5.90515,2.272,13.0265,313,0,
69.7157,4.55383,5.90668,2.272,13.0265,313,0,
69.7158,4.54926,5.9082,2.272,13.0265,313,0,
69.7158,4.54865,5.9082,2.272,13.0265,313,0,
69.7158,4.54865,5.896,2.272,13.0265,313,0,
69.7159,4.54865,5.89752,2.272,13.0265,313,0,
69.7159,4.54865,5.896,2.272,13.0265,313,0,
69.7159,4.54834,5.896,2.272,13.0265,313,0,
69.716,4.54346,5.896,2.272,13.0265,313,0,
69.716,4.54315,5.896,2.272,13.0265,313,0,
69.716,4.54346,5.89142,2.272,13.0265,313,0,
69.7161,4.54315,5.896,2.272,13.0265,313,0,
69.7161,4.54285,5.89295,2.272,13.0265,313,0,
69.7161,4.54102,5.89447,2.272,13.0265,313,0,
69.7162,4.53827,5.896,2.272,13.0265,313,0,
69.7162,4.53766,5.89142,2.272,13.0265,313,0,
69.7162,4.53827,5.896,2.272,13.0265,313,0,
69.7163,4.53796,5.89752,2.272,13.0265,313,0,
69.7163,4.53857,5.89447,2.272,13.0265,313,0,
69.7163,4.53369,5.89295,2.272,13.0265,313,0,
69.7164,4.53308,5.89142,2.272,13.0265,313,0,
69.7164,4.53278,5.896,2.272,13.0265,313,0,
69.7164,4.53278,5.89295,2.272,13.0265,313,0,
69.7165,4.53369,5.89295,2.272,13.0265,313,0,
69.7165,4.53278,5.89447,2.272,13.0265,313,0,
69.7165,4.52911,5.89142,2.272,13.0265,313,0,
69.7166,4.52759,5.89295,2.272,13.0265,313,0,
69.7166,4.5285,5.896,2.272,13.0265,313,0,
69.7166,4.5285,5.89295,2.272,13.0265,313,0,
69.7167,4.5282,5.896,2.272,13.0265,313,0,
69.7167,4.5282,5.89295,2.272,13.0265,313,0,
69.7167,4.52423,5.896,2.272,13.0265,313,0,
69.7168,4.52301,5.89142,2.272,13.0265,313,0,
69.7168,4.52393,5.896,2.272,13.0265,313,0,
69.7168,4.52362,5.896,2.272,13.0265,313,0,
69.7169,4.52301,5.89752,2.272,13.0265,313,0,
69.7169,4.52332,5.89447,2.272,13.0265,313,0,
69.7169,4.51935,5.89142,2.272,13.0265,313,0,
69.717,4.51874,5.896,2.272,13.0265,313,0,
69.717,4.51874,5.89295,2.272,13.0265,313,0,
69.717,4.51874,5.88074,2.272,13.0265,313,0,
69.7171,4.51843,5.88379,2.272,13.0265,313,0,
69.7171,4.51813,5.87769,2.272,13.0265,313,0,
69.7171,4.5166,5.88226,2.272,13.0265,313,0,
69.7172,4.51416,5.88226,2.272,13.0265,313,0,
69.7172,4.51416,5.88226,2.272,13.0265,313,0,
69.7172,4.51447,5.88226,2.272,13.0265,313,0,
69.7173,4.51385,5.88226,2.272,13.0265,313,0,
69.7173,4.51324,5.88074,2.272,13.0265,313,0,
69.7173,4.51111,5.88379,2.272,13.0265,313,0,
69.7174,4.50867,5.88074,2.272,13.0265,313,0,
69.7174,4.50867,5.88379,2.272,13.0265,313,0,
69.7174,4.50836,5.88379,2.272,13.0265,313,0,
69.7175,4.50928,5.88379,2.272,13.0265,313,0,
69.7175,4.50867,5.88379,2.272,13.0265,313,0,
69.7175,4.50897,5.88226,2.272,13.0265,313,0,
69.7176,4.50409,5.88226,2.272,13.0265,313,0,
69.7176,4.50409,5.87921,2.272,13.0265,313,0,
69.7176,4.50378,5.88226,2.272,13.0265,313,0,
69.7177,4.50409,5.88226,2.272,13.0265,313,0,
69.7177,4.50378,5.88379,2.272,13.0265,313,0,
69.7177,4.50409,5.88532,2.272,13.0265,313,0,
69.7178,4.49921,5.88532,2.272,13.0265,313,0,
69.7178,4.49951,5.88532,2.272,13.0265,313,0,
69.7178,4.4989,5.88074,2.272,13.0265,313,0,
69.7179,4.4989,5.88074,2.272,13.0265,313,0,
69.7179,4.4986,5.88074,2.272,13.0265,313,0,
69.7179,4.4986,5.88532,2.272,13.0265,313,0,
69.718,4.49463,5.87921,2.272,13.0265,313,0,
69.718,4.49341,5.88379,2.272,13.0265,313,0,
69.718,4.49371,5.88226,2.272,13.0265,313,0,
69.7181,4.49341,5.88226,2.272,13.0265,313,0,
69.7181,4.49371,5.88074,2.272,13.0265,313,0,
69.7181,4.49432,5.88532,2.272,13.0265,313,0,
69.7182,4.49005,5.87921,2.272,13.0265,313,0,
69.7182,4.49005,5.88379,2.272,13.0265,313,0,
69.7182,4.48914,5.88226,2.272,13.0265,313,0,
69.7183,4.48914,5.88226,2.272,13.0265,313,0,
69.7183,4.49005,5.88379,2.272,13.0265,313,0,
69.7183,4.48944,5.88226,2.272,13.0265,313,0,
69.7184,4.4873,5.86701,2.272,13.0265,313,0,
69.7184,4.48456,5.86701,2.272,13.0265,313,0,
69.7184,4.48395,5.87311,2.272,13.0265,313,0,
69.7185,4.48425,5.87311,2.272,13.0265,313,0,
69.7185,4.48486,5.87158,2.272,13.0265,313,0,
69.7185,4.48395,5.87006,2.272,13.0265,313,0,
69.7186,4.48212,5.86853,2.272,13.0265,313,0,
69.7186,4.47937,5.87006,2.272,13.0265,313,0,
69.7186,4.47968,5.86853,2.272,13.0265,313,0,
69.7187,4.47937,5.86701,2.272,13.0265,313,0,
69.7187,4.47937,5.86701,2.272,13.0265,313,0,
69.7187,4.47906,5.87158,2.272,13.0265,313,0,
69.7188,4.47968,5.86701,2.272,13.0265,313,0,
69.7188,4.47418,5.87158,2.272,13.0265,313,0,
69.7188,4.47449,5.87311,2.272,13.0265,313,0,
69.7189,4.47449,5.87158,2.272,13.0265,313,0,
69.7189,4.47479,5.86701,2.272,13.0265,313,0,
69.7189,4.47418,5.86853,2.272,13.0265,313,0,
69.719,4.47479,5.87006,2.272,13.0265,313,0,
69.719,4.46991,5.87311,2.272,13.0265,313,0,
69.719,4.46991,5.87463,2.272,13.0265,313,0,
69.7191,4.4693,5.87158,2.272,13.0265,313,0,
69.7191,4.46991,5.87006,2.272,13.0265,313,0,
69.7191,4.47021,5.87311,2.272,13.0265,313,0,
69.7192,4.4696,5.87158,2.272,13.0265,313,0,
69.7192,4.46503,5.87311,2.272,13.0265,313,0,
69.7192,4.46442,5.87006,2.272,13.0265,313,0,
69.7193,4.46442,5.86701,2.272,13.0265,313,0,
69.7193,4.46472,5.86548,2.272,13.0265,313,0,
69.7193,4.46442,5.86853,2.272,13.0265,313,0,
69.7194,4.46533,5.87006,2.272,13.0265,313,0,
69.7194,4.46045,5.87006,2.272,13.0265,313,0,
69.7194,4.46014,5.87158,2.272,13.0265,313,0,
69.7195,4.46014,5.87158,2.272,13.0265,313,0,
69.7195,4.46014,5.87006,2.272,13.0265,313,0,
69.7195,4.46014,5.86548,2.272,13.0265,313,0,
69.7196,4.46014,5.87006,2.272,13.0265,313,0,
69.7196,4.45801,5.86548,2.272,13.0265,313,0,
69.7196,4.45435,5.86853,2.272,13.0265,313,0,
69.7197,4.45496,5.85938,2.272,13.0265,313,0,
69.7197,4.45465,5.85785,2.272,13.0265,313,0,
69.7197,4.45496,5.8548,2.272,13.0265,313,0,
69.7198,4.45465,5.85938,2.272,13.0265,313,0,
69.7198,4.45343,5.85785,2.272,13.0265,313,0,
69.7198,4.45007,5.85785,2.272,13.0265,313,0,
69.7199,4.45007,5.85938,2.272,13.0265,313,0,
69.7199,4.45038,5.85632,2.272,13.0265,313,0,
69.7199,4.45038,5.85785,2.272,13.0265,313,0,
69.72,4.45007,5.85785,2.272,13.0265,313,0,
69.72,4.45007,5.85632,2.272,13.0265,313,0,
69.72,4.4455,5.8609,2.272,13.0265,313,0,
69.7201,4.44489,5.85785,2.272,13.0265,313,0,
69.7201,4.4458,5.8609,2.272,13.0265,313,0,
69.7201,4.44519,5.8548,2.272,13.0265,313,0,
69.7202,4.44519,5.85785,2.272,13.0265,313,0,
69.7202,4.44519,5.85632,2.272,13.0265,313,0,
69.7202,4.44031,5.85938,2.272,13.0265,313,0,
69.7203,4.44031,5.85785,2.272,13.0265,313,0,
69.7203,4.44031,5.85785,2.272,13.0265,313,0,
69.7203,4.44031,5.85785,2.272,13.0265,313,0,
69.7204,4.44,5.8548,2.272,13.0265,313,0,
69.7204,4.44,5.85785,2.272,13.0265,313,0,
69.7204,4.44,5.8548,2.272,13.0265,313,0,
69.7205,4.43481,5.85785,2.272,13.0265,313,0,
69.7205,4.43451,5.85785,2.272,13.0265,313,0,
69.7205,4.43542,5.85938,2.272,13.0265,313,0,
69.7206,4.43542,5.85785,2.272,13.0265,313,0,
69.7206,4.4342,5.85785,2.272,13.0265,313,0,
69.7206,4.43481,5.85785,2.272,13.0265,313,0,
69.7207,4.43512,5.85632,2.272,13.0265,313,0,
69.7207,4.43054,5.85785,2.272,13.0265,313,0,
69.7207,4.43024,5.8548,2.272,13.0265,313,0,
69.7208,4.43054,5.85632,2.272,13.0265,313,0,
69.7208,4.42963,5.85632,2.272,13.0265,313,0,
69.7208,4.43024,5.85785,2.272,13.0265,313,0,
69.7209,4.43054,5.85785,2.272,13.0265,313,0,
69.7209,4.43024,5.85938,2.272,13.0265,313,0,
69.7209,4.42596,5.85785,2.272,13.0265,313,0,
69.721,4.42566,5.85938,2.272,13.0265,313,0,
69.721,4.42505,5.84869,2.272,13.0265,313,0,
69.721,4.42566,5.84564,2.272,13.0265,313,0,
69.7211,4.42505,5.84717,2.272,13.0265,313,0,
69.7211,4.42535,5.84412,2.272,13.0265,313,0,
69.7211,4.42566,5.84717,2.272,13.0265,313,0,
69.7212,4.42535,5.84412,2.272,13.0265,313,0,
69.7212,4.42139,5.84259,2.272,13.0265,313,0,
69.7212,4.42047,5.84107,2.272,13.0265,313,0,
69.7213,4.42047,5.84259,2.272,13.0265,313,0,
69.7213,4.42139,5.84869,2.272,13.0265,313,0,
69.7213,4.42047,5.84564,2.272,13.0265,313,0,
69.7214,4.42078,5.84869,2.272,13.0265,313,0,
69.7214,4.42017,5.84564,2.272,13.0265,313,0,
69.7214,4.42047,5.84717,2.272,13.0265,313,0,
69.7215,4.41589,5.84564,2.272,13.0265,313,0,
69.7215,4.41589,5.84564,2.272,13.0265,313,0,
69.7215,4.4162,5.84259,2.272,13.0265,313,0,
69.7216,4.41528,5.84564,2.272,13.0265,313,0,
69.7216,4.4165,5.84869,2.272,13.0265,313,0,
69.7216,4.41559,5.84717,2.272,13.0265,313,0,
69.7217,4.41498,5.84412,2.272,13.0265,313,0,
69.7217,4.41528,5.84259,2.272,13.0265,313,0,
69.7217,4.41528,5.84869,2.272,13.0265,313,0,
69.7218,4.41559,5.84412,2.272,13.0265,313,0,
69.7218,4.41162,5.84412,2.272,13.0265,313,0,
69.7218,4.41101,5.84412,2.272,13.0265,313,0,
69.7219,4.41101,5.84717,2.272,13.0265,313,0,
69.7219,4.4104,5.84564,2.272,13.0265,313,0,
69.7219,4.41132,5.84259,2.272,13.0265,313,0,
69.722,4.41101,5.84412,2.272,13.0265,313,0,
69.722,4.41101,5.84412,2.272,13.0265,313,0,
69.722,4.4104,5.84564,2.272,13.0265,313,0,
69.7221,4.41101,5.84259,2.272,13.0265,313,0,
69.7221,4.41132,5.84717,2.272,13.0265,313,0,
69.7221,4.41071,5.84412,2.272,13.0265,313,0,
69.7222,4.41101,5.84717,2.272,13.0265,313,0,
69.7222,4.4104,5.84564,2.272,13.0265,313,0,
69.7222,4.40521,5.84412,2.272,13.0265,313,0,
69.7223,4.40582,5.83496,2.272,13.0265,313,0,
69.7223,4.40552,5.83038,2.272,13.0265,313,0,
69.7223,4.40582,5.83191,2.272,13.0265,313,0,
69.7224,4.40552,5.83649,2.272,13.0265,313,0,
69.7224,4.40582,5.83191,2.272,13.0265,313,0,
69.7224,4.40582,5.83191,2.272,13.0265,313,0,
69.7225,4.40521,5.83191,2.272,13.0265,313,0,
69.7225,4.40552,5.83344,2.272,13.0265,313,0,
69.7225,4.40674,5.83496,2.272,13.0265,313,0,
69.7226,4.40582,5.83191,2.272,13.0265,313,0,
69.7226,4.40582,5.83496,2.272,13.0265,313,0,
69.7226,4.40582,5.83038,2.272,13.0265,313,0,
69.7227,4.40582,5.83191,2.272,13.0265,313,0,
69.7227,4.40582,5.83801,2.272,13.0265,313,0,
69.7227,4.40552,5.83344,2.272,13.0265,313,0,
69.7228,4.40582,5.83344,2.272,13.0265,313,0,
69.7228,4.40613,5.83191,2.272,13.0265,313,0,
69.7228,4.40613,5.83191,2.272,13.0265,313,0,
69.7229,4.40582,5.83038,2.272,13.0265,313,0,
69.7229,4.40582,5.83038,2.272,13.0265,313,0,
69.7229,4.40552,5.83496,2.272,13.0265,313,0,
69.723,4.40155,5.83344,2.272,13.0265,313,0,
69.723,4.40125,5.83496,2.272,13.0265,313,0,
69.723,4.40033,5.83344,1.014,13.0265,313,0,
69.7231,4.40125,5.83344,1.014,13.0265,313,0,
69.7231,4.40063,5.83344,1.014,13.0265,313,0,
69.7231,4.40063,5.83191,1.014,13.0265,313,0,
69.7232,4.40094,5.83038,1.014,13.0265,313,0,
69.7232,4.40125,5.83344,1.014,13.0265,313,0,
69.7232,4.40063,5.83496,1.014,13.0265,313,0,
69.7233,4.40125,5.83496,1.014,13.0265,313,0,
69.7233,4.40063,5.83191,1.014,13.0265,313,0,
69.7233,4.40094,5.83191,1.014,13.0265,313,0,
69.7234,4.40125,5.83496,1.014,13.0265,313,0,
69.7234,4.40033,5.83344,1.014,13.0265,313,0,
69.7234,4.40125,5.83344,1.014,13.0265,313,0,
69.7235,4.40063,5.83344,1.014,13.0265,313,0,
69.7235,4.40094,5.83191,1.014,13.0265,313,0,
69.7235,4.40125,5.8197,1.014,13.0265,313,0,
69.7236,4.40063,5.81665,1.014,13.0265,313,0,
69.7236,4.40094,5.82275,1.014,13.0265,313,0,
69.7236,4.40094,5.81665,1.014,13.0265,313,0,
69.7237,4.40125,5.81665,1.014,13.0265,313,0,
69.7237,4.40094,5.81818,1.014,13.0265,313,0,
69.7237,4.40094,5.82428,1.014,13.0265,313,0,
69.7238,4.40125,5.81665,1.014,13.0265,313,0,
69.7238,4.40094,5.81665,1.014,13.0265,313,0,
69.7238,4.40063,5.81818,1.014,13.0265,313,0,
69.7239,4.40063,5.82428,1.014,13.0265,313,0,
69.7239,4.40033,5.82275,1.014,13.0265,313,0,
69.7239,4.40063,5.81665,1.014,13.0265,313,0,
69.724,4.40094,5.82275,1.014,13.0265,313,0,
69.724,4.4043,5.81665,1.014,13.0265,313,0,
69.724,4.40552,5.82275,1.014,13.0265,313,0,
69.7241,4.40521,5.81818,1.014,13.0265,313,0,
69.7241,4.40613,5.8197,1.014,13.0265,313,0,
69.7241,4.40521,5.8197,1.014,13.0265,313,0,
69.7242,4.40552,5.82275,1.014,13.0265,313,0,
69.7242,4.40643,5.81818,1.014,13.0265,313,0,
69.7242,4.40613,5.81818,1.014,13.0265,313,0,
69.7243,4.40582,5.82275,1.014,13.0265,313,0,
69.7243,4.40613,5.8197,1.014,13.0265,313,0,
69.7243,4.40552,5.82581,1.014,13.0265,313,0,
69.7244,4.40552,5.8197,1.014,13.0265,313,0,
69.7244,4.40613,5.82428,1.014,13.0265,313,0,
69.7244,4.40613,5.82275,1.014,13.0265,313,0,
69.7245,4.40521,5.8197,1.014,13.0265,313,0,
69.7245,4.40613,5.81818,1.014,13.0265,313,0,
69.7245,4.40582,5.81818,1.014,13.0265,313,0,
69.7246,4.40582,5.82123,1.014,13.0265,313,0,
69.7246,4.40582,5.82275,1.014,13.0265,313,0,
69.7246,4.40643,5.82123,1.014,13.0265,313,0,
69.7247,4.40582,5.81818,1.014,13.0265,313,0,
69.7247,4.40552,5.80902,1.014,13.0265,313,0,
69.7247,4.4101,5.80902,1.014,13.0265,313,0,
69.7248,4.41101,5.80597,1.014,13.0265,313,0,
69.7248,4.41132,5.8075,1.014,13.0265,313,0,
69.7248,4.41071,5.8075,1.014,13.0265,313,0,
69.7249,4.41101,5.80902,1.014,13.0265,313,0,
69.7249,4.4101,5.8075,1.014,13.0265,313,0,
69.7249,4.4101,5.80597,1.014,13.0265,313,0,
69.725,4.41101,5.8075,1.014,13.0265,313,0,
69.725,4.41101,5.81055,1.014,13.0265,313,0,
69.725,4.4104,5.81055,1.014,13.0265,313,0,
69.7251,4.41071,5.80902,1.014,13.0265,313,0,
69.7251,4.41101,5.80597,1.014,13.0265,313,0,
69.7251,4.41071,5.80597,1.014,13.0265,313,0,
69.7252,4.41589,5.8075,1.014,13.0265,313,0,
69.7252,4.41589,5.80597,1.014,13.0265,313,0,
69.7252,4.41559,5.80902,1.014,13.0265,313,0,
69.7253,4.4162,5.80902,1.014,13.0265,313,0,
69.7253,4.4162,5.8075,1.014,13.0265,313,0,
69.7253,4.41589,5.8075,1.014,13.0265,313,0,
69.7254,4.4165,5.8075,1.014,13.0265,313,0,
69.7254,4.41589,5.8075,1.014,13.0265,313,0,
69.7254,4.41498,5.80597,1.014,13.0265,313,0,
69.7255,4.41559,5.80444,1.014,13.0265,313,0,
69.7255,4.41986,5.80902,1.014,13.0265,313,0,
69.7255,4.42047,5.80444,1.014,13.0265,313,0,
69.7256,4.42078,5.81055,1.014,13.0265,313,0,
69.7256,4.42047,5.80902,1.014,13.0265,313,0,
69.7256,4.42047,5.81055,1.014,13.0265,313,0,
69.7257,4.42108,5.80902,1.014,13.0265,313,0,
69.7257,4.42108,5.8075,1.014,13.0265,313,0,
69.7257,4.42047,5.80902,1.014,13.0265,313,0,
69.7258,4.42017,5.8075,1.014,13.0265,313,0,
69.7258,4.4223,5.80597,1.014,13.0265,313,0,
69.7258,4.42596,5.80444,1.014,13.0265,313,0,
69.7259,4.42535,5.79987,1.014,13.0265,313,0,
69.7259,4.42535,5.79529,1.014,13.0265,313,0,
69.7259,4.42566,5.79376,1.014,13.0265,313,0,
69.726,4.42505,5.79529,1.014,13.0265,313,0,
69.726,4.42596,5.79834,1.014,13.0265,313,0,
69.726,4.42596,5.79376,1.014,13.0265,313,0,
69.7261,4.42566,5.79529,1.014,13.0265,313,0,
69.7261,4.42993,5.79834,1.014,13.0265,313,0,
69.7261,4.43054,5.79681,1.014,13.0265,313,0,
69.7262,4.43054,5.79376,1.014,13.0265,313,0,
69.7262,4.43024,5.79987,1.014,13.0265,313,0,
69.7262,4.43115,5.79376,1.014,13.0265,313,0,
69.7263,4.43024,5.79529,1.014,13.0265,313,0,
69.7263,4.43054,5.79529,1.014,13.0265,313,0,
69.7263,4.42963,5.79529,1.014,13.0265,313,0,
69.7264,4.43268,5.79529,1.014,13.0265,313,0,
69.7264,4.43573,5.79529,1.014,13.0265,313,0,
69.7264,4.43512,5.79529,1.014,13.0265,313,0,
69.7265,4.43542,5.79681,1.014,13.0265,313,0,
69.7265,4.43512,5.79987,1.014,13.0265,313,0,
69.7265,4.43512,5.79376,1.014,13.0265,313,0,
69.7266,4.43512,5.79681,1.014,13.0265,313,0,
69.7266,4.43573,5.79376,1.014,13.0265,313,0,
69.7266,4.44061,5.79529,1.014,13.0265,313,0,
69.7267,4.44,5.79376,1.014,13.0265,313,0,
69.7267,4.4397,5.79529,1.014,13.0265,313,0,
69.7267,4.44031,5.79681,1.014,13.0265,313,0,
69.7268,4.44031,5.79529,1.014,13.0265,313,0,
69.7268,4.44031,5.79529,1.014,13.0265,313,0,
69.7268,4.44,5.79681,1.014,13.0265,313,0,
69.7269,4.44519,5.79529,1.014,13.0265,313,0,
69.7269,4.4458,5.79681,1.014,13.0265,313,0,
69.7269,4.44397,5.79224,1.014,13.0265,313,0,
69.727,4.44458,5.79224,1.014,13.0265,313,0,
69.727,4.44519,5.79834,1.014,13.0265,313,0,
69.727,4.44519,5.79987,1.014,13.0265,313,0,
69.7271,4.44824,5.79681,1.014,13.0265,313,0,
69.7271,4.45007,5.78308,1.014,13.0265,313,0,
69.7271,4.45068,5.78613,1.014,13.0265,313,0,
69.7272,4.44977,5.78156,1.014,13.0265,313,0,
69.7272,4.45038,5.78613,1.014,13.0265,313,0,
69.7272,4.45038,5.78461,1.014,13.0265,313,0,
69.7273,4.44977,5.78156,1.014,13.0265,313,0,
69.7273,4.45465,5.78613,1.014,13.0265,313,0,
69.7273,4.45496,5.78461,1.014,13.0265,313,0,
69.7274,4.45526,5.78156,1.014,13.0265,313,0,
69.7274,4.45557,5.78308,1.014,13.0265,313,0,
69.7274,4.45496,5.78461,1.014,13.0265,313,0,
69.7275,4.45557,5.78308,1.014,13.0265,313,0,
69.7275,4.45953,5.78461,1.014,13.0265,313,0,
69.7275,4.45984,5.78156,1.014,13.0265,313,0,
69.7276,4.45923,5.78308,1.014,13.0265,313,0,
69.7276,4.45984,5.78156,1.014,13.0265,313,0,
69.7276,4.45953,5.78461,1.014,13.0265,313,0,
69.7277,4.45984,5.78156,1.014,13.0265,313,0,
69.7277,4.46472,5.78613,1.014,13.0265,313,0,
69.7277,4.46503,5.78308,1.014,13.0265,313,0,
69.7278,4.46503,5.78308,1.014,13.0265,313,0,
69.7278,4.46442,5.78461,1.014,13.0265,313,0,
69.7278,4.46472,5.78156,1.014,13.0265,313,0,
69.7279,4.46686,5.78003,1.014,13.0265,313,0,
69.7279,4.4693,5.78308,1.014,13.0265,313,0,
69.7279,4.46899,5.78613,1.014,13.0265,313,0,
69.728,4.47021,5.78308,1.014,13.0265,313,0,
69.728,4.4693,5.78308,1.014,13.0265,313,0,
69.728,4.47021,5.78308,1.014,13.0265,313,0,
69.7281,4.47357,5.78308,1.014,13.0265,313,0,
69.7281,4.47449,5.78308,1.014,13.0265,313,0,
69.7281,4.47418,5.78613,1.014,13.0265,313,0,
69.7282,4.47479,5.78156,1.014,13.0265,313,0,
69.7282,4.47449,5.78461,1.014,13.0265,313,0,
69.7282,4.47876,5.78308,1.014,13.0265,313,0,
69.7283,4.47937,5.78461,1.014,13.0265,313,0,
69.7283,4.47937,5.78156,1.014,13.0265,313,0,
69.7283,4.47876,5.77087,1.014,13.0265,313,0,
69.7284,4.47968,5.77087,1.014,13.0265,313,0,
69.7284,4.48334,5.77087,1.014,13.0265,313,0,
69.7284,4.48425,5.76935,1.014,13.0265,313,0,
69.7285,4.48395,5.77087,1.014,13.0265,313,0,
69.7285,4.48425,5.76782,1.014,13.0265,313,0,
69.7285,4.48425,5.76935,1.014,13.0265,313,0,
69.7286,4.48822,5.77087,1.014,13.0265,313,0,
69.7286,4.48914,5.7724,1.014,13.0265,313,0,
69.7286,4.48914,5.76935,1.014,13.0265,313,0,
69.7287,4.48883,5.77087,1.014,13.0265,313,0,
69.7287,4.48883,5.77393,1.014,13.0265,313,0,
69.7287,4.4928,5.77087,1.014,13.0265,313,0,
69.7288,4.49432,5.76935,1.014,13.0265,313,0,
69.7288,4.49432,5.77393,1.014,13.0265,313,0,
69.7288,4.49402,5.77087,1.014,13.0265,313,0,
69.7289,4.49402,5.76935,1.014,13.0265,313,0,
69.7289,4.4989,5.7724,1.014,13.0265,313,0,
69.7289,4.49921,5.77393,1.014,13.0265,313,0,
69.729,4.4989,5.77087,1.014,13.0265,313,0,
69.729,4.4989,5.7724,1.014,13.0265,313,0,
69.729,4.4989,5.7724,1.014,13.0265,313,0,
69.7291,4.50409,5.77393,1.014,13.0265,313,0,
69.7291,4.50378,5.7724,1.014,13.0265,313,0,
69.7291,4.50439,5.77087,1.014,13.0265,313,0,
69.7292,4.50348,5.77545,1.014,13.0265,313,0,
69.7292,4.50745,5.76782,1.014,13.0265,313,0,
69.7292,4.50897,5.76172,1.014,13.0265,313,0,
69.7293,4.50928,5.76172,1.014,13.0265,313,0,
69.7293,4.50897,5.75867,1.014,13.0265,313,0,
69.7293,4.50897,5.76019,1.014,13.0265,313,0,
69.7294,4.51355,5.76172,1.014,13.0265,313,0,
69.7294,4.51385,5.76019,1.014,13.0265,313,0,
69.7294,4.51385,5.76019,1.014,13.0265,313,0,
69.7295,4.51385,5.75867,1.014,13.0265,313,0,
69.7295,4.51874,5.75867,1.014,13.0265,313,0,
69.7295,4.51813,5.75867,1.014,13.0265,313,0,
69.7296,4.51874,5.75562,1.014,13.0265,313,0,
69.7296,4.51904,5.75867,1.014,13.0265,313,0,
69.7296,4.52362,5.76019,1.014,13.0265,313,0,
69.7297,4.52423,5.75867,1.014,13.0265,313,0,
69.7297,4.52423,5.75867,1.014,13.0265,313,0,
69.7297,4.52423,5.76019,1.014,13.0265,313,0,
69.7298,4.5285,5.76019,1.014,13.0265,313,0,
69.7298,4.5285,5.75867,1.014,13.0265,313,0,
69.7298,4.52911,5.76172,1.014,13.0265,313,0,
69.7299,4.52881,5.76019,1.014,13.0265,313,0,
69.7299,4.53308,5.75867,1.014,13.0265,313,0,
69.7299,4.53369,5.75714,1.014,13.0265,313,0,
69.73,4.534,5.75867,1.014,13.0265,313,0,
69.73,4.53369,5.76019,1.014,13.0265,313,0,
69.73,4.53796,5.75714,1.014,13.0265,313,0,
69.7301,4.53857,5.75867,1.014,13.0265,313,0,
69.7301,4.53857,5.75867,1.014,13.0265,313,0,
69.7301,4.53888,5.75867,1.014,13.0265,313,0,
69.7302,4.54315,5.74494,1.014,13.0265,313,0,
69.7302,4.54346,5.74341,1.014,13.0265,313,0,
69.7302,4.54315,5.74646,1.014,13.0265,313,0,
69.7303,4.54315,5.74646,1.014,13.0265,313,0,
69.7303,4.54773,5.74799,1.014,13.0265,313,0,
69.7303,4.54803,5.74494,1.014,13.0265,313,0,
69.7304,4.54834,5.74799,1.014,13.0265,313,0,
69.7304,4.54987,5.74494,1.014,13.0265,313,0,
69.7304,4.55322,5.75104,1.014,13.0265,313,0,
69.7305,4.55292,5.74951,1.014,13.0265,313,0,
69.7305,4.55322,5.74646,1.014,13.0265,313,0,
69.7305,4.5575,5.74799,1.014,13.0265,313,0,
69.7306,4.55719,5.74494,1.014,13.0265,313,0,
69.7306,4.5578,5.74951,1.014,13.0265,313,0,
69.7306,4.5578,5.74646,1.014,13.0265,313,0,
69.7307,4.56299,5.74799,1.014,13.0265,313,0,
69.7307,4.56299,5.74951,1.014,13.0265,313,0,
69.7307,4.56146,5.74646,1.014,13.0265,313,0,
69.7308,4.56238,5.74799,1.014,13.0265,313,0,
69.7308,4.56757,5.74188,1.014,13.0265,313,0,
69.7308,4.56726,5.74951,1.014,13.0265,313,0,
69.7309,4.56726,5.74799,1.014,13.0265,313,0,
69.7309,4.57092,5.74951,1.014,13.0265,313,0,
69.7309,4.57275,5.74799,1.014,13.0265,313,0,
69.731,4.57275,5.74951,1.014,13.0265,313,0,
69.731,4.57275,5.75104,1.014,13.0265,313,0,
69.731,4.57764,5.74494,1.014,13.0265,313,0,
69.7311,4.57764,5.74341,1.014,13.0265,313,0,
69.7311,4.57733,5.74646,1.014,13.0265,313,0,
69.7311,4.58099,5.74799,1.014,13.0265,313,0,
69.7312,4.58191,5.74494,1.014,13.0265,313,0,
69.7312,4.58221,5.74646,1.014,13.0265,313,0,
69.7312,4.58191,5.74646,1.014,13.0265,313,0,
69.7313,4.5871,5.74799,1.014,13.0265,313,0,
69.7313,4.58679,5.74494,1.014,13.0265,313,0,
69.7313,4.5874,5.74646,1.014,13.0265,313,0,
69.7314,4.58984,5.73578,1.014,13.0265,313,0,
69.7314,4.59259,5.73731,1.014,13.0265,313,0,
69.7314,4.59198,5.73578,1.014,13.0265,313,0,
69.7315,4.59137,5.73273,1.014,13.0265,313,0,
69.7315,4.59686,5.73731,1.014,13.0265,313,0,
69.7315,4.59686,5.73578,1.014,13.0265,313,0,
69.7316,4.59686,5.73578,1.014,13.0265,313,0,
69.7316,4.59869,5.73425,1.014,13.0265,313,0,
69.7316,4.60175,5.73273,1.014,13.0265,313,0,
69.7317,4.60205,5.73578,1.014,13.0265,313,0,
69.7317,4.60175,5.73731,1.014,13.0265,313,0,
69.7317,4.60632,5.73578,1.014,13.0265,313,0,
69.7318,4.60693,5.73425,1.014,13.0265,313,0,
69.7318,4.60724,5.73578,1.014,13.0265,313,0,
69.7318,4.60846,5.73578,1.014,13.0265,313,0,
69.7319,4.6109,5.73578,1.014,13.0265,313,0,
69.7319,4.61121,5.73425,1.014,13.0265,313,0,
69.7319,4.61182,5.73425,1.014,13.0265,313,0,
69.732,4.61609,5.73578,1.014,13.0265,313,0,
69.732,4.61609,5.73578,1.014,13.0265,313,0,
69.732,4.6167,5.73578,1.014,13.0265,313,0,
69.7321,4.61853,5.73578,1.014,13.0265,313,0,
69.7321,4.62189,5.73578,1.014,13.0265,313,0,
69.7321,4.62158,5.73578,1.014,13.0265,313,0,
69.7322,4.62219,5.73731,1.014,13.0265,313,0,
69.7322,4.62646,5.73425,1.014,13.0265,313,0,
69.7322,4.62585,5.7312,1.014,13.0265,313,0,
69.7323,4.62616,5.73578,1.014,13.0265,313,0,
69.7323,4.62646,5.73425,1.014,13.0265,313,0,
69.7323,4.63135,5.73578,1.014,13.0265,313,0,
69.7324,4.63135,5.73425,1.014,13.0265,313,0,
69.7324,4.63135,5.73425,1.014,13.0265,313,0,
69.7324,4.63562,5.73578,1.014,13.0265,313,0,
69.7325,4.63562,5.73731,1.014,13.0265,313,0,
69.7325,4.63531,5.73578,1.014,13.0265,313,0,
69.7325,4.63623,5.73883,1.014,13.0265,313,0,
69.7326,4.64172,5.73578,1.014,13.0265,313,0,
69.7326,4.64111,5.73731,1.014,13.0265,313,0,
69.7326,4.64111,5.73731,1.014,13.0265,313,0,
69.7327,4.64355,5.73273,1.014,13.0265,313,0,
69.7327,4.646,5.73425,1.014,13.0265,313,0,
69.7327,4.646,5.73578,1.014,13.0265,313,0,
69.7328,4.646,5.73425,1.014,13.0265,313,0,
69.7328,4.65057,5.73425,1.014,13.0265,313,0,
69.7328,4.65118,5.73273,1.014,13.0265,313,0,
69.7329,4.65057,5.72662,1.014,13.0265,313,0,
69.7329,4.65118,5.72357,1.014,13.0265,313,0,
69.7329,4.65576,5.72357,1.014,13.0265,313,0,
69.733,4.65576,5.72357,1.014,13.0265,313,0,
69.733,4.65637,5.72052,1.014,13.0265,313,0,
69.733,4.65607,5.719,1.014,13.0265,313,0,
69.7331,4.66095,5.72205,1.014,13.0265,313,0,
69.7331,4.66095,5.72357,1.014,13.0265,313,0,
69.7331,4.66003,5.72205,1.014,13.0265,313,0,
69.7332,4.6637,5.72052,1.014,13.0265,313,0,
69.7332,4.66583,5.72357,1.014,13.0265,313,0,
69.7332,4.66583,5.72205,1.014,13.0265,313,0,
69.7333,4.66583,5.72357,1.014,13.0265,313,0,
69.7333,4.66736,5.719,1.014,13.0265,313,0,
69.7333,4.67072,5.72052,1.014,13.0265,313,0,
69.7334,4.67102,5.72205,1.014,13.0265,313,0,
69.7334,4.67072,5.72357,1.014,13.0265,313,0,
69.7334,4.67529,5.72205,1.014,13.0265,313,0,
69.7335,4.67621,5.72052,1.014,13.0265,313,0,
69.7335,4.67468,5.7251,1.014,13.0265,313,0,
69.7335,4.6756,5.72205,1.014,13.0265,313,0,
69.7336,4.67926,5.72205,1.014,13.0265,313,0,
69.7336,4.68048,5.72357,1.014,13.0265,313,0,
69.7336,4.68048,5.72205,1.014,13.0265,313,0,
69.7337,4.68079,5.72357,1.014,13.0265,313,0,
69.7337,4.68292,5.719,1.014,13.0265,313,0,
69.7337,4.68506,5.72205,1.014,13.0265,313,0,
69.7338,4.68506,5.72052,1.014,13.0265,313,0,
69.7338,4.68536,5.72205,1.014,13.0265,313,0,
69.7338,4.6875,5.72205,1.014,13.0265,313,0,
69.7339,4.69025,5.7251,1.014,13.0265,313,0,
69.7339,4.69025,5.72052,1.014,13.0265,313,0,
69.7339,4.69025,5.72357,1.014,13.0265,313,0,
69.734,4.69025,5.72205,1.014,13.0265,313,0,
69.734,4.69513,5.72052,1.014,13.0265,313,0,
69.734,4.69452,5.72052,1.014,13.0265,313,0,
69.7341,4.69482,5.719,1.014,13.0265,313,0,
69.7341,4.69513,5.72052,1.014,13.0265,313,0,
69.7341,4.69971,5.72205,1.014,13.0265,313,0,
69.7342,4.70001,5.719,1.014,13.0265,313,0,
69.7342,4.70032,5.72662,1.014,13.0265,313,0,
69.7342,4.6994,5.72052,1.014,13.0265,313,0,
69.7343,4.70245,5.7251,1.014,13.0265,313,0,
69.7343,4.7052,5.72205,1.014,13.0265,313,0,
69.7343,4.70551,5.71137,1.014,13.0265,313,0,
69.7344,4.70459,5.71289,1.014,13.0265,313,0,
69.7344,4.70459,5.71137,1.014,13.0265,313,0,
69.7344,4.71008,5.71137,1.014,13.0265,313,0,
69.7345,4.71069,5.71137,1.014,13.0265,313,0,
69.7345,4.71008,5.70984,1.014,13.0265,313,0,
69.7345,4.70947,5.70831,1.014,13.0265,313,0,
69.7346,4.71222,5.71442,1.014,13.0265,313,0,
69.7346,4.71527,5.71137,1.014,13.0265,313,0,
69.7346,4.71375,5.71137,1.014,13.0265,313,0,
69.7347,4.71466,5.71137,1.014,13.0265,313,0,
69.7347,4.71436,5.70984,1.014,13.0265,313,0,
69.7347,4.71954,5.70679,1.014,13.0265,313,0,
69.7348,4.71954,5.70984,1.014,13.0265,313,0,
69.7348,4.71954,5.70984,1.014,13.0265,313,0,
69.7348,4.71954,5.70984,1.014,13.0265,313,0,
69.7349,4.71924,5.70984,1.014,13.0265,313,0,
69.7349,4.72382,5.70984,1.014,13.0265,313,0,
69.7349,4.72443,5.70831,1.014,13.0265,313,0,
69.735,4.72473,5.70984,1.014,13.0265,313,0,
69.735,4.72473,5.71137,1.014,13.0265,313,0,
69.735,4.72412,5.71137,1.014,13.0265,313,0,
69.7351,4.72931,5.70831,1.014,13.0265,313,0,
69.7351,4.72839,5.70831,1.014,13.0265,313,0,
69.7351,4.72931,5.70984,1.014,13.0265,313,0,
69.7352,4.72961,5.70984,1.014,13.0265,313,0,
69.7352,4.72961,5.70526,1.014,13.0265,313,0,
69.7352,4.7345,5.71289,1.014,13.0265,313,0,
69.7353,4.73419,5.71289,1.014,13.0265,313,0,
69.7353,4.73389,5.71289,1.014,13.0265,313,0,
69.7353,4.73328,5.70831,1.014,13.0265,313,0,
69.7354,4.73419,5.70679,1.014,13.0265,313,0,
69.7354,4.73877,5.71137,1.014,13.0265,313,0,
69.7354,4.73938,5.71137,1.014,13.0265,313,0,
69.7355,4.73846,5.71137,1.014,13.0265,313,0,
69.7355,4.73969,5.70984,1.014,13.0265,313,0,
69.7355,4.73907,5.70984,1.014,13.0265,313,0,
69.7356,4.74365,5.70984,1.014,13.0265,313,0,
69.7356,4.74365,5.71137,1.014,13.0265,313,0,
69.7356,4.74365,5.70831,1.014,13.0265,313,0,
69.7357,4.74426,5.70831,1.014,13.0265,313,0,
69.7357,4.74396,5.70221,1.014,13.0265,313,0,
69.7357,4.74762,5.69611,1.014,13.0265,313,0,
69.7358,4.74884,5.69611,1.014,13.0265,313,0,
69.7358,4.74854,5.69611,1.014,13.0265,313,0,
69.7358,4.74915,5.69611,1.014,13.0265,313,0,
69.7359,4.74884,5.69916,1.014,13.0265,313,0,
69.7359,4.74945,5.69763,1.014,13.0265,313,0,
69.7359,4.75403,5.69763,1.014,13.0265,313,0,
69.736,4.75403,5.69458,1.014,13.0265,313,0,
69.736,4.75433,5.69916,1.014,13.0265,313,0,
69.736,4.75464,5.69763,1.014,13.0265,313,0,
69.7361,4.75433,5.69458,1.014,13.0265,313,0,
69.7361,4.758,5.70068,1.014,13.0265,313,0,
69.7361,4.75861,5.69763,1.014,13.0265,313,0,
69.7362,4.7583,5.69916,1.014,13.0265,313,0,
69.7362,4.75891,5.69458,1.014,13.0265,313,0,
69.7362,4.7583,5.69611,1.014,13.0265,313,0,
69.7363,4.75952,5.69306,1.014,13.0265,313,0,
69.7363,4.76379,5.69763,1.014,13.0265,313,0,
69.7363,4.76349,5.70221,1.014,13.0265,313,0,
69.7364,4.76379,5.69916,1.014,13.0265,313,0,
69.7364,4.76379,5.69611,1.014,13.0265,313,0,
69.7364,4.76379,5.69611,1.014,13.0265,313,0,
69.7365,4.76807,5.70221,1.014,13.0265,313,0,
69.7365,4.76898,5.69916,1.014,13.0265,313,0,
69.7365,4.76776,5.70068,1.014,13.0265,313,0,
69.7366,4.76868,5.69763,1.014,13.0265,313,0,
69.7366,4.76868,5.69611,1.014,13.0265,313,0,
69.7366,4.76868,5.70068,1.014,13.0265,313,0,
69.7367,4.77386,5.69916,1.014,13.0265,313,0,
69.7367,4.77386,5.69763,1.014,13.0265,313,0,
69.7367,4.77295,5.69763,1.014,13.0265,313,0,
69.7368,4.77295,5.69763,1.014,13.0265,313,0,
69.7368,4.77325,5.69916,1.014,13.0265,313,0,
69.7368,4.77417,5.69763,1.014,13.0265,313,0,
69.7369,4.77814,5.69916,1.014,13.0265,313,0,
69.7369,4.77753,5.69916,1.014,13.0265,313,0,
69.7369,4.77905,5.69611,1.014,13.0265,313,0,
69.737,4.77844,5.69916,1.014,13.0265,313,0,
69.737,4.77844,5.69763,1.014,13.0265,313,0,
69.737,4.77844,5.69611,1.014,13.0265,313,0,
69.7371,4.78241,5.69306,1.014,13.0265,313,0,
69.7371,4.78302,5.68543,1.014,13.0265,313,0,
69.7371,4.78302,5.6839,1.014,13.0265,313,0,
69.7372,4.78333,5.68543,1.014,13.0265,313,0,
69.7372,4.78333,5.6839,1.014,13.0265,313,0,
69.7372,4.78271,5.6839,1.014,13.0265,313,0,
69.7373,4.78607,5.68237,1.014,13.0265,313,0,
69.7373,4.7879,5.6839,1.014,13.0265,313,0,
69.7373,4.7879,5.6839,1.014,13.0265,313,0,
69.7374,4.78729,5.68543,1.014,13.0265,313,0,
69.7374,4.7879,5.68695,1.014,13.0265,313,0,
69.7374,4.78821,5.68695,1.014,13.0265,313,0,
69.7375,4.78821,5.6839,1.014,13.0265,313,0,
69.7375,4.7937,5.68543,1.014,13.0265,313,0,
69.7375,4.79279,5.68695,1.014,13.0265,313,0,
69.7376,4.79187,5.6839,1.014,13.0265,313,0,
69.7376,4.79248,5.6839,1.014,13.0265,313,0,
69.7376,4.79279,5.6839,1.014,13.0265,313,0,
69.7377,4.7934,5.6839,1.014,13.0265,313,0,
69.7377,4.7937,5.6839,1.014,13.0265,313,0,
69.7377,4.79767,5.68237,1.014,13.0265,313,0,
69.7378,4.79828,5.68237,1.014,13.0265,313,0,
69.7378,4.79797,5.68695,1.014,13.0265,313,0,
69.7378,4.79797,5.6839,1.014,13.0265,313,0,
69.7379,4.79828,5.6839,1.014,13.0265,313,0,
69.7379,4.79797,5.6839,1.014,13.0265,313,0,
69.7379,4.79828,5.68543,1.014,13.0265,313,0,
69.738,4.80286,5.6839,1.014,13.0265,313,0,
69.738,4.80347,5.68543,1.014,13.0265,313,0,
69.738,4.80316,5.68237,1.014,13.0265,313,0,
69.7381,4.80225,5.68848,1.014,13.0265,313,0,
69.7381,4.80316,5.68237,1.014,13.0265,313,0,
69.7381,4.80194,5.6839,1.014,13.0265,313,0,
69.7382,4.80286,5.68085,1.014,13.0265,313,0,
69.7382,4.80743,5.68695,1.014,13.0265,313,0,
69.7382,4.80743,5.6839,1.014,13.0265,313,0,
69.7383,4.80804,5.68543,1.014,13.0265,313,0,
69.7383,4.80835,5.68695,1.014,13.0265,313,0,
69.7383,4.80774,5.68543,1.014,13.0265,313,0,
69.7384,4.80896,5.68543,1.014,13.0265,313,0,
69.7384,4.80804,5.68695,1.014,13.0265,313,0,
69.7384,4.80774,5.68543,1.014,13.0265,313,0,
69.7385,4.81323,5.67474,1.014,13.0265,313,0,
69.7385,4.81293,5.67169,1.014,13.0265,313,0,
69.7385,4.81262,5.67627,1.014,13.0265,313,0,
69.7386,4.81232,5.67322,1.014,13.0265,313,0,
69.7386,4.81323,5.67322,1.014,13.0265,313,0,
69.7386,4.81262,5.67322,1.014,13.0265,313,0,
69.7387,4.81262,5.67627,1.014,13.0265,313,0,
69.7387,4.81262,5.67474,1.014,13.0265,313,0,
69.7387,4.8172,5.67322,1.014,13.0265,313,0,
69.7388,4.8175,5.67474,1.014,13.0265,313,0,
69.7388,4.8175,5.67017,1.014,13.0265,313,0,
69.7388,4.8175,5.67474,1.014,13.0265,313,0,
69.7389,4.81812,5.67169,1.014,13.0265,313,0,
69.7389,4.81812,5.67474,1.014,13.0265,313,0,
69.7389,4.8175,5.67017,1.014,13.0265,313,0,
69.739,4.8172,5.66864,1.014,13.0265,313,0,
69.739,4.82239,5.67322,1.014,13.0265,313,0,
69.739,4.82269,5.67322,1.014,13.0265,313,0,
69.7391,4.82178,5.67474,1.014,13.0265,313,0,
69.7391,4.82269,5.67169,1.014,13.0265,313,0,
69.7391,4.82208,5.67017,1.014,13.0265,313,0,
69.7392,4.82269,5.67169,1.014,13.0265,313,0,
69.7392,4.823,5.67322,1.014,13.0265,313,0,
69.7392,4.82269,5.67474,1.014,13.0265,313,0,
69.7393,4.82269,5.67169,1.014,13.0265,313,0,
69.7393,4.82788,5.67474,1.014,13.0265,313,0,
69.7393,4.82758,5.67627,1.014,13.0265,313,0,
69.7394,4.82788,5.67474,1.014,13.0265,313,0,
69.7394,4.82727,5.67017,1.014,13.0265,313,0,
69.7394,4.82758,5.66864,1.014,13.0265,313,0,
69.7395,4.82758,5.67017,1.014,13.0265,313,0,
69.7395,4.82758,5.67322,1.014,13.0265,313,0,
69.7395,4.82788,5.67169,1.014,13.0265,313,0,
69.7396,4.82697,5.67169,1.014,13.0265,313,0,
69.7396,4.83246,5.67017,1.014,13.0265,313,0,
69.7396,4.83185,5.67322,1.014,13.0265,313,0,
69.7397,4.83246,5.67474,1.014,13.0265,313,0,
69.7397,4.83307,5.67474,1.014,13.0265,313,0,
69.7397,4.83185,5.67322,1.014,13.0265,313,0,
69.7398,4.83246,5.67322,1.014,13.0265,313,0,
69.7398,4.83307,5.66864,1.014,13.0265,313,0,
69.7398,4.83276,5.67322,1.014,13.0265,313,0,
69.7399,4.83185,5.67474,1.014,13.0265,313,0,
69.7399,4.83673,5.65949,1.014,13.0265,313,0,
69.7399,4.83734,5.66101,1.014,13.0265,313,0,
69.74,4.83734,5.66101,1.014,13.0265,313,0,
69.74,4.83704,5.66101,1.014,13.0265,313,0,
69.74,4.83704,5.66254,1.014,13.0265,313,0,
69.7401,4.83734,5.65949,1.014,13.0265,313,0,
69.7401,4.83765,5.65949,1.014,13.0265,313,0,
69.7401,4.83734,5.66559,1.014,13.0265,313,0,
69.7402,4.83734,5.65643,1.014,13.0265,313,0,
69.7402,4.83765,5.66101,1.014,13.0265,313,0,
69.7402,4.84131,5.65796,1.014,13.0265,313,0,
69.7403,4.84253,5.66101,1.014,13.0265,313,0,
69.7403,4.84222,5.66101,1.014,13.0265,313,0,
69.7403,4.84192,5.65949,1.014,13.0265,313,0,
69.7404,4.84192,5.65949,1.014,13.0265,313,0,
69.7404,4.84253,5.65643,1.014,13.0265,313,0,
69.7404,4.84253,5.66254,1.014,13.0265,313,0,
69.7405,4.84222,5.65796,1.014,13.0265,313,0,
69.7405,4.84222,5.66101,1.014,13.0265,313,0,
69.7405,4.84192,5.65949,1.014,13.0265,313,0,
69.7406,4.84558,5.66101,1.014,13.0265,313,0,
69.7406,4.8468,5.66101,1.014,13.0265,313,0,
69.7406,4.8468,5.66101,1.014,13.0265,313,0,
69.7407,4.8465,5.66101,1.014,13.0265,313,0,
69.7407,4.84772,5.66101,1.014,13.0265,313,0,
69.7407,4.84711,5.65949,1.014,13.0265,313,0,
69.7408,4.8468,5.65949,1.014,13.0265,313,0,
69.7408,4.84711,5.66254,1.014,13.0265,313,0,
69.7408,4.84711,5.66254,1.014,13.0265,313,0,
69.7409,4.84711,5.66101,1.014,13.0265,313,0,
69.7409,4.84711,5.66101,1.014,13.0265,313,0,
69.7409,4.85199,5.65949,1.014,13.0265,313,0,
69.741,4.85168,5.65949,1.014,13.0265,313,0,
69.741,4.85229,5.66101,1.014,13.0265,313,0,
69.741,4.85199,5.65949,1.014,13.0265,313,0,
69.7411,4.85168,5.66406,1.014,13.0265,313,0,
69.7411,4.85168,5.66254,1.014,13.0265,313,0,
69.7411,4.8526,5.66254,1.014,13.0265,313,0,
69.7412,4.85168,5.66254,1.014,13.0265,313,0,
69.7412,4.85199,5.65643,1.014,13.0265,313,0,
69.7412,4.85168,5.66101,1.014,13.0265,313,0,
69.7413,4.85138,5.66254,1.014,13.0265,313,0,
69.7413,4.85199,5.66101,1.014,13.0265,313,0,
69.7413,4.85657,5.66101,1.014,13.0265,313,0,
69.7414,4.85657,5.6488,1.014,13.0265,313,0,
69.7414,4.85718,5.64728,1.014,13.0265,313,0,
69.7414,4.85718,5.6488,1.014,13.0265,313,0,
69.7415,4.85657,5.64728,1.014,13.0265,313,0,
69.7415,4.85687,5.6488,1.014,13.0265,313,0,
69.7415,4.85687,5.6488,1.014,13.0265,313,0,
69.7416,4.85657,5.64728,1.014,13.0265,313,0,
69.7416,4.85657,5.64575,1.014,13.0265,313,0,
69.7416,4.85687,5.64575,1.014,13.0265,313,0,
69.7417,4.85718,5.64728,1.014,13.0265,313,0,
69.7417,4.85748,5.64728,1.014,13.0265,313,0,
69.7417,4.86145,5.65033,1.014,13.0265,313,0,
69.7418,4.86206,5.64728,1.014,13.0265,313,0,
69.7418,4.86145,5.65338,1.014,13.0265,313,0,
69.7418,4.86237,5.64728,1.014,13.0265,313,0,
69.7419,4.86115,5.6488,1.014,13.0265,313,0,
69.7419,4.86176,5.64728,1.014,13.0265,313,0,
69.7419,4.86145,5.65033,1.014,13.0265,313,0,
69.742,4.86206,5.64575,1.014,13.0265,313,0,
69.742,4.86145,5.65033,1.014,13.0265,313,0,
69.742,4.86176,5.65186,1.014,13.0265,313,0,
69.7421,4.86176,5.65186,1.014,13.0265,313,0,
69.7421,4.86176,5.65186,1.014,13.0265,313,0,
69.7421,4.86176,5.6488,1.014,14.5914,313,0,
69.7422,4.86389,5.6488,1.014,14.5914,313,0,
69.7422,4.86664,5.64575,1.014,14.5914,313,0,
69.7422,4.86664,5.6488,1.014,14.5914,313,0,
69.7423,4.86694,5.64728,1.014,14.5914,313,0,
69.7423,4.86633,5.65186,1.014,14.5914,313,0,
69.7423,4.86633,5.65033,1.014,14.5914,313,0,
69.7424,4.86633,5.6488,1.014,14.5914,313,0,
69.7424,4.86603,5.64728,1.014,14.5914,313,0,
69.7424,4.86694,5.64728,1.014,14.5914,313,0,
69.7425,4.86664,5.65033,1.014,14.5914,313,0,
69.7425,4.86694,5.6488,1.014,14.5914,313,0,
69.7425,4.86664,5.64728,1.014,14.5914,313,0,
69.7426,4.86633,5.64423,1.014,14.5914,313,0,
69.7426,4.86694,5.64728,1.014,14.5914,313,0,
69.7426,4.86694,5.65186,1.014,14.5914,313,0,
69.7427,4.86877,5.64728,1.014,14.5914,313,0,
69.7427,4.87122,5.64728,1.014,14.5914,313,0,
69.7427,4.87183,5.64728,1.014,14.5914,313,0,
69.7428,4.87244,5.64728,1.014,14.5914,313,0,
69.7428,4.87152,5.64575,1.014,14.5914,313,0,
69.7428,4.87183,5.63812,1.014,14.5914,313,0,
69.7429,4.87183,5.63202,1.014,14.5914,313,0,
69.7429,4.87213,5.63355,1.014,14.5914,313,0,
69.7429,4.87305,5.63812,1.014,14.5914,313,0,
69.743,4.87244,5.63507,1.014,14.5914,313,0,
69.743,4.87213,5.63507,1.014,14.5914,313,0,
69.743,4.87213,5.63507,1.014,14.5914,313,0,
69.7431,4.87152,5.6366,1.014,14.5914,313,0,
69.7431,4.87213,5.6366,1.014,14.5914,313,0,
69.7431,4.87244,5.63812,1.014,14.5914,313,0,
69.7432,4.87244,5.63355,1.014,14.5914,313,0,
69.7432,4.87244,5.6366,1.014,14.5914,313,0,
69.7432,4.87579,5.63355,1.014,14.5914,313,0,
69.7433,4.87671,5.63507,1.014,14.5914,313,0,
69.7433,4.87579,5.63355,1.014,14.5914,313,0,
69.7433,4.87701,5.63812,1.014,14.5914,313,0,
69.7434,4.8764,5.63507,1.014,14.5914,313,0,
69.7434,4.8761,5.6366,1.014,14.5914,313,0,
69.7434,4.87579,5.63355,1.014,14.5914,313,0,
69.7435,4.8761,5.63507,1.014,14.5914,313,0,
69.7435,4.8764,5.63507,1.014,14.5914,313,0,
69.7435,4.8761,5.6366,1.014,14.5914,313,0,
69.7436,4.8764,5.63507,1.014,14.5914,313,0,
69.7436,4.87579,5.63507,1.014,14.5914,313,0,
69.7436,4.87701,5.63812,1.014,14.5914,313,0,
69.7437,4.87701,5.63812,1.014,14.5914,313,0,
69.7437,4.8764,5.6366,1.014,14.5914,313,0,
69.7437,4.87549,5.6366,1.014,14.5914,313,0,
69.7438,4.87671,5.6366,1.014,14.5914,313,0,
69.7438,4.87671,5.63507,1.014,14.5914,313,0,
69.7438,4.87579,5.63355,1.014,14.5914,313,0,
69.7439,4.88129,5.63507,1.014,14.5914,313,0,
69.7439,4.88129,5.6366,1.014,14.5914,313,0,
69.7439,4.88159,5.6366,1.014,14.5914,313,0,
69.744,4.88037,5.63507,1.014,14.5914,313,0,
69.744,4.88068,5.6366,1.014,14.5914,313,0,
69.744,4.88159,5.63507,1.014,14.5914,313,0,
69.7441,4.88068,5.63507,1.014,14.5914,313,0,
69.7441,4.8819,5.6366,1.014,14.5914,313,0,
69.7441,4.88098,5.63507,1.014,14.5914,313,0,
69.7442,4.88098,5.63812,1.014,14.5914,313,0,
69.7442,4.88129,5.63965,1.014,14.5914,313,0,
69.7442,4.88129,5.6366,1.014,14.5914,313,0,
69.7443,4.88159,5.63507,1.014,14.5914,313,0,
69.7443,4.88098,5.63812,1.014,14.5914,313,0,
69.7443,4.88129,5.6366,1.014,14.5914,313,0,
69.7444,4.88129,5.63507,1.014,14.5914,313,0,
69.7444,4.88068,5.6366,1.014,14.5914,313,0,
69.7444,4.88159,5.6366,1.014,14.5914,313,0,
69.7445,4.88159,5.62744,1.014,14.5914,313,0,
69.7445,4.88129,5.62439,1.014,14.5914,313,0,
69.7445,4.8822,5.62286,1.014,14.5914,313,0,
69.7446,4.88586,5.62286,1.014,14.5914,313,0,
69.7446,4.88586,5.62744,1.014,14.5914,313,0,
69.7446,4.88678,5.62439,1.014,14.5914,313,0,
69.7447,4.88617,5.62439,1.014,14.5914,313,0,
69.7447,4.88617,5.62286,1.014,14.5914,313,0,
69.7447,4.88586,5.62286,1.014,14.5914,313,0,
69.7448,4.88647,5.62592,1.014,14.5914,313,0,
69.7448,4.88617,5.62592,1.014,14.5914,313,0,
69.7448,4.88586,5.62592,1.014,14.5914,313,0,
69.7449,4.88647,5.62439,1.014,14.5914,313,0,
69.7449,4.88586,5.62439,1.014,14.5914,313,0,
69.7449,4.88617,5.62592,1.014,14.5914,313,0,
69.745,4.88586,5.62286,1.014,14.5914,313,0,
69.745,4.88586,5.62439,1.014,14.5914,313,0,
69.745,4.88708,5.62439,1.014,14.5914,313,0,
69.7451,4.88586,5.62286,1.014,14.5914,313,0,
69.7451,4.88617,5.62439,1.014,14.5914,313,0,
69.7451,4.88617,5.62439,1.014,14.5914,313,0,
69.7452,4.88678,5.62439,1.014,14.5914,313,0,
69.7452,4.88586,5.62439,1.014,14.5914,313,0,
69.7452,4.88647,5.62439,1.014,14.5914,313,0,
69.7453,4.88647,5.62286,1.014,14.5914,313,0,
69.7453,4.88586,5.62286,1.014,14.5914,313,0,
69.7453,4.88617,5.62439,1.014,14.5914,313,0,
69.7454,4.88556,5.62592,1.014,14.5914,313,0,
69.7454,4.88586,5.62439,1.014,14.5914,313,0,
69.7454,4.88586,5.62744,1.014,14.5914,313,0,
69.7455,4.88556,5.62592,1.014,14.5914,313,0,
69.7455,4.88617,5.62744,1.014,14.5914,313,0,
69.7455,4.89105,5.62592,1.014,14.5914,313,0,
69.7456,4.89136,5.62439,1.014,14.5914,313,0,
69.7456,4.89105,5.62744,1.014,14.5914,313,0,
69.7456,4.89105,5.62286,1.014,14.5914,313,0,
69.7457,4.89105,5.62286,1.014,14.5914,313,0,
69.7457,4.89105,5.62439,1.014,14.5914,313,0,
69.7457,4.89044,5.62439,1.014,14.5914,313,0,
69.7458,4.89166,5.62134,1.014,14.5914,313,0,
69.7458,4.89075,5.62286,1.014,14.5914,313,0,
69.7458,4.89136,5.62134,1.014,14.5914,313,0,
69.7459,4.89136,5.62439,1.014,14.5914,313,0,
69.7459,4.89105,5.62439,1.014,14.5914,313,0,
69.7459,4.89075,5.62439,1.014,14.5914,313,0,
69.746,4.89105,5.62134,1.014,14.5914,313,0,
69.746,4.89136,5.62286,1.014,14.5914,313,0,
69.746,4.89105,5.62286,1.014,14.5914,313,0,
69.7461,4.89105,5.62744,1.014,14.5914,313,0,
69.7461,4.89136,5.61981,1.014,14.5914,313,0,
69.7461,4.89166,5.62134,1.014,14.5914,313,0,
69.7462,4.89105,5.61371,1.014,14.5914,313,0,
69.7462,4.89136,5.61218,1.014,14.5914,313,0,
69.7462,4.89075,5.61218,1.014,14.5914,313,0,
69.7463,4.89136,5.61218,1.014,14.5914,313,0,
69.7463,4.89166,5.61218,1.014,14.5914,313,0,
69.7463,4.89075,5.61371,1.014,14.5914,313,0,
69.7464,4.89105,5.60913,1.014,14.5914,313,0,
69.7464,4.89105,5.60761,1.014,14.5914,313,0,
69.7464,4.89075,5.61066,1.014,14.5914,313,0,
69.7465,4.89166,5.61371,1.014,14.5914,313,0,
69.7465,4.89105,5.61066,1.014,14.5914,313,0,
69.7465,4.89136,5.61218,1.014,14.5914,313,0,
69.7466,4.89075,5.61371,1.014,14.5914,313,0,
69.7466,4.89136,5.61066,1.014,14.5914,313,0,
69.7466,4.89136,5.61371,1.014,14.5914,313,0,
69.7467,4.89075,5.60761,1.014,14.5914,313,0,
69.7467,4.89044,5.61218,1.014,14.5914,313,0,
69.7467,4.89075,5.61371,1.014,14.5914,313,0,
69.7468,4.89136,5.61066,1.014,14.5914,313,0,
69.7468,4.89105,5.61371,1.014,14.5914,313,0,
69.7468,4.89105,5.60913,1.014,14.5914,313,0,
69.7469,4.89136,5.61371,1.014,14.5914,313,0,
69.7469,4.89105,5.61371,1.014,14.5914,313,0,
69.7469,4.89136,5.61218,1.014,14.5914,313,0,
69.747,4.89105,5.61218,1.014,14.5914,313,0,
69.747,4.89105,5.61218,1.014,14.5914,313,0,
69.747,4.89105,5.61218,1.014,14.5914,313,0,
69.7471,4.89136,5.60913,1.014,14.5914,313,0,
69.7471,4.89075,5.61524,1.014,14.5914,313,0,
69.7471,4.89166,5.61066,1.014,14.5914,313,0,
69.7472,4.89105,5.61218,1.014,14.5914,313,0,
69.7472,4.89075,5.61218,1.014,14.5914,313,0,
69.7472,4.89105,5.61066,1.014,14.5914,313,0,
69.7473,4.89166,5.61066,1.014,14.5914,313,0,
69.7473,4.89105,5.61218,1.014,14.5914,313,0,
69.7473,4.89075,5.61066,1.014,14.5914,313,0,
69.7474,4.89044,5.61218,1.014,14.5914,313,0,
69.7474,4.89105,5.61218,1.014,14.5914,313,0,
69.7474,4.89166,5.61218,1.014,14.5914,313,0,
69.7475,4.89075,5.61218,1.014,14.5914,313,0,
69.7475,4.89166,5.61066,1.014,14.5914,313,0,
69.7475,4.89197,5.61066,1.014,14.5914,313,0,
69.7476,4.89075,5.61218,1.014,14.5914,313,0,
69.7476,4.89166,5.61066,1.014,14.5914,313,0,
69.7476,4.89105,5.61371,1.014,14.5914,313,0,
69.7477,4.89105,5.61218,1.014,14.5914,313,0,
69.7477,4.89105,5.60913,1.014,14.5914,313,0,
69.7477,4.89136,5.61066,1.014,14.5914,313,0,
69.7478,4.89197,5.60913,1.014,14.5914,313,0,
69.7478,4.89075,5.61218,1.014,14.5914,313,0,
69.7478,4.89075,5.61066,1.014,14.5914,313,0,
69.7479,4.89136,5.61371,1.014,14.5914,313,0,
69.7479,4.89105,5.60913,1.014,14.5914,313,0,
69.7479,4.89105,5.61524,1.014,14.5914,313,0,
69.748,4.89136,5.60303,1.014,14.5914,313,0,
69.748,4.89563,5.6015,1.014,14.5914,313,0,
69.748,4.89594,5.59998,1.014,14.5914,313,0,
69.7481,4.89532,5.59998,1.014,14.5914,313,0,
69.7481,4.89594,5.59998,1.014,14.5914,313,0,
69.7481,4.89594,5.6015,1.014,14.5914,313,0,
69.7482,4.89563,5.59998,1.014,14.5914,313,0,
69.7482,4.89624,5.59692,1.014,14.5914,313,0,
69.7482,4.89594,5.6015,1.014,14.5914,313,0,
69.7483,4.89624,5.5954,1.014,14.5914,313,0,
69.7483,4.89594,5.59845,1.014,14.5914,313,0,
69.7483,4.89563,5.59692,1.014,14.5914,313,0,
69.7484,4.89594,5.59998,1.014,14.5914,313,0,
69.7484,4.89624,5.60455,1.014,14.5914,313,0,
69.7484,4.89594,5.6015,1.014,14.5914,313,0,
69.7485,4.89594,5.59845,1.014,14.5914,313,0,
69.7485,4.89594,5.59998,1.014,14.5914,313,0,
69.7485,4.89655,5.59998,1.014,14.5914,313,0,
69.7486,4.89624,5.59845,1.014,14.5914,313,0,
69.7486,4.89563,5.60303,1.014,14.5914,313,0,
69.7486,4.89594,5.59692,1.014,14.5914,313,0,
69.7487,4.89563,5.6015,1.014,14.5914,313,0,
69.7487,4.89563,5.60303,1.014,14.5914,313,0,
69.7487,4.89532,5.59845,1.014,14.5914,313,0,
69.7488,4.89624,5.59692,1.014,14.5914,313,0,
69.7488,4.89532,5.59692,1.014,14.5914,313,0,
69.7488,4.89563,5.60455,1.014,14.5914,313,0,
69.7489,4.89685,5.59998,1.014,14.5914,313,0,
69.7489,4.89594,5.59692,1.014,14.5914,313,0,
69.7489,4.89624,5.59845,1.014,14.5914,313,0,
69.749,4.89594,5.59845,1.014,14.5914,313,0,
69.749,4.89594,5.60303,1.014,14.5914,313,0,
69.749,4.89563,5.59845,1.014,14.5914,313,0,
69.7491,4.89532,5.59845,1.014,14.5914,313,0,
69.7491,4.89594,5.59845,1.014,14.5914,313,0,
69.7491,4.89624,5.60303,1.014,14.5914,313,0,
69.7492,4.89563,5.59998,1.014,14.5914,313,0,
69.7492,4.89594,5.59998,1.014,14.5914,313,0,
69.7492,4.89594,5.59845,1.014,14.5914,313,0,
69.7493,4.89563,5.59998,1.014,14.5914,313,0,
69.7493,4.89655,5.59845,1.014,14.5914,313,0,
69.7493,4.89563,5.59998,1.014,14.5914,313,0,
69.7494,4.89624,5.6015,1.014,14.5914,313,0,
69.7494,4.89624,5.59692,1.014,14.5914,313,0,
69.7494,4.89594,5.59998,1.014,14.5914,313,0,
69.7495,4.89655,5.59692,1.014,14.5914,313,0,
69.7495,4.89563,5.60455,1.014,14.5914,313,0,
69.7495,4.89594,5.59845,1.014,14.5914,313,0,
69.7496,4.89563,5.60303,1.014,14.5914,313,0,
69.7496,4.89655,5.59998,1.014,14.5914,313,0,
69.7496,4.89563,5.59998,1.014,14.5914,313,0,
69.7497,4.89563,5.6015,1.014,14.5914,313,0,
69.7497,4.89563,5.59998,1.014,14.5914,313,0,
69.7497,4.89563,5.6015,1.014,14.5914,313,0,
69.7498,4.89624,5.59998,1.014,14.5914,313,0,
69.7498,4.89594,5.59998,1.014,14.5914,313,0,
69.7498,4.89624,5.5893,1.014,14.5914,313,0,
69.7499,4.89655,5.58777,1.014,14.5914,313,0,
69.7499,4.89624,5.5893,1.014,14.5914,313,0,
69.7499,4.89624,5.5893,1.014,14.5914,313,0,
69.75,4.89624,5.5893,1.014,14.5914,313,0,
69.75,4.89624,5.58777,1.014,14.5914,313,0,
69.75,4.89655,5.58777,1.014,14.5914,313,0,
69.7501,4.89563,5.58777,1.014,14.5914,313,0,
69.7501,4.89594,5.58624,1.014,14.5914,313,0,
69.7501,4.89655,5.58624,1.014,14.5914,313,0,
69.7502,4.89594,5.58624,1.014,14.5914,313,0,
69.7502,4.89624,5.5893,1.014,14.5914,313,0,
69.7502,4.89563,5.58777,1.014,14.5914,313,0,
69.7503,4.89685,5.5893,1.014,14.5914,313,0,
69.7503,4.89624,5.58777,1.014,14.5914,313,0,
69.7503,4.89624,5.5893,1.014,14.5914,313,0,
69.7504,4.89563,5.5893,1.014,14.5914,313,0,
69.7504,4.89502,5.58777,1.014,14.5914,313,0,
69.7504,4.89594,5.58777,1.014,14.5914,313,0,
69.7505,4.89685,5.58624,1.014,14.5914,313,0,
69.7505,4.89624,5.5893,1.014,14.5914,313,0,
69.7505,4.89685,5.58624,1.014,14.5914,313,0,
69.7506,4.89594,5.59235,1.014,14.5914,313,0,
69.7506,4.89594,5.58624,1.014,14.5914,313,0,
69.7506,4.89594,5.58777,1.014,14.5914,313,0,
69.7507,4.89655,5.58624,1.014,14.5914,313,0,
69.7507,4.89655,5.59082,1.014,14.5914,313,0,
69.7507,4.89532,5.5893,1.014,14.5914,313,0,
69.7508,4.89624,5.5893,1.014,14.5914,313,0,
69.7508,4.89594,5.59082,1.014,14.5914,313,0,
69.7508,4.89624,5.58777,1.014,14.5914,313,0,
69.7509,4.89532,5.5893,1.014,14.5914,313,0,
69.7509,4.89624,5.5893,1.014,14.5914,313,0,
69.7509,4.89594,5.58624,1.014,14.5914,313,0,
69.751,4.89594,5.58624,1.014,14.5914,313,0,
69.751,4.89655,5.58777,1.014,14.5914,313,0,
69.751,4.89594,5.58624,1.014,14.5914,313,0,
69.7511,4.89594,5.58624,1.014,14.5914,313,0,
69.7511,4.89624,5.5893,1.014,14.5914,313,0,
69.7511,4.89563,5.5893,1.014,14.5914,313,0,
69.7512,4.89655,5.59082,1.014,14.5914,313,0,
69.7512,4.89624,5.58777,1.014,14.5914,313,0,
69.7512,4.89502,5.58624,1.014,14.5914,313,0,
69.7513,4.89594,5.58777,1.014,14.5914,313,0,
69.7513,4.89624,5.58777,1.014,14.5914,313,0,
69.7513,4.89594,5.58624,1.014,14.5914,313,0,
69.7514,4.89624,5.58777,1.014,14.5914,313,0,
69.7514,4.89594,5.58777,1.014,14.5914,313,0,
69.7514,4.89624,5.58777,1.014,14.5914,313,0,
69.7515,4.89594,5.58777,1.014,14.5914,313,0,
69.7515,4.89624,5.58777,1.014,14.5914,313,0,
69.7515,4.89594,5.58777,1.014,14.5914,313,0,
69.7516,4.89594,5.5893,1.014,14.5914,313,0,
69.7516,4.89594,5.58777,1.014,14.5914,313,0,
69.7516,4.89624,5.58624,1.014,14.5914,313,0,
69.7517,4.89624,5.58777,1.014,14.5914,313,0,
69.7517,4.89563,5.59082,1.014,14.5914,313,0,
69.7517,4.89563,5.58624,1.014,14.5914,313,0,
69.7518,4.89624,5.58777,1.014,14.5914,313,0,
69.7518,4.89655,5.58777,1.014,14.5914,313,0,
69.7518,4.89594,5.59082,1.014,14.5914,313,0,
69.7519,4.89594,5.57404,1.014,14.5914,313,0,
69.7519,4.89624,5.57709,1.014,14.5914,313,0,
69.7519,4.89594,5.57556,1.014,14.5914,313,0,
69.752,4.89685,5.57251,1.014,14.5914,313,0,
69.752,4.89624,5.57556,1.014,14.5914,313,0,
69.752,4.89594,5.57404,1.014,14.5914,313,0,
69.7521,4.89563,5.57556,1.014,14.5914,313,0,
69.7521,4.89594,5.58014,1.014,14.5914,313,0,
69.7521,4.89624,5.57861,1.014,14.5914,313,0,
69.7522,4.89655,5.57556,1.014,14.5914,313,0,
69.7522,4.89594,5.57556,1.014,14.5914,313,0,
69.7522,4.89594,5.57556,1.014,14.5914,313,0,
69.7523,4.89563,5.57251,1.014,14.5914,313,0,
69.7523,4.89624,5.57404,1.014,14.5914,313,0,
69.7523,4.89655,5.57556,1.014,14.5914,313,0,
69.7524,4.89655,5.57098,1.014,14.5914,313,0,
69.7524,4.89532,5.57556,1.014,14.5914,313,0,
69.7524,4.89624,5.58014,1.014,14.5914,313,0,
69.7525,4.89594,5.57098,1.014,14.5914,313,0,
69.7525,4.89624,5.57404,1.014,14.5914,313,0,
69.7525,4.89624,5.57404,1.014,14.5914,313,0,
69.7526,4.89532,5.57404,1.014,14.5914,313,0,
69.7526,4.89563,5.57709,1.014,14.5914,313,0,
69.7526,4.89594,5.57709,1.014,14.5914,313,0,
69.7527,4.89563,5.57556,1.014,14.5914,313,0,
69.7527,4.89655,5.57861,1.014,14.5914,313,0,
69.7527,4.89655,5.57556,1.014,14.5914,313,0,
69.7528,4.89594,5.57404,1.014,14.5914,313,0,
69.7528,4.89624,5.57556,1.014,14.5914,313,0,
69.7528,4.89594,5.57098,1.014,14.5914,313,0,
69.7529,4.89624,5.57861,1.014,14.5914,313,0,
69.7529,4.89563,5.57404,1.014,14.5914,313,0,
69.7529,4.89532,5.57556,1.014,14.5914,313,0,
69.753,4.89685,5.57709,1.014,14.5914,313,0,
69.753,4.89624,5.57709,1.014,14.5914,313,0,
69.753,4.89594,5.57861,1.014,14.5914,313,0,
69.7531,4.89532,5.57404,1.014,14.5914,313,0,
69.7531,4.89594,5.57709,1.014,14.5914,313,0,
69.7531,4.89655,5.57556,1.014,14.5914,313,0,
69.7532,4.89685,5.57251,1.014,14.5914,313,0,
69.7532,4.89594,5.57709,1.014,14.5914,313,0,
69.7532,4.89594,5.57251,1.014,14.5914,313,0,
69.7533,4.89532,5.57098,1.014,14.5914,313,0,
69.7533,4.89594,5.57251,1.014,14.5914,313,0,
69.7533,4.89594,5.57556,1.014,14.5914,313,0,
69.7534,4.89594,5.57861,1.014,14.5914,313,0,
69.7534,4.89594,5.57556,1.014,14.5914,313,0,
69.7534,4.89655,5.57251,1.014,14.5914,313,0,
69.7535,4.89655,5.57556,1.014,14.5914,313,0,
69.7535,4.89624,5.57556,1.014,14.5914,313,0,
69.7535,4.89685,5.57404,1.014,14.5914,313,0,
69.7536,4.89594,5.57556,1.014,14.5914,313,0,
69.7536,4.89624,5.57404,1.014,14.5914,313,0,
69.7536,4.89624,5.57404,1.014,14.5914,313,0,
69.7537,4.89685,5.57709,1.014,14.5914,313,0,
69.7537,4.89624,5.57556,1.014,14.5914,313,0,
69.7537,4.89594,5.57404,1.014,14.5914,313,0,
69.7538,4.89655,5.57556,1.014,14.5914,313,0,
69.7538,4.89563,5.57404,1.014,14.5914,313,0,
69.7538,4.89624,5.57404,1.014,14.5914,313,0,
69.7539,4.89594,5.57404,1.014,14.5914,313,0,
69.7539,4.89685,5.57709,1.014,14.5914,313,0,
69.7539,4.89624,5.57404,1.014,14.5914,313,0,
69.754,4.89563,5.56488,1.014,14.5914,313,0,
69.754,4.89655,5.5603,1.014,14.5914,313,0,
69.754,4.89655,5.56336,1.014,14.5914,313,0,
69.7541,4.89563,5.56336,1.014,14.5914,313,0,
69.7541,4.89594,5.5603,1.014,14.5914,313,0,
69.7541,4.89594,5.56641,1.014,14.5914,313,0,
69.7542,4.89655,5.56183,1.014,14.5914,313,0,
69.7542,4.89624,5.56641,1.014,14.5914,313,0,
69.7542,4.89624,5.56793,1.014,14.5914,313,0,
69.7543,4.89624,5.5603,1.014,14.5914,313,0,
69.7543,4.89655,5.5603,1.014,14.5914,313,0,
69.7543,4.89624,5.55878,1.014,14.5914,313,0,
69.7544,4.89624,5.56488,1.014,14.5914,313,0,
69.7544,4.89563,5.56183,1.014,14.5914,313,0,
69.7544,4.89532,5.56183,1.014,14.5914,313,0,
69.7545,4.89655,5.56641,1.014,14.5914,313,0,
69.7545,4.89563,5.56488,1.014,14.5914,313,0,
69.7545,4.89624,5.56488,1.014,14.5914,313,0,
69.7546,4.89563,5.56641,1.014,14.5914,313,0,
69.7546,4.89624,5.56336,1.014,14.5914,313,0,
69.7546,4.89624,5.56336,1.014,14.5914,313,0,
69.7547,4.89563,5.56488,1.014,14.5914,313,0,
69.7547,4.89624,5.56336,1.014,14.5914,313,0,
69.7547,4.89624,5.56488,1.014,14.5914,313,0,
69.7548,4.89594,5.56488,1.014,14.5914,313,0,
69.7548,4.89655,5.56336,1.014,14.5914,313,0,
69.7548,4.89655,5.56488,1.014,14.5914,313,0,
69.7549,4.89594,5.56488,1.014,14.5914,313,0,
69.7549,4.89532,5.56183,1.014,14.5914,313,0,
69.7549,4.89624,5.56488,1.014,14.5914,313,0,
69.755,4.89594,5.56183,1.014,14.5914,313,0,
69.755,4.89655,5.5603,1.014,14.5914,313,0,
69.755,4.89563,5.56641,1.014,14.5914,313,0,
69.7551,4.89563,5.56336,1.014,14.5914,313,0,
69.7551,4.89655,5.56336,1.014,14.5914,313,0,
69.7551,4.89594,5.56488,1.014,14.5914,313,0,
69.7552,4.89563,5.56336,1.014,14.5914,313,0,
69.7552,4.89594,5.56488,1.014,14.5914,313,0,
69.7552,4.89532,5.56336,1.014,14.5914,313,0,
69.7553,4.89655,5.56183,1.014,14.5914,313,0,
69.7553,4.89594,5.56336,1.014,14.5914,313,0,
69.7553,4.89624,5.56183,1.014,14.5914,313,0,
69.7554,4.89624,5.5603,1.014,14.5914,313,0,
69.7554,4.89594,5.56336,1.014,14.5914,313,0,
69.7554,4.89655,5.56488,1.014,14.5914,313,0,
69.7555,4.89594,5.56336,1.014,14.5914,313,0,
69.7555,4.89532,5.56183,1.014,14.5914,313,0,
69.7555,4.89594,5.56183,1.014,14.5914,313,0,
69.7556,4.89532,5.56336,1.014,14.5914,313,0,
69.7556,4.89655,5.56336,1.014,14.5914,313,0,
69.7556,4.89624,5.56183,1.014,14.5914,313,0,
69.7557,4.89655,5.56336,1.014,14.5914,313,0,
69.7557,4.89685,5.56336,1.014,14.5914,313,0,
69.7557,4.89624,5.56183,1.014,14.5914,313,0,
69.7558,4.89594,5.56336,1.014,14.5914,313,0,
69.7558,4.89624,5.56336,1.014,14.5914,313,0,
69.7558,4.89746,5.56183,1.014,14.5914,313,0,
69.7559,4.89746,5.56183,1.014,14.5914,313,0,
69.7559,4.89716,5.56183,1.014,14.5914,313,0,
69.7559,4.89716,5.56336,1.014,14.5914,313,0,
69.756,4.89685,5.56488,1.014,14.5914,313,0,
69.756,4.89655,5.56641,1.014,14.5914,313,0,
69.756,4.89685,5.56183,1.014,14.5914,313,0,
69.7561,4.89624,5.56641,1.014,14.5914,313,0,
69.7561,4.89655,5.56183,1.014,14.5914,313,0,
69.7561,4.89594,5.56336,1.014,14.5914,313,0,
69.7562,4.89624,5.56336,1.014,14.5914,313,0,
69.7562,4.89655,5.5603,1.014,14.5914,313,0,
69.7562,4.89594,5.56488,1.014,14.5914,313,0,
69.7563,4.89655,5.56183,1.014,14.5914,313,0,
69.7563,4.89594,5.56336,1.014,14.5914,313,0,
69.7563,4.89624,5.56336,1.014,14.5914,313,0,
69.7564,4.89563,5.56183,1.014,14.5914,313,0,
69.7564,4.89594,5.56336,1.014,14.5914,313,0,
69.7564,4.89532,5.56183,1.014,14.5914,313,0,
69.7565,4.89594,5.5603,1.014,14.5914,313,0,
69.7565,4.89594,5.56641,1.014,14.5914,313,0,
69.7565,4.89594,5.56336,1.014,14.5914,313,0,
69.7566,4.89655,5.56336,1.014,14.5914,313,0,
69.7566,4.89563,5.56641,1.014,14.5914,313,0,
69.7566,4.89563,5.56488,1.014,14.5914,313,0,
69.7567,4.89563,5.56641,1.014,14.5914,313,0,
69.7567,4.89624,5.56488,1.014,14.5914,313,0,
69.7567,4.89502,5.56183,1.014,14.5914,313,0,
69.7568,4.89624,5.5542,1.014,14.5914,313,0,
69.7568,4.89624,5.55115,1.014,14.5914,313,0,
69.7568,4.89563,5.55267,1.014,14.5914,313,0,
69.7569,4.89655,5.55573,1.014,14.5914,313,0,
69.7569,4.89532,5.55573,1.014,14.5914,313,0,
69.7569,4.89685,5.54962,1.014,14.5914,313,0,
69.757,4.89655,5.5542,1.014,14.5914,313,0,
69.757,4.89594,5.55115,1.014,14.5914,313,0,
69.757,4.89563,5.54962,1.014,14.5914,313,0,
69.7571,4.89594,5.55573,1.014,14.5914,313,0,
69.7571,4.89624,5.54962,1.014,14.5914,313,0,
69.7571,4.89624,5.55267,1.014,14.5914,313,0,
69.7572,4.89563,5.55267,1.014,14.5914,313,0,
69.7572,4.89594,5.55267,1.014,14.5914,313,0,
69.7572,4.89594,5.55115,1.014,14.5914,313,0,
69.7573,4.89594,5.55115,1.014,14.5914,313,0,
69.7573,4.89624,5.55115,1.014,14.5914,313,0,
69.7573,4.89624,5.55267,1.014,14.5914,313,0,
69.7574,4.89563,5.55115,1.014,14.5914,313,0,
69.7574,4.89532,5.5542,1.014,14.5914,313,0,
69.7574,4.89624,5.54962,1.014,14.5914,313,0,
69.7575,4.89594,5.54962,1.014,14.5914,313,0,
69.7575,4.89594,5.54962,1.014,14.5914,313,0,
69.7575,4.89624,5.55267,1.014,14.5914,313,0,
69.7576,4.89594,5.5481,1.014,14.5914,313,0,
69.7576,4.89594,5.55115,1.014,14.5914,313,0,
69.7576,4.89563,5.54962,1.014,14.5914,313,0,
69.7577,4.89563,5.55115,1.014,14.5914,313,0,
69.7577,4.89594,5.55115,1.014,14.5914,313,0,
69.7577,4.89563,5.55267,1.014,14.5914,313,0,
69.7578,4.89624,5.55115,1.014,14.5914,313,0,
69.7578,4.89532,5.55115,1.014,14.5914,313,0,
69.7578,4.89563,5.54962,1.014,14.5914,313,0,
69.7579,4.89563,5.5542,1.014,14.5914,313,0,
69.7579,4.89624,5.54962,1.014,14.5914,313,0,
69.7579,4.89624,5.55115,1.014,14.5914,313,0,
69.758,4.89655,5.55115,1.014,14.5914,313,0,
69.758,4.89624,5.54962,1.014,14.5914,313,0,
69.758,4.89563,5.55115,1.014,14.5914,313,0,
69.7581,4.89532,5.55267,1.014,14.5914,313,0,
69.7581,4.89655,5.55115,1.014,14.5914,313,0,
69.7581,4.89655,5.55115,1.014,14.5914,313,0,
69.7582,4.89624,5.54962,1.014,14.5914,313,0,
69.7582,4.89563,5.55115,1.014,14.5914,313,0,
69.7582,4.89594,5.55115,1.014,14.5914,313,0,
69.7583,4.89532,5.55115,1.014,14.5914,313,0,
69.7583,4.89532,5.5542,1.014,14.5914,313,0,
69.7583,4.89624,5.54657,1.014,14.5914,313,0,
69.7584,4.89532,5.55115,1.014,14.5914,313,0,
69.7584,4.89594,5.55115,1.014,14.5914,313,0,
69.7584,4.89532,5.55267,1.014,14.5914,313,0,
69.7585,4.89655,5.55267,1.014,14.5914,313,0,
69.7585,4.89624,5.55267,1.014,14.5914,313,0,
69.7585,4.89624,5.55115,1.014,14.5914,313,0,
69.7586,4.89594,5.5481,1.014,14.5914,313,0,
69.7586,4.89594,5.5542,1.014,14.5914,313,0,
69.7586,4.89594,5.55267,1.014,14.5914,313,0,
69.7587,4.89594,5.55115,1.014,14.5914,313,0,
69.7587,4.89685,5.55267,1.014,14.5914,313,0,
69.7587,4.89594,5.5481,1.014,14.5914,313,0,
69.7588,4.89624,5.5542,1.014,14.5914,313,0,
69.7588,4.89563,5.5542,1.014,14.5914,313,0,
69.7588,4.89624,5.55115,1.014,14.5914,313,0,
69.7589,4.89594,5.5481,1.014,14.5914,313,0,
69.7589,4.89624,5.55267,1.014,14.5914,313,0,
69.7589,4.89624,5.54962,1.014,14.5914,313,0,
69.759,4.89685,5.55115,1.014,14.5914,313,0,
69.759,4.89685,5.55115,1.014,14.5914,313,0,
69.759,4.89594,5.54962,1.014,14.5914,313,0,
69.7591,4.89532,5.54962,1.014,14.5914,313,0,
69.7591,4.89594,5.55267,1.014,14.5914,313,0,
69.7591,4.89624,5.54962,1.014,14.5914,313,0,
69.7592,4.89655,5.5542,1.014,14.5914,313,0,
69.7592,4.89655,5.55115,1.014,14.5914,313,0,
69.7592,4.89685,5.55115,1.014,14.5914,313,0,
69.7593,4.89685,5.55115,1.014,14.5914,313,0,
69.7593,4.89716,5.55115,1.014,14.5914,313,0,
69.7593,4.89624,5.54962,1.014,14.5914,313,0,
69.7594,4.89594,5.55115,1.014,14.5914,313,0,
69.7594,4.89655,5.54962,1.014,14.5914,313,0,
69.7594,4.89624,5.55115,1.014,14.5914,313,0,
69.7595,4.89594,5.54962,1.014,14.5914,313,0,
69.7595,4.89594,5.54962,1.014,14.5914,313,0,
69.7595,4.89655,5.55573,1.014,14.5914,313,0,
69.7596,4.89594,5.54962,1.014,14.5914,313,0,
69.7596,4.89624,5.55267,1.014,14.5914,313,0,
69.7596,4.89624,5.55267,1.014,14.5914,313,0,
69.7597,4.89624,5.55267,1.014,14.5914,313,0,
69.7597,4.89624,5.55267,1.014,14.5914,313,0,
69.7597,4.89655,5.54962,1.014,14.5914,313,0,
69.7598,4.89594,5.5542,1.014,14.5914,313,0,
69.7598,4.89655,5.5481,1.014,14.5914,313,0,
69.7598,4.89655,5.54962,1.014,14.5914,313,0,
69.7599,4.89624,5.55115,1.014,14.5914,313,0,
69.7599,4.89594,5.5481,1.014,14.5914,313,0,
69.7599,4.89655,5.55115,1.014,14.5914,313,0,
69.76,4.89746,5.55115,1.014,14.5914,313,0,
