1400-SECPT.acq
2 msec/sample
6 channels
RSP, X, RSPEC-R
Volts
EDA, Y, PPGED-R
microsiemens
ECG R-R
Seconds
Respiration Rate
BPM
C7 - EDR
Peaks
C14 - Control
Volts
sec,CH1,CH14,CH40,CH42,CH47,CH54,
,22812,22812,22812,22812,22812,22812,
4827.1,5.71381,4.94528,1.662,19.9601,384,5,
4827.11,5.7135,4.94223,1.662,19.9601,384,5,
4827.11,5.71411,4.94528,1.662,19.9601,384,5,
4827.11,5.71442,4.94223,1.662,19.9601,384,5,
4827.11,5.71411,4.94528,1.662,19.9601,384,5,
4827.11,5.7135,4.94223,1.662,19.9601,384,5,
4827.12,5.71381,4.94681,1.662,19.9601,384,5,
4827.12,5.71411,4.94376,1.662,19.9601,384,5,
4827.12,5.71411,4.94223,1.662,19.9601,384,5,
4827.12,5.7132,4.94376,1.662,19.9601,384,5,
4827.12,5.71381,4.94376,1.662,19.9601,384,5,
4827.13,5.71411,4.94376,1.662,19.9601,384,5,
4827.13,5.71411,4.94528,1.662,19.9601,384,5,
4827.13,5.7135,4.94223,1.662,19.9601,384,5,
4827.13,5.71411,4.94376,1.662,19.9601,384,5,
4827.13,5.71442,4.94528,1.662,19.9601,384,5,
4827.14,5.7135,4.94223,1.662,19.9601,384,5,
4827.14,5.7135,4.94528,1.662,19.9601,384,5,
4827.14,5.71472,4.9407,1.662,19.9601,384,5,
4827.14,5.71411,4.94376,1.662,19.9601,384,5,
4827.14,5.7135,4.94223,1.662,19.9601,384,5,
4827.15,5.7135,4.94376,1.662,19.9601,384,5,
4827.15,5.71411,4.94223,1.662,19.9601,384,5,
4827.15,5.71381,4.9407,1.662,19.9601,384,5,
4827.15,5.71442,4.9285,1.662,19.9601,384,5,
4827.15,5.71442,4.93307,1.662,19.9601,384,5,
4827.16,5.71381,4.9346,1.662,19.9601,384,5,
4827.16,5.7135,4.93613,1.662,19.9601,384,5,
4827.16,5.71411,4.93307,1.662,19.9601,384,5,
4827.16,5.71381,4.93002,1.662,19.9601,384,5,
4827.16,5.7193,4.93307,1.662,19.9601,384,5,
4827.17,5.71899,4.93307,1.662,19.9601,384,5,
4827.17,5.7193,4.93155,1.662,19.9601,384,5,
4827.17,5.71899,4.93155,1.662,19.9601,384,5,
4827.17,5.71869,4.93155,1.662,19.9601,384,5,
4827.17,5.7193,4.9285,1.662,19.9601,384,5,
4827.18,5.7196,4.93307,1.662,19.9601,384,5,
4827.18,5.7193,4.93307,1.662,19.9601,384,5,
4827.18,5.7193,4.93307,1.662,19.9601,384,5,
4827.18,5.7196,4.93307,1.662,19.9601,384,5,
4827.18,5.72021,4.93307,1.662,19.9601,384,5,
4827.19,5.7196,4.9346,1.662,19.9601,384,5,
4827.19,5.71991,4.93307,1.662,19.9601,384,5,
4827.19,5.72021,4.9346,1.662,19.9601,384,5,
4827.19,5.71899,4.91934,1.662,19.9601,384,5,
4827.19,5.7193,4.92087,1.662,19.9601,384,5,
4827.2,5.71899,4.92087,1.662,19.9601,384,5,
4827.2,5.71899,4.91782,1.662,19.9601,384,5,
4827.2,5.71899,4.92087,1.662,19.9601,384,5,
4827.2,5.71869,4.91934,1.662,19.9601,384,5,
4827.2,5.71899,4.92087,1.662,19.9601,384,5,
4827.21,5.71838,4.91934,1.662,19.9601,384,5,
4827.21,5.71899,4.92087,1.662,19.9601,384,5,
4827.21,5.71808,4.91782,1.662,19.9601,384,5,
4827.21,5.71899,4.92087,1.662,19.9601,384,5,
4827.21,5.71838,4.91934,1.662,19.9601,384,5,
4827.22,5.72357,4.91934,1.662,19.9601,384,5,
4827.22,5.72357,4.92087,1.662,19.9601,384,5,
4827.22,5.72357,4.91934,1.662,19.9601,384,5,
4827.22,5.72327,4.92087,1.662,19.9601,384,5,
4827.22,5.72388,4.91934,1.662,19.9601,384,5,
4827.23,5.72357,4.91934,1.662,19.9601,384,5,
4827.23,5.72357,4.91782,1.662,19.9601,384,5,
4827.23,5.72418,4.91782,1.662,19.9601,384,5,
4827.23,5.72388,4.91324,1.662,19.9601,384,5,
4827.23,5.72357,4.90866,1.662,19.9601,384,5,
4827.24,5.72357,4.90866,1.662,19.9601,384,5,
4827.24,5.72845,4.90866,1.662,19.9601,384,5,
4827.24,5.72815,4.91019,1.662,19.9601,384,5,
4827.24,5.72845,4.90866,1.662,19.9601,384,5,
4827.24,5.72815,4.90866,1.662,19.9601,384,5,
4827.25,5.72876,4.90866,1.662,19.9601,384,5,
4827.25,5.72754,4.90866,1.662,19.9601,384,5,
4827.25,5.72815,4.90713,1.662,19.9601,384,5,
4827.25,5.72815,4.90866,1.662,19.9601,384,5,
4827.25,5.73395,4.90713,1.662,19.9601,384,5,
4827.26,5.73334,4.90408,1.662,19.9601,384,5,
4827.26,5.73273,4.91019,1.662,19.9601,384,5,
4827.26,5.73395,4.91019,1.662,19.9601,384,5,
4827.26,5.73364,4.90713,1.662,19.9601,384,5,
4827.26,5.73303,4.90866,1.662,19.9601,384,5,
4827.27,5.73853,4.90713,1.662,19.9601,384,5,
4827.27,5.73853,4.89493,1.662,19.9601,384,5,
4827.27,5.73853,4.89798,1.662,19.9601,384,5,
4827.27,5.73853,4.89493,1.662,19.9601,384,5,
4827.27,5.73883,4.89493,1.662,19.9601,384,5,
4827.28,5.73883,4.89493,1.662,19.9601,384,5,
4827.28,5.73792,4.8934,1.662,19.9601,384,5,
4827.28,5.73975,4.8934,1.662,19.9601,384,5,
4827.28,5.74371,4.89798,1.662,19.9601,384,5,
4827.28,5.7486,4.89493,1.662,19.9601,384,5,
4827.29,5.74738,4.89493,1.662,19.9601,384,5,
4827.29,5.74768,4.89798,1.662,19.9601,384,5,
4827.29,5.7486,4.89798,1.662,19.9601,384,5,
4827.29,5.74799,4.89645,1.662,19.9601,384,5,
4827.29,5.74829,4.89645,1.662,19.9601,384,5,
4827.3,5.74829,4.89493,1.662,19.9601,384,5,
4827.3,5.7489,4.89493,1.662,19.9601,384,5,
4827.3,5.7486,4.89645,1.662,19.9601,384,5,
4827.3,5.74921,4.89645,1.662,19.9601,384,5,
4827.3,5.74829,4.88272,1.662,19.9601,384,5,
4827.31,5.7486,4.88425,0,19.9601,384,5,
4827.31,5.7489,4.87967,0,19.9601,384,5,
4827.31,5.74829,4.88272,0,19.9601,384,5,
4827.31,5.74829,4.88425,0,19.9601,384,5,
4827.31,5.75958,4.88272,0,19.9601,384,5,
4827.32,5.76263,4.88425,0,19.9601,384,5,
4827.32,5.76447,4.88119,0,19.9601,384,5,
4827.32,5.76721,4.88425,0,19.9601,384,5,
4827.32,5.76782,4.88272,0,19.9601,384,5,
4827.32,5.76782,4.87967,0,19.9601,384,5,
4827.33,5.77209,4.88577,0,19.9601,384,5,
4827.33,5.77301,4.88272,0,19.9601,384,5,
4827.33,5.77301,4.88425,0,19.9601,384,5,
4827.33,5.77393,4.88272,0,19.9601,384,5,
4827.33,5.77759,4.88119,0,19.9601,384,5,
4827.34,5.77728,4.88425,0,19.9601,384,5,
4827.34,5.77789,4.88577,0,19.9601,384,5,
4827.34,5.78308,4.88425,0,19.9601,384,5,
4827.34,5.78247,4.87357,0,19.9601,384,5,
4827.34,5.78217,4.87051,0,19.9601,384,5,
4827.35,5.78705,4.87051,0,19.9601,384,5,
4827.35,5.78705,4.87204,0,19.9601,384,5,
4827.35,5.78766,4.87357,0,19.9601,384,5,
4827.35,5.79285,4.87509,0,19.9601,384,5,
4827.35,5.79193,4.87051,0,19.9601,384,5,
4827.36,5.79193,4.87051,0,19.9601,384,5,
4827.36,5.79742,4.87357,0,19.9601,384,5,
4827.36,5.79742,4.87357,0,19.9601,384,5,
4827.36,5.79742,4.87051,0,19.9601,384,5,
4827.36,5.802,4.87204,0,19.9601,384,5,
4827.37,5.80231,4.87051,0,19.9601,384,5,
4827.37,5.802,4.87204,0,19.9601,384,5,
4827.37,5.8075,4.87204,0,19.9601,384,5,
4827.37,5.80719,4.87204,0,19.9601,384,5,
4827.37,5.80872,4.87051,0,19.9601,384,5,
4827.38,5.81207,4.86899,0,19.9601,384,5,
4827.38,5.81238,4.87204,0,19.9601,384,5,
4827.38,5.81635,4.86899,0,19.9601,384,5,
4827.38,5.81726,4.87051,0,19.9601,384,5,
4827.38,5.81757,4.87051,0,19.9601,384,5,
4827.39,5.82153,4.87509,0,19.9601,384,5,
4827.39,5.82214,4.86136,0,19.9601,384,5,
4827.39,5.82336,4.85678,0,19.9601,384,5,
4827.39,5.82642,4.85678,0,19.9601,384,5,
4827.39,5.82642,4.86441,0,19.9601,384,5,
4827.4,5.8313,4.85831,0,19.9601,384,5,
4827.4,5.83191,4.85831,0,19.9601,384,5,
4827.4,5.83191,4.85831,0,19.9601,384,5,
4827.4,5.83679,4.85526,0,19.9601,384,5,
4827.4,5.83618,4.85983,0,19.9601,384,5,
4827.41,5.84076,4.85678,0,19.9601,384,5,
4827.41,5.84106,4.85678,0,19.9601,384,5,
4827.41,5.84137,4.85983,0,19.9601,384,5,
4827.41,5.84656,4.86136,0,19.9601,384,5,
4827.41,5.84656,4.85678,0,19.9601,384,5,
4827.42,5.85114,4.85983,0,19.9601,384,5,
4827.42,5.85175,4.85526,0,19.9601,384,5,
4827.42,5.85236,4.85983,0,19.9601,384,5,
4827.42,5.85602,4.85526,0,19.9601,384,5,
4827.42,5.85602,4.85831,0,19.9601,384,5,
4827.43,5.8606,4.85831,0,19.9601,384,5,
4827.43,5.8606,4.86136,0,19.9601,384,5,
4827.43,5.86517,4.8461,0,19.9601,384,5,
4827.43,5.86609,4.84457,0,19.9601,384,5,
4827.43,5.86609,4.84457,0,19.9601,384,5,
4827.44,5.87158,4.8461,0,19.9601,384,5,
4827.44,5.87067,4.8461,0,19.9601,384,5,
4827.44,5.87524,4.84763,0,19.9601,384,5,
4827.44,5.87524,4.84763,0,19.9601,384,5,
4827.44,5.87677,4.84763,0,19.9601,384,5,
4827.45,5.88074,4.8461,0,19.9601,384,5,
4827.45,5.88074,4.84763,0,19.9601,384,5,
4827.45,5.88501,4.8461,0,19.9601,384,5,
4827.45,5.88531,4.84763,0,19.9601,384,5,
4827.45,5.8905,4.85068,0,19.9601,384,5,
4827.46,5.88959,4.8461,0,19.9601,384,5,
4827.46,5.89447,4.84457,0,19.9601,384,5,
4827.46,5.89569,4.8461,0,19.9601,384,5,
4827.46,5.89569,4.84457,0,19.9601,384,5,
4827.46,5.89996,4.8461,0,19.9601,384,5,
4827.47,5.89966,4.8461,0,19.9601,384,5,
4827.47,5.90179,4.84763,0,19.9601,384,5,
4827.47,5.90546,4.8461,0,19.9601,384,5,
4827.47,5.91003,4.84915,0,19.9601,384,5,
4827.47,5.91034,4.8461,0,19.9601,384,5,
4827.48,5.91431,4.8461,0,19.9601,384,5,
4827.48,5.914,4.84763,0,19.9601,384,5,
4827.48,5.91644,4.84457,0,19.9601,384,5,
4827.48,5.9198,4.8461,0,19.9601,384,5,
4827.48,5.9198,4.84915,0,19.9601,384,5,
4827.49,5.92438,4.83694,0,19.9601,384,5,
4827.49,5.92499,4.83542,0,19.9601,384,5,
4827.49,5.92957,4.83389,0,19.9601,384,5,
4827.49,5.92926,4.83542,0,19.9601,384,5,
4827.49,5.93353,4.83542,0,19.9601,384,5,
4827.5,5.93445,4.83694,0,19.9601,384,5,
4827.5,5.93597,4.83542,0,19.9601,384,5,
4827.5,5.93903,4.83542,0,19.9601,384,5,
4827.5,5.93933,4.83694,0,19.9601,384,5,
4827.5,5.94421,4.83389,0,19.9601,384,5,
4827.51,5.94391,4.83084,0,19.9601,384,5,
4827.51,5.94879,4.83542,0,19.9601,384,5,
4827.51,5.9494,4.83389,0,19.9601,384,5,
4827.51,5.95276,4.82932,0,19.9601,384,5,
4827.51,5.95367,4.83542,0,19.9601,384,5,
4827.52,5.95551,4.83389,0,19.9601,384,5,
4827.52,5.95825,4.83847,0,19.9601,384,5,
4827.52,5.95886,4.83389,0,19.9601,384,5,
4827.52,5.96344,4.83847,0,19.9601,384,5,
4827.52,5.96344,4.83542,0,19.9601,384,5,
4827.53,5.96863,4.83542,0,19.9601,384,5,
4827.53,5.96893,4.82932,0,19.9601,384,5,
4827.53,5.9726,4.83389,0,19.9601,384,5,
4827.53,5.97351,4.82932,0,19.9601,384,5,
4827.53,5.97504,4.83542,0,19.9601,384,5,
4827.54,5.9787,4.83237,0,19.9601,384,5,
4827.54,5.979,4.83542,0,19.9601,384,5,
4827.54,5.98297,4.83237,0,19.9601,384,5,
4827.54,5.98328,4.84152,0,19.9601,384,5,
4827.54,5.98694,4.83847,0,19.9601,384,5,
4827.55,5.98938,4.83389,0,19.9601,384,5,
4827.55,5.98938,4.82474,0,19.9601,384,5,
4827.55,5.99274,4.82169,0,19.9601,384,5,
4827.55,5.99304,4.82169,0,19.9601,384,5,
4827.55,5.99823,4.82016,0,19.9601,384,5,
4827.56,5.99884,4.82474,0,19.9601,384,5,
4827.56,6.00189,4.82474,0,19.9601,384,5,
4827.56,6.00311,4.82321,0,19.9601,384,5,
4827.56,6.00464,4.82321,0,19.9601,384,5,
4827.56,6.008,4.82169,0,19.9601,384,5,
4827.57,6.008,4.82474,0,19.9601,384,5,
4827.57,6.01288,4.82474,0,19.9601,384,5,
4827.57,6.01257,4.82321,0,19.9601,384,5,
4827.57,6.0144,4.82321,0,19.9601,384,5,
4827.57,6.01746,4.82169,0,19.9601,384,5,
4827.58,6.01776,4.82169,0,19.9601,384,5,
4827.58,6.02234,4.82474,0,19.9601,384,5,
4827.58,6.02234,4.82321,0,19.9601,384,5,
4827.58,6.02386,4.82016,0,19.9601,384,5,
4827.58,6.02783,4.82474,0,19.9601,384,5,
4827.59,6.02722,4.82016,0,19.9601,384,5,
4827.59,6.03241,4.82474,0,19.9601,384,5,
4827.59,6.03271,4.82626,0,19.9601,384,5,
4827.59,6.03424,4.82169,0,19.9601,384,5,
4827.59,6.0376,4.82321,0,19.9601,384,5,
4827.6,6.03729,4.81863,0,19.9601,384,5,
4827.6,6.04095,4.82169,0,19.9601,384,5,
4827.6,6.04218,4.82321,0,19.9601,384,5,
4827.6,6.04218,4.82321,0,19.9601,384,5,
4827.6,6.04675,4.80948,0,19.9601,384,5,
4827.61,6.04736,4.811,0,19.9601,384,5,
4827.61,6.05072,4.81406,0,19.9601,384,5,
4827.61,6.05255,4.811,0,19.9601,384,5,
4827.61,6.05194,4.81406,0,19.9601,384,5,
4827.61,6.05743,4.811,0,19.9601,384,5,
4827.62,6.05713,4.81253,0,19.9601,384,5,
4827.62,6.05774,4.80948,0,19.9601,384,5,
4827.62,6.06232,4.81406,0,19.9601,384,5,
4827.62,6.06171,4.80948,0,19.9601,384,5,
4827.62,6.06354,4.80948,0,19.9601,384,5,
4827.63,6.06689,4.811,0,19.9601,384,5,
4827.63,6.06659,4.811,0,19.9601,384,5,
4827.63,6.07086,4.80795,0,19.9601,384,5,
4827.63,6.07239,4.81253,0,19.9601,384,5,
4827.63,6.07178,4.81253,0,19.9601,384,5,
4827.64,6.07635,4.81253,0,19.9601,384,5,
4827.64,6.07666,4.80948,0,19.9601,384,5,
4827.64,6.07666,4.80948,0,19.9601,384,5,
4827.64,6.08154,4.81406,0,19.9601,384,5,
4827.64,6.08154,4.81406,0,19.9601,384,5,
4827.65,6.08124,4.81253,0,19.9601,384,5,
4827.65,6.08643,4.80948,0,19.9601,384,5,
4827.65,6.08704,4.811,0,19.9601,384,5,
4827.65,6.08704,4.80948,0,19.9601,384,5,
4827.65,6.0907,4.81253,0,19.9601,384,5,
4827.66,6.0907,4.811,0,19.9601,384,5,
4827.66,6.09039,4.7988,0,19.9601,384,5,
4827.66,6.09558,4.80185,0,19.9601,384,5,
4827.66,6.09619,4.80032,0,19.9601,384,5,
4827.66,6.09589,4.80185,0,19.9601,384,5,
4827.67,6.10016,4.7988,0,19.9601,384,5,
4827.67,6.10046,4.7988,0,19.9601,384,5,
4827.67,6.10107,4.79575,0,19.9601,384,5,
4827.67,6.10077,4.79575,0,19.9601,384,5,
4827.67,6.10596,4.80032,0,19.9601,384,5,
4827.68,6.10626,4.79727,0,19.9601,384,5,
4827.68,6.10718,4.80338,0,19.9601,384,5,
4827.68,6.11115,4.80185,0,19.9601,384,5,
4827.68,6.11115,4.79575,0,19.9601,384,5,
4827.68,6.11084,4.79422,0,19.9601,384,5,
4827.69,6.11511,4.79727,0,19.9601,384,5,
4827.69,6.11572,4.7988,0,19.9601,384,5,
4827.69,6.11572,4.80032,0,19.9601,384,5,
4827.69,6.11969,4.80032,0,19.9601,384,5,
4827.69,6.1203,4.79727,0,19.9601,384,5,
4827.7,6.12061,4.7988,0,19.9601,384,5,
4827.7,6.12183,4.7988,0,19.9601,384,5,
4827.7,6.12518,4.7988,0,19.9601,384,5,
4827.7,6.12518,4.79727,0,19.9601,384,5,
4827.7,6.12549,4.80032,0,19.9601,384,5,
4827.71,6.12976,4.79575,0,19.9601,384,5,
4827.71,6.13159,4.79575,0,19.9601,384,5,
4827.71,6.13098,4.78506,0,19.9601,384,5,
4827.71,6.13129,4.78659,0,19.9601,384,5,
4827.71,6.13495,4.78506,0,19.9601,384,5,
4827.72,6.13525,4.78506,0,19.9601,384,5,
4827.72,6.13556,4.78659,0,19.9601,384,5,
4827.72,6.13922,4.78506,0,19.9601,384,5,
4827.72,6.13983,4.78964,0,19.9601,384,5,
4827.72,6.13983,4.78659,0,19.9601,384,5,
4827.73,6.14044,4.78812,0,19.9601,384,5,
4827.73,6.14532,4.78812,0,19.9601,384,5,
4827.73,6.14532,4.78659,0,19.9601,384,5,
4827.73,6.14532,4.79117,0,19.9601,384,5,
4827.73,6.14471,4.78659,0,19.9601,384,5,
4827.74,6.1496,4.78812,0,19.9601,384,5,
4827.74,6.15021,4.78812,0,19.9601,384,5,
4827.74,6.15021,4.78659,0,19.9601,384,5,
4827.74,6.1496,4.78506,0,19.9601,384,5,
4827.74,6.15509,4.78812,0,19.9601,384,5,
4827.75,6.15417,4.78659,0,19.9601,384,5,
4827.75,6.15479,4.78812,0,19.9601,384,5,
4827.75,6.1557,4.78659,0,19.9601,384,5,
4827.75,6.15967,4.78659,0,19.9601,384,5,
4827.75,6.15936,4.78506,0,19.9601,384,5,
4827.76,6.15936,4.78659,0,19.9601,384,5,
4827.76,6.15936,4.78506,0,19.9601,384,5,
4827.76,6.16516,4.78506,0,19.9601,384,5,
4827.76,6.16486,4.78659,0,19.9601,384,5,
4827.76,6.16516,4.77438,0,19.9601,384,5,
4827.77,6.16455,4.77438,0,19.9601,384,5,
4827.77,6.16913,4.77438,0,19.9601,384,5,
4827.77,6.16913,4.77286,0,19.9601,384,5,
4827.77,6.16943,4.77286,0,19.9601,384,5,
4827.77,6.16974,4.77286,0,19.9601,384,5,
4827.78,6.1731,4.77438,0,19.9601,384,5,
4827.78,6.17401,4.77286,0,19.9601,384,5,
4827.78,6.17462,4.77286,0,19.9601,384,5,
4827.78,6.17462,4.77591,0,19.9601,384,5,
4827.78,6.17676,4.77438,0,19.9601,384,5,
4827.79,6.18011,4.77133,0,19.9601,384,5,
4827.79,6.17981,4.77591,0,19.9601,384,5,
4827.79,6.17981,4.77744,0,19.9601,384,5,
4827.79,6.1795,4.77133,0,19.9601,384,5,
4827.79,6.18378,4.76981,0,19.9601,384,5,
4827.8,6.18408,4.77591,0,19.9601,384,5,
4827.8,6.18408,4.77438,0,19.9601,384,5,
4827.8,6.18347,4.77286,0,19.9601,384,5,
4827.8,6.18896,4.77438,0,19.9601,384,5,
4827.8,6.18896,4.77286,0,19.9601,384,5,
4827.81,6.18958,4.77744,0,19.9601,384,5,
4827.81,6.18866,4.77591,0,19.9601,384,5,
4827.81,6.18927,4.77286,0,19.9601,384,5,
4827.81,6.19415,4.77438,0,19.9601,384,5,
4827.81,6.19446,4.77438,0,19.9601,384,5,
4827.82,6.19446,4.77438,0,19.9601,384,5,
4827.82,6.19446,4.76218,0,19.9601,384,5,
4827.82,6.19781,4.76523,0,19.9601,384,5,
4827.82,6.19843,4.76065,0,19.9601,384,5,
4827.82,6.19843,4.76675,0,19.9601,384,5,
4827.83,6.19904,4.76065,0,19.9601,384,5,
4827.83,6.19904,4.76218,0,19.9601,384,5,
4827.83,6.20422,4.7637,0,19.9601,384,5,
4827.83,6.20361,4.76218,0,19.9601,384,5,
4827.83,6.20392,4.7637,0,19.9601,384,5,
4827.84,6.20422,4.76065,0,19.9601,384,5,
4827.84,6.20392,4.75912,0,19.9601,384,5,
4827.84,6.20911,4.76065,0,19.9601,384,5,
4827.84,6.20941,4.7637,0,19.9601,384,5,
4827.84,6.2088,4.76218,0,19.9601,384,5,
4827.85,6.2088,4.76218,0,19.9601,384,5,
4827.85,6.2088,4.7637,0,19.9601,384,5,
4827.85,6.21368,4.7637,0,19.9601,384,5,
4827.85,6.21429,4.76065,0,19.9601,384,5,
4827.85,6.21399,4.7637,0,19.9601,384,5,
4827.86,6.21429,4.76065,0,19.9601,384,5,
4827.86,6.21368,4.76218,0,19.9601,384,5,
4827.86,6.21948,4.76065,0,19.9601,384,5,
4827.86,6.21887,4.76065,0,19.9601,384,5,
4827.86,6.21857,4.7637,0,19.9601,384,5,
4827.87,6.21887,4.76218,0,19.9601,384,5,
4827.87,6.21887,4.76065,0,19.9601,384,5,
4827.87,6.22375,4.75912,0,19.9601,384,5,
4827.87,6.22375,4.7637,0,19.9601,384,5,
4827.87,6.22345,4.7515,0,19.9601,384,5,
4827.88,6.22375,4.75302,0,19.9601,384,5,
4827.88,6.22406,4.74692,0,19.9601,384,5,
4827.88,6.22894,4.7515,0,19.9601,384,5,
4827.88,6.22864,4.7515,0,19.9601,384,5,
4827.88,6.22894,4.7515,0,19.9601,384,5,
4827.89,6.22864,4.74844,0,19.9601,384,5,
4827.89,6.22833,4.7515,0,19.9601,384,5,
4827.89,6.22925,4.74844,0,19.9601,384,5,
4827.89,6.23322,4.7515,0,19.9601,384,5,
4827.89,6.23322,4.74844,0,19.9601,384,5,
4827.9,6.23352,4.74997,0,19.9601,384,5,
4827.9,6.23352,4.74997,0,19.9601,384,5,
4827.9,6.23413,4.74997,0,19.9601,384,5,
4827.9,6.23505,4.75302,0,19.9601,384,5,
4827.9,6.23779,4.74844,0,19.9601,384,5,
4827.91,6.23779,4.74997,0,19.9601,384,5,
4827.91,6.2381,4.74997,0,19.9601,384,5,
4827.91,6.23779,4.74692,0,19.9601,384,5,
4827.91,6.23779,4.7515,0,19.9601,384,5,
4827.91,6.24207,4.74844,0,19.9601,384,5,
4827.92,6.24329,4.7515,0,19.9601,384,5,
4827.92,6.24268,4.74844,0,19.9601,384,5,
4827.92,6.24359,4.7515,0,19.9601,384,5,
4827.92,6.24329,4.74844,0,19.9601,384,5,
4827.92,6.24329,4.7515,0,19.9601,384,5,
4827.93,6.24847,4.74997,0,19.9601,384,5,
4827.93,6.24817,4.74692,0,19.9601,384,5,
4827.93,6.24695,4.7515,0,19.9601,384,5,
4827.93,6.24847,4.73776,0,19.9601,384,5,
4827.93,6.24847,4.73471,0,19.9601,384,5,
4827.94,6.24939,4.73471,0,19.9601,384,5,
4827.94,6.25366,4.73318,0,19.9601,384,5,
4827.94,6.25305,4.73624,0,19.9601,384,5,
4827.94,6.25275,4.73624,0,19.9601,384,5,
4827.94,6.25244,4.73776,0,19.9601,384,5,
4827.95,6.25275,4.73471,0,19.9601,384,5,
4827.95,6.25671,4.73624,0,19.9601,384,5,
4827.95,6.25732,4.73624,0,19.9601,384,5,
4827.95,6.25732,4.73624,0,19.9601,384,5,
4827.95,6.25732,4.73166,0,19.9601,384,5,
4827.96,6.25793,4.73624,0,19.9601,384,5,
4827.96,6.25793,4.73776,0,19.9601,384,5,
4827.96,6.26282,4.73624,0,19.9601,384,5,
4827.96,6.26251,4.73624,0,19.9601,384,5,
4827.96,6.26282,4.73776,0,19.9601,384,5,
4827.97,6.26312,4.73166,0,19.9601,384,5,
4827.97,6.2619,4.73929,0,19.9601,384,5,
4827.97,6.26373,4.73776,0,19.9601,384,5,
4827.97,6.26709,4.73624,0,19.9601,384,5,
4827.97,6.2674,4.73776,0,19.9601,384,5,
4827.98,6.2674,4.73318,0,19.9601,384,5,
4827.98,6.26831,4.73318,0,19.9601,384,5,
4827.98,6.2677,4.73318,0,19.9601,384,5,
4827.98,6.27106,4.73776,0,19.9601,384,5,
4827.98,6.27197,4.73776,0,19.9601,384,5,
4827.99,6.27289,4.73776,0,19.9601,384,5,
4827.99,6.27258,4.73166,0,19.9601,384,5,
4827.99,6.2738,4.73929,0,19.9601,384,5,
4827.99,6.27716,4.72403,0,19.9601,384,5,
4827.99,6.27747,4.72098,0,19.9601,384,5,
4828,6.27686,4.7225,0,19.9601,384,5,
4828,6.27686,4.7225,0,19.9601,384,5,
4828,6.27655,4.72098,0,19.9601,384,5,
4828,6.27899,4.72708,0,19.9601,384,5,
4828,6.28265,4.72403,0,19.9601,384,5,
4828.01,6.28204,4.72556,0,19.9601,384,5,
4828.01,6.28235,4.72556,0,19.9601,384,5,
4828.01,6.28235,4.7225,0,19.9601,384,5,
4828.01,6.28235,4.7225,0,19.9601,384,5,
4828.01,6.28601,4.72556,0,19.9601,384,5,
4828.02,6.28693,4.72556,0,19.9601,384,5,
4828.02,6.28723,4.72403,0,19.9601,384,5,
4828.02,6.28693,4.7225,0,19.9601,384,5,
4828.02,6.28723,4.72556,0,19.9601,384,5,
4828.02,6.28784,4.72403,0,19.9601,384,5,
4828.03,6.28723,4.72403,0,19.9601,384,5,
4828.03,6.2915,4.72556,0,19.9601,384,5,
4828.03,6.29211,4.72556,0,19.9601,384,5,
4828.03,6.29211,4.72708,0,19.9601,384,5,
4828.03,6.29272,4.72556,0,19.9601,384,5,
4828.04,6.29181,4.72556,0,19.9601,384,5,
4828.04,6.29181,4.7225,2.434,19.9601,384,5,
4828.04,6.29669,4.72556,2.434,19.9601,384,5,
4828.04,6.297,4.72556,2.434,19.9601,384,5,
4828.04,6.297,4.72708,2.434,19.9601,384,5,
4828.05,6.297,4.72708,2.434,19.9601,384,5,
4828.05,6.29639,4.72403,2.434,19.9601,384,5,
4828.05,6.29669,4.72556,2.434,19.9601,384,5,
4828.05,6.30127,4.71182,2.434,19.9601,384,5,
4828.05,6.30188,4.7103,2.434,19.9601,384,5,
4828.06,6.30157,4.70877,2.434,19.9601,384,5,
4828.06,6.30157,4.71182,2.434,19.9601,384,5,
4828.06,6.3028,4.7164,2.434,19.9601,384,5,
4828.06,6.30402,4.7103,2.434,19.9601,384,5,
4828.06,6.30737,4.71182,2.434,19.9601,384,5,
4828.07,6.30646,4.71487,2.434,19.9601,384,5,
4828.07,6.30646,4.71182,2.434,19.9601,384,5,
4828.07,6.30676,4.7164,2.434,19.9601,384,5,
4828.07,6.30707,4.7164,2.434,19.9601,384,5,
4828.07,6.30859,4.71487,2.434,19.9601,384,5,
4828.08,6.31134,4.71182,2.434,19.9601,384,5,
4828.08,6.31165,4.71182,2.434,19.9601,384,5,
4828.08,6.31134,4.71487,2.434,19.9601,384,5,
4828.08,6.31195,4.71335,2.434,19.9601,384,5,
4828.08,6.31195,4.71182,2.434,19.9601,384,5,
4828.09,6.31165,4.71487,2.434,19.9601,384,5,
4828.09,6.31134,4.71182,2.434,19.9601,384,5,
4828.09,6.31195,4.71335,2.434,19.9601,384,5,
4828.09,6.31165,4.71487,2.434,19.9601,384,5,
4828.09,6.31165,4.71487,2.434,19.9601,384,5,
4828.1,6.3147,4.71182,2.434,19.9601,384,5,
4828.1,6.32141,4.70877,2.434,19.9601,384,5,
4828.1,6.32141,4.7103,2.434,19.9601,384,5,
4828.1,6.32141,4.71487,2.434,19.9601,384,5,
4828.1,6.32172,4.71182,2.434,19.9601,384,5,
4828.11,6.32141,4.71335,2.434,19.9601,384,5,
4828.11,6.32538,4.71487,2.434,19.9601,384,5,
4828.11,6.3266,4.71487,2.434,19.9601,384,5,
4828.11,6.32568,4.70114,2.434,19.9601,384,5,
4828.11,6.32599,4.70267,2.434,19.9601,384,5,
4828.12,6.32629,4.69962,2.434,19.9601,384,5,
4828.12,6.32629,4.70267,2.434,19.9601,384,5,
4828.12,6.32812,4.69809,2.434,19.9601,384,5,
4828.12,6.33118,4.69809,2.434,19.9601,384,5,
4828.12,6.33148,4.69809,2.434,19.9601,384,5,
4828.13,6.33118,4.69962,2.434,19.9601,384,5,
4828.13,6.33118,4.70419,2.434,19.9601,384,5,
4828.13,6.33057,4.69962,2.434,19.9601,384,5,
4828.13,6.33087,4.70114,2.434,19.9601,384,5,
4828.13,6.33606,4.69962,2.434,19.9601,384,5,
4828.14,6.33636,4.69962,2.434,19.9601,384,5,
4828.14,6.33575,4.69962,2.434,19.9601,384,5,
4828.14,6.33575,4.69962,2.434,19.9601,384,5,
4828.14,6.33667,4.69962,2.434,19.9601,384,5,
4828.14,6.33606,4.70114,2.434,19.9601,384,5,
4828.15,6.33972,4.69809,2.434,19.9601,384,5,
4828.15,6.34094,4.69962,2.434,19.9601,384,5,
4828.15,6.34094,4.69962,2.434,19.9601,384,5,
4828.15,6.34125,4.69809,2.434,19.9601,384,5,
4828.15,6.34094,4.69809,2.434,19.9601,384,5,
4828.16,6.34064,4.69809,2.434,19.9601,384,5,
4828.16,6.34125,4.70267,2.434,19.9601,384,5,
4828.16,6.34521,4.69656,2.434,19.9601,384,5,
4828.16,6.34521,4.69504,2.434,19.9601,384,5,
4828.16,6.34552,4.69962,2.434,19.9601,384,5,
4828.17,6.34552,4.70267,2.434,19.9601,384,5,
4828.17,6.34613,4.69809,2.434,19.9601,384,5,
4828.17,6.34583,4.70114,2.434,19.9601,384,5,
4828.17,6.34979,4.69962,2.434,19.9601,384,5,
4828.17,6.35101,4.69046,2.434,19.9601,384,5,
4828.18,6.3504,4.68741,2.434,19.9601,384,5,
4828.18,6.3501,4.68741,2.434,19.9601,384,5,
4828.18,6.3504,4.68741,2.434,19.9601,384,5,
4828.18,6.3504,4.68893,2.434,19.9601,384,5,
4828.18,6.3501,4.68893,2.434,19.9601,384,5,
4828.19,6.35406,4.68893,2.434,19.9601,384,5,
4828.19,6.35498,4.68893,2.434,19.9601,384,5,
4828.19,6.35498,4.68588,2.434,19.9601,384,5,
4828.19,6.3559,4.68741,2.434,19.9601,384,5,
4828.19,6.3559,4.68893,2.434,19.9601,384,5,
4828.2,6.3562,4.68893,2.434,19.9601,384,5,
4828.2,6.35559,4.69199,2.434,19.9601,384,5,
4828.2,6.35956,4.68893,2.434,19.9601,384,5,
4828.2,6.35986,4.69046,2.434,19.9601,384,5,
4828.2,6.36017,4.68588,2.434,19.9601,384,5,
4828.21,6.36017,4.68893,2.434,19.9601,384,5,
4828.21,6.36047,4.68741,2.434,19.9601,384,5,
4828.21,6.36047,4.68741,2.434,19.9601,384,5,
4828.21,6.36108,4.68741,2.434,19.9601,384,5,
4828.21,6.36505,4.68741,2.434,19.9601,384,5,
4828.22,6.36597,4.68588,2.434,19.9601,384,5,
4828.22,6.36597,4.69199,2.434,19.9601,384,5,
4828.22,6.36505,4.68893,2.434,19.9601,384,5,
4828.22,6.36505,4.68893,2.434,19.9601,384,5,
4828.22,6.36505,4.68741,2.434,19.9601,384,5,
4828.23,6.36505,4.68741,2.434,19.9601,384,5,
4828.23,6.36536,4.68893,2.434,19.9601,384,5,
4828.23,6.37115,4.68893,2.434,19.9601,384,5,
4828.23,6.37054,4.68588,2.434,19.9601,384,5,
4828.23,6.37054,4.69046,2.434,19.9601,384,5,
4828.24,6.37024,4.68741,2.434,19.9601,384,5,
4828.24,6.37054,4.6813,2.434,19.9601,384,5,
4828.24,6.36993,4.67215,2.434,19.9601,384,5,
4828.24,6.36993,4.67825,2.434,19.9601,384,5,
4828.24,6.37054,4.67673,2.434,19.9601,384,5,
4828.25,6.37543,4.67368,2.434,19.9601,384,5,
4828.25,6.37573,4.67673,2.434,19.9601,384,5,
4828.25,6.37543,4.67215,2.434,19.9601,384,5,
4828.25,6.37451,4.67673,2.434,19.9601,384,5,
4828.25,6.37543,4.67673,2.434,19.9601,384,5,
4828.26,6.37451,4.67368,2.434,19.9601,384,5,
4828.26,6.37573,4.67673,2.434,19.9601,384,5,
4828.26,6.37512,4.6752,2.434,19.9601,384,5,
4828.26,6.3797,4.67673,2.434,19.9601,384,5,
4828.26,6.37939,4.6752,2.434,19.9601,384,5,
4828.27,6.38031,4.67368,2.434,19.9601,384,5,
4828.27,6.38031,4.67368,2.434,19.9601,384,5,
4828.27,6.38092,4.67673,2.434,19.9601,384,5,
4828.27,6.38031,4.67673,2.434,19.9601,384,5,
4828.27,6.38,4.67673,2.434,19.9601,384,5,
4828.28,6.38062,4.6752,2.434,19.9601,384,5,
4828.28,6.38489,4.67825,2.434,19.9601,384,5,
4828.28,6.38489,4.67673,2.434,19.9601,384,5,
4828.28,6.38489,4.6752,2.434,19.9601,384,5,
4828.28,6.38519,4.6752,2.434,19.9601,384,5,
4828.29,6.38428,4.67673,2.434,19.9601,384,5,
4828.29,6.38489,4.6752,2.434,19.9601,384,5,
4828.29,6.38489,4.6752,2.434,19.9601,384,5,
4828.29,6.3858,4.67673,2.434,19.9601,384,5,
4828.29,6.38489,4.67825,2.434,19.9601,384,5,
4828.3,6.38519,4.67215,2.434,19.9601,384,5,
4828.3,6.3855,4.67673,2.434,19.9601,384,5,
4828.3,6.38977,4.67673,2.434,19.9601,384,5,
4828.3,6.39038,4.67825,2.434,19.9601,384,5,
4828.3,6.39038,4.67062,2.434,19.9601,384,5,
4828.31,6.38977,4.66452,2.434,19.9601,384,5,
4828.31,6.39008,4.66605,2.434,19.9601,384,5,
4828.31,6.38977,4.66605,2.434,19.9601,384,5,
4828.31,6.38977,4.66299,2.434,19.9601,384,5,
4828.31,6.39038,4.66452,2.434,19.9601,384,5,
4828.32,6.39008,4.66605,2.434,19.9601,384,5,
4828.32,6.39038,4.65994,2.434,19.9601,384,5,
4828.32,6.38947,4.66299,2.434,19.9601,384,5,
4828.32,6.39496,4.66757,2.434,19.9601,384,5,
4828.32,6.39496,4.66299,2.434,19.9601,384,5,
4828.33,6.39465,4.66299,2.434,19.9601,384,5,
4828.33,6.39496,4.66299,2.434,19.9601,384,5,
4828.33,6.39404,4.66757,2.434,19.9601,384,5,
4828.33,6.39526,4.66452,2.434,19.9601,384,5,
4828.33,6.39435,4.66299,2.434,19.9601,384,5,
4828.34,6.39465,4.66452,2.434,19.9601,384,5,
4828.34,6.39465,4.66299,2.434,19.9601,384,5,
4828.34,6.39526,4.66299,2.434,19.9601,384,5,
4828.34,6.39496,4.66299,2.434,19.9601,384,5,
4828.34,6.39526,4.66757,2.434,19.9601,384,5,
4828.35,6.39984,4.66299,2.434,19.9601,384,5,
4828.35,6.40015,4.66147,2.434,19.9601,384,5,
4828.35,6.39954,4.66299,2.434,19.9601,384,5,
4828.35,6.39984,4.66147,2.434,19.9601,384,5,
4828.35,6.39954,4.66605,2.434,19.9601,384,5,
4828.36,6.40015,4.66147,2.434,19.9601,384,5,
4828.36,6.39984,4.66299,2.434,19.9601,384,5,
4828.36,6.40015,4.66299,2.434,19.9601,384,5,
4828.36,6.39923,4.66605,2.434,19.9601,384,5,
4828.36,6.40015,4.66605,2.434,19.9601,384,5,
4828.37,6.39954,4.66757,2.434,19.9601,384,5,
4828.37,6.39984,4.66299,2.434,19.9601,384,5,
4828.37,6.39954,4.66452,2.434,19.9601,384,5,
4828.37,6.39984,4.65231,2.434,19.9601,384,5,
4828.37,6.4035,4.65231,2.434,19.9601,384,5,
4828.38,6.40533,4.64926,2.434,19.9601,384,5,
4828.38,6.40442,4.65079,2.434,19.9601,384,5,
4828.38,6.40503,4.65384,2.434,19.9601,384,5,
4828.38,6.40503,4.65079,2.434,19.9601,384,5,
4828.38,6.40533,4.65079,2.434,19.9601,384,5,
4828.39,6.40533,4.65384,2.434,19.9601,384,5,
4828.39,6.40533,4.64926,2.434,19.9601,384,5,
4828.39,6.40442,4.65079,2.434,19.9601,384,5,
4828.39,6.40472,4.65079,2.434,19.9601,384,5,
4828.39,6.40442,4.65384,2.434,19.9601,384,5,
4828.4,6.40472,4.65079,2.434,19.9601,384,5,
4828.4,6.40472,4.65231,2.434,19.9601,384,5,
4828.4,6.40533,4.65079,2.434,19.9601,384,5,
4828.4,6.40472,4.65079,2.434,19.9601,384,5,
4828.4,6.40503,4.65079,2.434,19.9601,384,5,
4828.41,6.40472,4.65384,2.434,19.9601,384,5,
4828.41,6.40442,4.64774,2.434,16.7411,384,5,
4828.41,6.40533,4.65079,2.434,16.7411,384,5,
4828.41,6.40991,4.65231,2.434,16.7411,384,5,
4828.41,6.4093,4.65384,2.434,16.7411,384,5,
4828.42,6.409,4.65079,2.434,16.7411,384,5,
4828.42,6.40991,4.65231,2.434,16.7411,384,5,
4828.42,6.41022,4.65079,2.434,16.7411,384,5,
4828.42,6.4093,4.65231,2.434,16.7411,384,5,
4828.42,6.4093,4.65079,2.434,16.7411,384,5,
4828.43,6.4093,4.65384,2.434,16.7411,384,5,
4828.43,6.40991,4.65079,2.434,16.7411,384,5,
4828.43,6.409,4.65384,2.434,16.7411,384,5,
4828.43,6.40869,4.65231,2.434,16.7411,384,5,
4828.43,6.409,4.65079,2.434,16.7411,384,5,
4828.44,6.40961,4.64926,2.434,16.7411,384,5,
4828.44,6.409,4.65079,2.434,16.7411,384,5,
4828.44,6.40961,4.64774,2.434,16.7411,384,5,
4828.44,6.4093,4.64468,2.434,16.7411,384,5,
4828.44,6.4093,4.63858,2.434,16.7411,384,5,
4828.45,6.40961,4.63858,2.434,16.7411,384,5,
4828.45,6.40991,4.63858,2.434,16.7411,384,5,
4828.45,6.409,4.63705,2.434,16.7411,384,5,
4828.45,6.4093,4.63858,2.434,16.7411,384,5,
4828.45,6.40961,4.63553,2.434,16.7411,384,5,
4828.46,6.40991,4.64163,2.434,16.7411,384,5,
4828.46,6.409,4.63858,2.434,16.7411,384,5,
4828.46,6.4093,4.64011,2.434,16.7411,384,5,
4828.46,6.40991,4.63858,2.434,16.7411,384,5,
4828.46,6.4093,4.63705,2.434,16.7411,384,5,
4828.47,6.4093,4.63705,2.434,16.7411,384,5,
4828.47,6.4093,4.63858,2.434,16.7411,384,5,
4828.47,6.4093,4.63705,2.434,16.7411,384,5,
4828.47,6.40991,4.63858,2.434,16.7411,384,5,
4828.47,6.4093,4.63858,2.434,16.7411,384,5,
4828.48,6.40961,4.64011,2.434,16.7411,384,5,
4828.48,6.40961,4.64163,2.434,16.7411,384,5,
4828.48,6.40961,4.63858,2.434,16.7411,384,5,
4828.48,6.4093,4.63705,2.434,16.7411,384,5,
4828.48,6.40961,4.63858,2.434,16.7411,384,5,
4828.49,6.409,4.64316,2.434,16.7411,384,5,
4828.49,6.40869,4.63858,2.434,16.7411,384,5,
4828.49,6.409,4.63705,2.434,16.7411,384,5,
4828.49,6.40961,4.64163,2.434,16.7411,384,5,
4828.49,6.40991,4.64163,2.434,16.7411,384,5,
4828.5,6.409,4.64011,2.434,16.7411,384,5,
4828.5,6.40961,4.63858,2.434,16.7411,384,5,
4828.5,6.40961,4.63858,2.434,16.7411,384,5,
4828.5,6.409,4.63858,2.434,16.7411,384,5,
4828.5,6.4093,4.63858,2.434,16.7411,384,5,
4828.51,6.40961,4.63858,2.434,16.7411,384,5,
4828.51,6.4093,4.64011,2.434,16.7411,384,5,
4828.51,6.41022,4.63705,2.434,16.7411,384,5,
4828.51,6.4093,4.64163,2.434,16.7411,384,5,
4828.51,6.40991,4.62637,2.434,16.7411,384,5,
4828.52,6.40961,4.62942,2.434,16.7411,384,5,
4828.52,6.409,4.62485,2.434,16.7411,384,5,
4828.52,6.4093,4.62485,2.434,16.7411,384,5,
4828.52,6.40533,4.62485,2.434,16.7411,384,5,
4828.52,6.40442,4.62637,2.434,16.7411,384,5,
4828.53,6.40411,4.62637,2.434,16.7411,384,5,
4828.53,6.40503,4.62942,2.434,16.7411,384,5,
4828.53,6.40381,4.62637,2.434,16.7411,384,5,
4828.53,6.40503,4.62942,2.434,16.7411,384,5,
4828.53,6.40503,4.6279,2.434,16.7411,384,5,
4828.54,6.40503,4.62637,2.434,16.7411,384,5,
4828.54,6.40472,4.6279,2.434,16.7411,384,5,
4828.54,6.40533,4.62485,2.434,16.7411,384,5,
4828.54,6.40472,4.62637,2.434,16.7411,384,5,
4828.54,6.40472,4.6279,2.434,16.7411,384,5,
4828.55,6.40503,4.62637,2.434,16.7411,384,5,
4828.55,6.40503,4.62332,2.434,16.7411,384,5,
4828.55,6.40472,4.62485,2.434,16.7411,384,5,
4828.55,6.40106,4.62637,2.434,16.7411,384,5,
4828.55,6.40045,4.62637,2.434,16.7411,384,5,
4828.56,6.40045,4.6279,2.434,16.7411,384,5,
4828.56,6.40076,4.6279,2.434,16.7411,384,5,
4828.56,6.40015,4.62637,2.434,16.7411,384,5,
4828.56,6.40137,4.6279,2.434,16.7411,384,5,
4828.56,6.40076,4.62637,2.434,16.7411,384,5,
4828.57,6.40045,4.62637,2.434,16.7411,384,5,
4828.57,6.40015,4.62332,2.434,16.7411,384,5,
4828.57,6.40076,4.62485,2.434,16.7411,384,5,
4828.57,6.39557,4.62637,2.434,16.7411,384,5,
4828.57,6.39465,4.62637,2.434,16.7411,384,5,
4828.58,6.39557,4.62637,2.434,16.7411,384,5,
4828.58,6.39465,4.6279,2.434,16.7411,384,5,
4828.58,6.39496,4.62332,2.434,16.7411,384,5,
4828.58,6.39465,4.6279,2.434,16.7411,384,5,
4828.58,6.39496,4.61874,2.434,16.7411,384,5,
4828.59,6.39465,4.61417,2.434,16.7411,384,5,
4828.59,6.39069,4.61264,2.434,16.7411,384,5,
4828.59,6.38947,4.61264,2.434,16.7411,384,5,
4828.59,6.38977,4.61417,2.434,16.7411,384,5,
4828.59,6.39008,4.61417,2.434,16.7411,384,5,
4828.6,6.39069,4.61264,2.434,16.7411,384,5,
4828.6,6.38947,4.61264,2.434,16.7411,384,5,
4828.6,6.39008,4.61569,2.434,16.7411,384,5,
4828.6,6.39008,4.61569,2.434,16.7411,384,5,
4828.6,6.3855,4.61264,2.434,16.7411,384,5,
4828.61,6.38489,4.61111,2.434,16.7411,384,5,
4828.61,6.38519,4.61874,2.434,16.7411,384,5,
4828.61,6.38458,4.61874,2.434,16.7411,384,5,
4828.61,6.38489,4.61569,2.434,16.7411,384,5,
4828.61,6.38519,4.60959,2.434,16.7411,384,5,
4828.62,6.38428,4.61264,2.434,16.7411,384,5,
4828.62,6.38031,4.61417,2.434,16.7411,384,5,
4828.62,6.37939,4.61722,2.434,16.7411,384,5,
4828.62,6.38,4.61264,2.434,16.7411,384,5,
4828.62,6.38,4.61417,2.434,16.7411,384,5,
4828.63,6.38031,4.61111,2.434,16.7411,384,5,
4828.63,6.38,4.61417,2.434,16.7411,384,5,
4828.63,6.37695,4.61417,2.434,16.7411,384,5,
4828.63,6.37543,4.61264,2.434,16.7411,384,5,
4828.63,6.37482,4.61722,2.434,16.7411,384,5,
4828.64,6.37482,4.61264,2.434,16.7411,384,5,
4828.64,6.37512,4.61722,2.434,16.7411,384,5,
4828.64,6.37512,4.61264,2.434,16.7411,384,5,
4828.64,6.3739,4.61417,2.434,16.7411,384,5,
4828.64,6.36993,4.61417,2.434,16.7411,384,5,
4828.65,6.37146,4.61417,2.434,16.7411,384,5,
4828.65,6.37085,4.60959,2.434,16.7411,384,5,
4828.65,6.37115,4.61111,2.434,16.7411,384,5,
4828.65,6.37054,4.61417,2.434,16.7411,384,5,
4828.65,6.36993,4.61722,2.434,16.7411,384,5,
4828.66,6.36505,4.60349,2.434,16.7411,384,5,
4828.66,6.36566,4.60043,2.434,16.7411,384,5,
4828.66,6.36597,4.60349,2.434,16.7411,384,5,
4828.66,6.36566,4.60196,2.434,16.7411,384,5,
4828.66,6.36536,4.60196,2.434,16.7411,384,5,
4828.67,6.36322,4.60196,2.434,16.7411,384,5,
4828.67,6.35986,4.60349,2.434,16.7411,384,5,
4828.67,6.36139,4.60043,2.434,16.7411,384,5,
4828.67,6.36017,4.60501,2.434,16.7411,384,5,
4828.67,6.36047,4.60043,2.434,16.7411,384,5,
4828.68,6.36078,4.60501,2.434,16.7411,384,5,
4828.68,6.35681,4.60349,2.434,16.7411,384,5,
4828.68,6.35559,4.60196,2.434,16.7411,384,5,
4828.68,6.35529,4.60349,2.434,16.7411,384,5,
4828.68,6.35559,4.60349,2.434,16.7411,384,5,
4828.69,6.35559,4.59891,2.434,16.7411,384,5,
4828.69,6.3559,4.60043,2.434,16.7411,384,5,
4828.69,6.35101,4.60196,2.434,16.7411,384,5,
4828.69,6.35071,4.60196,2.434,16.7411,384,5,
4828.69,6.35101,4.60349,2.434,16.7411,384,5,
4828.7,6.35071,4.60196,2.434,16.7411,384,5,
4828.7,6.35101,4.60196,2.434,16.7411,384,5,
4828.7,6.34583,4.60349,2.434,16.7411,384,5,
4828.7,6.34552,4.60654,2.434,16.7411,384,5,
4828.7,6.34552,4.60043,2.434,16.7411,384,5,
4828.71,6.34613,4.58823,2.434,16.7411,384,5,
4828.71,6.34552,4.59128,2.434,16.7411,384,5,
4828.71,6.34155,4.58823,2.434,16.7411,384,5,
4828.71,6.34064,4.58975,2.434,16.7411,384,5,
4828.71,6.34094,4.58975,2.434,16.7411,384,5,
4828.72,6.34094,4.5867,2.434,16.7411,384,5,
4828.72,6.34094,4.58975,2.434,16.7411,384,5,
4828.72,6.33759,4.58975,2.434,16.7411,384,5,
4828.72,6.33636,4.58975,2.434,16.7411,384,5,
4828.72,6.33575,4.58823,2.434,16.7411,384,5,
4828.73,6.33636,4.59433,2.434,16.7411,384,5,
4828.73,6.33606,4.58823,2.434,16.7411,384,5,
4828.73,6.3324,4.58975,2.434,16.7411,384,5,
4828.73,6.33209,4.58975,2.434,16.7411,384,5,
4828.73,6.33148,4.59128,2.434,16.7411,384,5,
4828.74,6.33118,4.59433,2.434,16.7411,384,5,
4828.74,6.33148,4.58823,2.434,16.7411,384,5,
4828.74,6.3269,4.58975,2.434,16.7411,384,5,
4828.74,6.3266,4.58975,2.434,16.7411,384,5,
4828.74,6.3266,4.58975,2.434,16.7411,384,5,
4828.75,6.32629,4.59128,2.434,16.7411,384,5,
4828.75,6.32721,4.58823,2.434,16.7411,384,5,
4828.75,6.32172,4.59128,2.434,16.7411,384,5,
4828.75,6.32141,4.58823,2.434,16.7411,384,5,
4828.75,6.32202,4.57907,2.434,16.7411,384,5,
4828.76,6.3208,4.57602,2.434,16.7411,384,5,
4828.76,6.31714,4.57907,2.434,16.7411,384,5,
4828.76,6.31683,4.57602,2.434,16.7411,384,5,
4828.76,6.31622,4.57602,2.434,16.7411,384,5,
4828.76,6.31592,4.57907,2.434,16.7411,384,5,
4828.77,6.31592,4.57449,2.434,16.7411,384,5,
4828.77,6.31195,4.57755,2.434,16.7411,384,5,
4828.77,6.31226,4.57755,2.434,16.7411,384,5,
4828.77,6.31165,4.57602,2.434,16.7411,384,5,
4828.77,6.31226,4.57602,2.434,16.7411,384,5,
4828.78,6.30676,4.57907,2.434,16.7411,384,5,
4828.78,6.30707,4.57297,2.434,16.7411,384,5,
4828.78,6.30676,4.57602,2.434,16.7411,384,5,
4828.78,6.30707,4.57907,2.434,16.7411,384,5,
4828.78,6.30249,4.57449,2.434,16.7411,384,5,
4828.79,6.30127,4.57907,2.434,16.7411,384,5,
4828.79,6.30188,4.57602,2.434,16.7411,384,5,
4828.79,6.30188,4.57602,2.434,16.7411,384,5,
4828.79,6.29791,4.57602,2.434,16.7411,384,5,
4828.79,6.2973,4.57449,2.434,16.7411,384,5,
4828.8,6.29669,4.57755,2.434,16.7411,384,5,
4828.8,6.29639,4.57755,2.434,16.7411,384,5,
4828.8,6.29181,4.57755,2.434,16.7411,384,5,
4828.8,6.29181,4.5806,2.434,16.7411,384,5,
4828.8,6.29211,4.57755,2.434,16.7411,384,5,
4828.81,6.2915,4.57602,2.434,16.7411,384,5,
4828.81,6.28723,4.57449,2.434,16.7411,384,5,
4828.81,6.28723,4.57602,2.434,16.7411,384,5,
4828.81,6.28662,4.57755,2.434,16.7411,384,5,
4828.81,6.28571,4.57907,2.434,16.7411,384,5,
4828.82,6.28204,4.57755,2.434,16.7411,384,5,
4828.82,6.28204,4.57602,2.434,16.7411,384,5,
4828.82,6.28204,4.56076,2.434,16.7411,384,5,
4828.82,6.2793,4.56534,2.434,16.7411,384,5,
4828.82,6.27777,4.56534,2.434,16.7411,384,5,
4828.83,6.27808,4.56381,2.434,16.7411,384,5,
4828.83,6.27686,4.56686,2.434,16.7411,384,5,
4828.83,6.27228,4.56839,2.434,16.7411,384,5,
4828.83,6.27228,4.56381,2.434,16.7411,384,5,
4828.83,6.27197,4.56381,2.434,16.7411,384,5,
4828.84,6.26831,4.56839,2.434,16.7411,384,5,
4828.84,6.2674,4.56534,2.434,16.7411,384,5,
4828.84,6.2674,4.56534,2.434,16.7411,384,5,
4828.84,6.26709,4.56381,2.434,16.7411,384,5,
4828.84,6.26282,4.56839,2.434,16.7411,384,5,
4828.85,6.26282,4.56686,2.434,16.7411,384,5,
4828.85,6.2619,4.56534,2.434,16.7411,384,5,
4828.85,6.25793,4.56686,2.434,16.7411,384,5,
4828.85,6.25732,4.56839,2.434,16.7411,384,5,
4828.85,6.25763,4.56686,2.434,16.7411,384,5,
4828.86,6.2561,4.56686,2.434,16.7411,384,5,
4828.86,6.25305,4.56686,2.434,16.7411,384,5,
4828.86,6.25275,4.56381,2.434,16.7411,384,5,
4828.86,6.25214,4.56839,2.434,16.7411,384,5,
4828.86,6.24786,4.56381,2.434,16.7411,384,5,
4828.87,6.24817,4.56229,2.434,16.7411,384,5,
4828.87,6.24725,4.56229,2.434,16.7411,384,5,
4828.87,6.2439,4.56229,2.434,16.7411,384,5,
4828.87,6.24329,4.56839,2.434,16.7411,384,5,
4828.87,6.24268,4.56686,2.434,16.7411,384,5,
4828.88,6.24146,4.56381,2.434,16.7411,384,5,
4828.88,6.23779,4.56534,2.434,16.7411,384,5,
4828.88,6.2381,4.56381,2.434,16.7411,384,5,
4828.88,6.23871,4.56686,2.434,16.7411,384,5,
4828.88,6.23322,4.56381,2.434,16.7411,384,5,
4828.89,6.23352,4.56534,2.434,16.7411,384,5,
4828.89,6.23291,4.56076,2.434,16.7411,384,5,
4828.89,6.22894,4.56229,2.434,16.7411,384,5,
4828.89,6.22803,4.56534,2.434,16.7411,384,5,
4828.89,6.22833,4.56229,2.434,16.7411,384,5,
4828.9,6.22864,4.56992,2.434,16.7411,384,5,
4828.9,6.22864,4.56839,2.434,16.7411,384,5,
4828.9,6.22803,4.56686,2.434,16.7411,384,5,
4828.9,6.21857,4.56686,2.434,16.7411,384,5,
4828.9,6.21826,4.56381,2.434,16.7411,384,5,
4828.91,6.21735,4.56686,2.434,16.7411,384,5,
4828.91,6.21429,4.56686,2.434,16.7411,384,5,
4828.91,6.21368,4.56686,2.434,16.7411,384,5,
4828.91,6.21368,4.56381,2.434,16.7411,384,5,
4828.91,6.21399,4.56076,2.434,16.7411,384,5,
4828.92,6.21338,4.56534,2.434,16.7411,384,5,
4828.92,6.20941,4.56381,2.434,16.7411,384,5,
4828.92,6.20514,4.56534,2.434,16.7411,384,5,
4828.92,6.20331,4.56686,2.434,16.7411,384,5,
4828.92,6.20392,4.56686,2.434,16.7411,384,5,
4828.93,6.20239,4.56534,2.434,16.7411,384,5,
4828.93,6.19873,4.55618,2.434,16.7411,384,5,
4828.93,6.19934,4.55466,2.434,16.7411,384,5,
4828.93,6.19965,4.55313,2.434,16.7411,384,5,
4828.93,6.19415,4.55313,2.434,16.7411,384,5,
4828.94,6.19385,4.55008,2.434,16.7411,384,5,
4828.94,6.19385,4.55161,2.434,16.7411,384,5,
4828.94,6.18958,4.55618,2.434,16.7411,384,5,
4828.94,6.18866,4.55313,2.434,16.7411,384,5,
4828.94,6.18805,4.55008,2.434,16.7411,384,5,
4828.95,6.1853,4.55161,2.434,16.7411,384,5,
4828.95,6.18439,4.55618,2.434,16.7411,384,5,
4828.95,6.18378,4.55161,2.434,16.7411,384,5,
4828.95,6.18256,4.55313,2.434,16.7411,384,5,
4828.95,6.17981,4.55161,2.434,16.7411,384,5,
4828.96,6.17981,4.55008,2.434,16.7411,384,5,
4828.96,6.1795,4.55313,2.434,16.7411,384,5,
4828.96,6.17493,4.55161,2.434,16.7411,384,5,
4828.96,6.17371,4.55313,2.434,16.7411,384,5,
4828.96,6.17462,4.55161,2.434,16.7411,384,5,
4828.97,6.17004,4.55161,2.434,16.7411,384,5,
4828.97,6.16913,4.55161,2.434,16.7411,384,5,
4828.97,6.16913,4.55313,2.434,16.7411,384,5,
4828.97,6.16943,4.55313,2.434,16.7411,384,5,
4828.97,6.16852,4.56229,2.434,16.7411,384,5,
4828.98,6.16455,4.56534,2.434,16.7411,384,5,
4828.98,6.16486,4.56534,2.434,16.7411,384,5,
4828.98,6.16425,4.56534,2.434,16.7411,384,5,
4828.98,6.16028,4.56686,2.434,16.7411,384,5,
4828.98,6.15967,4.56686,2.434,16.7411,384,5,
4828.99,6.15997,4.56534,2.434,16.7411,384,5,
4828.99,6.15997,4.56381,2.434,16.7411,384,5,
4828.99,6.15448,4.56839,2.434,16.7411,384,5,
4828.99,6.15448,4.56381,2.434,16.7411,384,5,
4828.99,6.15479,4.56229,2.434,16.7411,384,5,
4829,6.15112,4.56686,2.434,16.7411,384,5,
4829,6.15021,4.56686,2.434,16.7411,384,5,
4829,6.1499,4.56839,2.434,16.7411,384,5,
4829,6.1499,4.56534,2.434,16.7411,384,5,
4829,6.14563,4.56381,2.434,16.7411,384,5,
4829.01,6.14502,4.56381,2.434,16.7411,384,5,
4829.01,6.14502,4.56381,2.434,16.7411,384,5,
4829.01,6.14502,4.56686,2.434,16.7411,384,5,
4829.01,6.14044,4.56534,2.434,16.7411,384,5,
4829.01,6.14014,4.56686,2.434,16.7411,384,5,
4829.02,6.14014,4.56534,2.434,16.7411,384,5,
4829.02,6.14044,4.56076,2.434,16.7411,384,5,
4829.02,6.13464,4.56686,2.434,16.7411,384,5,
4829.02,6.13525,4.56534,2.434,16.7411,384,5,
4829.02,6.13464,4.56381,2.434,16.7411,384,5,
4829.03,6.13556,4.56229,2.434,16.7411,384,5,
4829.03,6.13007,4.56229,2.434,16.7411,384,5,
4829.03,6.13037,4.56534,2.434,16.7411,384,5,
4829.03,6.13037,4.56534,2.434,16.7411,384,5,
4829.03,6.13068,4.56534,2.434,16.7411,384,5,
4829.04,6.12549,4.56381,2.434,16.7411,384,5,
4829.04,6.12579,4.56686,2.434,16.7411,384,5,
4829.04,6.12549,4.56686,2.434,16.7411,384,5,
4829.04,6.12549,4.56534,2.434,16.7411,384,5,
4829.04,6.1203,4.56686,2.434,16.7411,384,5,
4829.05,6.11969,4.56686,2.434,16.7411,384,5,
4829.05,6.12061,4.56381,2.434,16.7411,384,5,
4829.05,6.12061,4.57907,2.434,16.7411,384,5,
4829.05,6.11572,4.57602,2.434,16.7411,384,5,
4829.05,6.11511,4.57449,2.434,16.7411,384,5,
4829.06,6.11542,4.57602,2.434,16.7411,384,5,
4829.06,6.11603,4.57755,2.434,16.7411,384,5,
4829.06,6.1142,4.57755,2.434,16.7411,384,5,
4829.06,6.11084,4.57602,2.434,16.7411,384,5,
4829.06,6.11084,4.57602,2.434,16.7411,384,5,
4829.07,6.11084,4.57755,2.434,16.7411,384,5,
4829.07,6.11053,4.57755,2.434,16.7411,384,5,
4829.07,6.10657,4.57907,2.434,16.7411,384,5,
4829.07,6.10565,4.57907,2.434,16.7411,384,5,
4829.07,6.10626,4.57602,2.434,16.7411,384,5,
4829.08,6.10626,4.57755,2.434,16.7411,384,5,
4829.08,6.10443,4.57602,2.434,16.7411,384,5,
4829.08,6.10138,4.59128,2.434,16.7411,384,5,
4829.08,6.10138,4.59433,2.434,16.7411,384,5,
4829.08,6.10107,4.58975,2.434,16.7411,384,5,
4829.09,6.10077,4.58823,2.434,16.7411,384,5,
4829.09,6.09741,4.58975,2.434,16.7411,384,5,
4829.09,6.09619,4.59128,2.434,16.7411,384,5,
4829.09,6.09589,4.59128,2.434,16.7411,384,5,
4829.09,6.0968,4.58975,2.434,16.7411,384,5,
4829.1,6.0965,4.5928,2.434,16.7411,384,5,
4829.1,6.09192,4.5867,2.434,16.7411,384,5,
4829.1,6.091,4.58975,2.434,16.7411,384,5,
4829.1,6.09039,4.60196,2.434,16.7411,384,5,
4829.1,6.09192,4.60196,2.434,16.7411,384,5,
4829.11,6.091,4.60501,2.434,16.7411,384,5,
4829.11,6.08704,4.60501,2.434,16.7411,384,5,
4829.11,6.08673,4.60196,2.434,16.7411,384,5,
4829.11,6.08673,4.60196,2.434,16.7411,384,5,
4829.11,6.08673,4.60196,2.434,16.7411,384,5,
4829.12,6.08643,4.60043,2.434,16.7411,384,5,
4829.12,6.08154,4.60349,2.434,16.7411,384,5,
4829.12,6.08154,4.60654,2.434,16.7411,384,5,
4829.12,6.08154,4.60806,2.434,16.7411,384,5,
4829.12,6.08124,4.61722,2.434,16.7411,384,5,
4829.13,6.08154,4.61264,2.434,16.7411,384,5,
4829.13,6.08002,4.61569,2.434,16.7411,384,5,
4829.13,6.07666,4.61722,2.434,16.7411,384,5,
4829.13,6.07666,4.61111,2.434,16.7411,384,5,
4829.13,6.07666,4.61264,2.434,16.7411,384,5,
4829.14,6.07574,4.61417,2.434,16.7411,384,5,
4829.14,6.07666,4.61417,2.434,16.7411,384,5,
4829.14,6.07147,4.6279,2.434,16.7411,384,5,
4829.14,6.07117,4.62485,2.434,16.7411,384,5,
4829.14,6.07147,4.6279,2.434,16.7411,384,5,
4829.15,6.07178,4.62942,2.434,16.7411,384,5,
4829.15,6.07178,4.62485,2.434,16.7411,384,5,
4829.15,6.07178,4.62637,2.434,16.7411,384,5,
4829.15,6.06659,4.62637,2.434,16.7411,384,5,
4829.15,6.06659,4.62637,2.434,16.7411,384,5,
4829.16,6.06689,4.63858,2.434,16.7411,384,5,
4829.16,6.06659,4.63553,2.434,16.7411,384,5,
4829.16,6.06659,4.64011,2.434,16.7411,384,5,
4829.16,6.06659,4.64163,2.434,16.7411,384,5,
4829.16,6.06171,4.63858,2.434,16.7411,384,5,
4829.17,6.06171,4.63858,2.434,16.7411,384,5,
4829.17,6.06201,4.64163,2.434,16.7411,384,5,
4829.17,6.06201,4.65231,2.434,16.7411,384,5,
4829.17,6.06171,4.65231,2.434,16.7411,384,5,
4829.17,6.0614,4.64926,2.434,16.7411,384,5,
4829.18,6.05804,4.65231,2.434,16.7411,384,5,
4829.18,6.05743,4.65231,2.434,16.7411,384,5,
4829.18,6.05682,4.65231,2.434,16.7411,384,5,
4829.18,6.05682,4.64926,2.434,16.7411,384,5,
4829.18,6.05621,4.66299,2.434,16.7411,384,5,
4829.19,6.05713,4.66147,2.434,16.7411,384,5,
4829.19,6.05652,4.66299,2.434,16.7411,384,5,
4829.19,6.05225,4.66605,2.434,16.7411,384,5,
4829.19,6.05255,4.65994,2.434,16.7411,384,5,
4829.19,6.05194,4.66605,2.434,16.7411,384,5,
4829.2,6.05194,4.66605,2.434,16.7411,384,5,
4829.2,6.05255,4.67368,2.434,16.7411,384,5,
4829.2,6.05255,4.67368,2.434,16.7411,384,5,
4829.2,6.05255,4.67673,2.434,16.7411,384,5,
4829.2,6.04706,4.6752,2.434,16.7411,384,5,
4829.21,6.04736,4.6813,2.434,16.7411,384,5,
4829.21,6.04736,4.69046,2.434,16.7411,384,5,
4829.21,6.04797,4.68588,2.434,16.7411,384,5,
4829.21,6.04736,4.69199,2.434,16.7411,384,5,
4829.21,6.04767,4.68741,2.434,16.7411,384,5,
4829.22,6.04706,4.68588,2.434,16.7411,384,5,
4829.22,6.04218,4.68893,2.434,16.7411,384,5,
4829.22,6.04248,4.70114,2.434,16.7411,384,5,
4829.22,6.04248,4.70114,2.434,16.7411,384,5,
4829.22,6.04218,4.69656,2.434,16.7411,384,5,
4829.23,6.04279,4.69962,2.434,16.7411,384,5,
4829.23,6.04187,4.69656,2.434,16.7411,384,5,
4829.23,6.04309,4.71182,2.434,16.7411,384,5,
4829.23,6.04248,4.71335,2.434,16.7411,384,5,
4829.23,6.03729,4.71487,2.434,16.7411,384,5,
4829.24,6.03851,4.71335,2.434,16.7411,384,5,
4829.24,6.0379,4.71182,2.434,16.7411,384,5,
4829.24,6.03729,4.72556,2.434,16.7411,384,5,
4829.24,6.03821,4.7225,2.434,16.7411,384,5,
4829.24,6.0379,4.7225,2.434,16.7411,384,5,
4829.25,6.0379,4.72556,2.434,16.7411,384,5,
4829.25,6.03729,4.72403,2.434,16.7411,384,5,
4829.25,6.03302,4.73776,2.434,16.7411,384,5,
4829.25,6.03302,4.73929,2.434,16.7411,384,5,
4829.25,6.03271,4.73776,2.434,16.7411,384,5,
4829.26,6.03363,4.74081,2.434,16.7411,384,5,
4829.26,6.03302,4.73929,2.434,16.7411,384,5,
4829.26,6.03333,4.7515,2.434,16.7411,384,5,
4829.26,6.03333,4.7515,2.434,16.7411,384,5,
4829.26,6.0321,4.74844,2.434,16.7411,384,5,
4829.27,6.02875,4.74997,2.434,16.7411,384,5,
4829.27,6.02783,4.75607,2.434,16.7411,384,5,
4829.27,6.02692,4.75912,2.434,16.7411,384,5,
4829.27,6.02753,4.76218,2.434,16.7411,384,5,
4829.27,6.02753,4.76065,2.434,16.7411,384,5,
4829.28,6.02814,4.7637,2.434,16.7411,384,5,
4829.28,6.02692,4.77133,2.434,16.7411,384,5,
4829.28,6.02692,4.77438,2.434,16.7411,384,5,
4829.28,6.02783,4.77591,2.434,16.7411,384,5,
4829.28,6.02295,4.77133,2.434,16.7411,384,5,
4829.29,6.02234,4.78659,2.434,16.7411,384,5,
4829.29,6.02173,4.78354,2.434,16.7411,384,5,
4829.29,6.02264,4.78506,2.434,16.7411,384,5,
4829.29,6.02264,4.79117,2.434,16.7411,384,5,
4829.29,6.02234,4.7988,2.434,16.7411,384,5,
4829.3,6.02234,4.79727,2.434,16.7411,384,5,
4829.3,6.02264,4.79727,2.434,16.7411,384,5,
4829.3,6.02112,4.80185,2.434,16.7411,384,5,
4829.3,6.01776,4.81253,2.434,16.7411,384,5,
4829.3,6.01715,4.81406,2.434,16.7411,384,5,
4829.31,6.01776,4.81253,2.434,16.7411,384,5,
4829.31,6.01776,4.811,2.434,16.7411,384,5,
4829.31,6.01807,4.82474,2.434,16.7411,384,5,
4829.31,6.01807,4.82321,2.434,16.7411,384,5,
4829.31,6.01837,4.82016,2.434,16.7411,384,5,
4829.32,6.01807,4.83237,2.434,16.7411,384,5,
4829.32,6.01257,4.83694,2.434,16.7411,384,5,
4829.32,6.01227,4.83389,2.434,16.7411,384,5,
4829.32,6.01288,4.83542,2.434,16.7411,384,5,
4829.32,6.01257,4.84915,2.434,16.7411,384,5,
4829.33,6.01318,4.84915,2.434,16.7411,384,5,
4829.33,6.01318,4.84457,2.434,16.7411,384,5,
4829.33,6.01288,4.85831,2.434,16.7411,384,5,
4829.33,6.01288,4.85678,2.434,16.7411,384,5,
4829.33,6.0083,4.85983,2.434,16.7411,384,5,
4829.34,6.00739,4.85831,2.434,16.7411,384,5,
4829.34,6.008,4.87509,2.434,16.7411,384,5,
4829.34,6.008,4.87357,2.434,16.7411,384,5,
4829.34,6.008,4.86899,2.434,16.7411,384,5,
4829.34,6.008,4.88425,2.434,16.7411,384,5,
4829.35,6.00708,4.8873,2.434,16.7411,384,5,
4829.35,6.00311,4.88577,2.434,16.7411,384,5,
4829.35,6.00403,4.89493,2.434,16.7411,384,5,
4829.35,6.00281,4.89493,2.434,16.7411,384,5,
4829.35,6.00311,4.89493,2.434,16.7411,384,5,
4829.36,6.00342,4.90713,2.434,16.7411,384,5,
4829.36,6.00281,4.90408,2.434,16.7411,384,5,
4829.36,6.00098,4.91019,2.434,16.7411,384,5,
4829.36,5.99792,4.91324,2.434,16.7411,384,5,
4829.36,5.99854,4.91782,2.434,16.7411,384,5,
4829.37,5.99792,4.91629,2.434,16.7411,384,5,
4829.37,5.99792,4.92697,2.434,16.7411,384,5,
4829.37,5.99823,4.9346,2.434,16.7411,384,5,
4829.37,5.99884,4.93155,2.434,16.7411,384,5,
4829.37,5.99304,4.9407,2.434,16.7411,384,5,
4829.38,5.99304,4.94833,2.434,16.7411,384,5,
4829.38,5.99304,4.94376,2.434,16.7411,384,5,
4829.38,5.99304,4.95139,2.434,16.7411,384,5,
4829.38,5.99243,4.95749,2.434,16.7411,384,5,
4829.38,5.99335,4.95749,2.434,16.7411,384,5,
4829.39,5.98785,4.96359,2.434,16.7411,384,5,
4829.39,5.98785,4.96817,2.434,16.7411,384,5,
4829.39,5.98785,4.9697,2.434,16.7411,384,5,
4829.39,5.98846,4.97733,2.434,16.7411,384,5,
4829.39,5.98846,4.98343,2.434,16.7411,384,5,
4829.4,5.9845,4.9819,2.434,16.7411,384,5,
4829.4,5.98328,4.99106,2.434,16.7411,384,5,
4829.4,5.98358,4.99258,2.434,16.7411,384,5,
4829.4,5.98328,4.99258,2.434,16.7411,384,5,
4829.4,5.98297,5.00632,2.434,16.7411,384,5,
4829.41,5.98389,5.00632,2.434,16.7411,384,5,
4829.41,5.979,5.00784,2.434,16.7411,384,5,
4829.41,5.979,5.01852,2.434,16.7411,384,5,
4829.41,5.9787,5.02005,2.434,16.7411,384,5,
4829.41,5.97809,5.02158,2.434,16.7411,384,5,
4829.42,5.97809,5.02615,2.434,16.7411,384,5,
4829.42,5.97443,5.03226,2.434,16.7411,384,5,
4829.42,5.97351,5.04141,2.434,16.7411,384,5,
4829.42,5.97412,5.04446,2.434,16.7411,384,5,
4829.42,5.97351,5.04141,2.434,16.7411,384,5,
4829.43,5.97351,5.05209,2.434,16.7411,384,5,
4829.43,5.97229,5.05667,2.434,16.7411,384,5,
4829.43,5.96863,5.06125,2.434,16.7411,384,5,
4829.43,5.96863,5.06583,2.434,16.7411,384,5,
4829.43,5.96893,5.06735,2.434,16.7411,384,5,
4829.44,5.96832,5.07956,2.434,16.7411,384,5,
4829.44,5.96863,5.07956,2.434,16.7411,384,5,
4829.44,5.9668,5.08719,2.434,16.7411,384,5,
4829.44,5.96405,5.08871,2.434,16.7411,384,5,
4829.44,5.96283,5.08566,2.434,16.7411,384,5,
4829.45,5.95825,5.10245,2.434,16.7411,384,5,
4829.45,5.95856,5.10397,2.434,16.7411,384,5,
4829.45,5.95886,5.11008,2.434,16.7411,384,5,
4829.45,5.95917,5.11771,2.434,16.7411,384,5,
4829.45,5.95917,5.11618,2.434,16.7411,384,5,
4829.46,5.95917,5.12686,2.434,16.7411,384,5,
4829.46,5.95856,5.12839,2.434,16.7411,384,5,
4829.46,5.95886,5.13144,2.434,16.7411,384,5,
4829.46,5.95886,5.13907,2.434,16.7411,384,5,
4829.46,5.95947,5.14212,2.434,16.7411,384,5,
4829.47,5.95886,5.1528,2.434,16.7411,384,5,
4829.47,5.95856,5.1528,2.434,16.7411,384,5,
4829.47,5.95886,5.16196,2.434,16.7411,384,5,
4829.47,5.95856,5.16348,2.434,16.7411,384,5,
4829.47,5.95886,5.16959,2.434,16.7411,384,5,
4829.48,5.94482,5.17569,2.434,16.7411,384,5,
4829.48,5.94391,5.17722,2.434,16.7411,384,5,
4829.48,5.94421,5.18942,2.434,16.7411,384,5,
4829.48,5.94391,5.18637,2.434,16.7411,384,5,
4829.48,5.94086,5.2001,2.434,16.7411,384,5,
4829.49,5.93903,5.20163,2.434,16.7411,384,5,
4829.49,5.93964,5.20773,2.434,16.7411,384,5,
4829.49,5.93872,5.21231,2.434,16.7411,384,5,
4829.49,5.93933,5.21078,2.434,16.7411,384,5,
4829.49,5.93414,5.22604,2.434,16.7411,384,5,
4829.5,5.93384,5.22757,2.434,16.7411,384,5,
4829.5,5.93414,5.2352,2.434,16.7411,384,5,
4829.5,5.93445,5.23825,2.434,16.7411,384,5,
4829.5,5.93475,5.24435,2.434,16.7411,384,5,
4829.5,5.93445,5.25046,2.434,16.7411,384,5,
4829.51,5.93384,5.25046,2.434,16.7411,384,5,
4829.51,5.93445,5.26419,2.434,16.7411,384,5,
4829.51,5.93414,5.26114,2.434,16.7411,384,5,
4829.51,5.93414,5.27335,2.434,16.7411,384,5,
4829.51,5.93384,5.27182,2.434,16.7411,384,5,
4829.52,5.93475,5.28555,2.434,16.7411,384,5,
4829.52,5.92438,5.28708,2.434,16.7411,384,5,
4829.52,5.92255,5.2886,2.434,16.7411,384,5,
4829.52,5.9198,5.30081,2.434,16.7411,384,5,
4829.52,5.91949,5.30081,2.434,16.7411,384,5,
4829.53,5.92041,5.31454,2.434,16.7411,384,5,
4829.53,5.91919,5.31302,2.434,16.7411,384,5,
4829.53,5.91431,5.32675,2.434,16.7411,384,5,
4829.53,5.91492,5.32523,2.434,16.7411,384,5,
4829.53,5.91492,5.33438,2.434,16.7411,384,5,
4829.54,5.914,5.33591,2.434,16.7411,384,5,
4829.54,5.91064,5.34201,2.434,16.7411,384,5,
4829.54,5.91003,5.34811,2.434,16.7411,384,5,
4829.54,5.90973,5.34964,2.434,16.7411,384,5,
4829.54,5.90942,5.36032,2.434,16.7411,384,5,
4829.55,5.91003,5.3588,2.434,16.7411,384,5,
4829.55,5.90546,5.37253,2.434,16.7411,384,5,
4829.55,5.90546,5.37405,2.434,16.7411,384,5,
4829.55,5.90576,5.38321,2.434,16.7411,384,5,
4829.55,5.90515,5.38321,2.434,16.7411,384,5,
4829.56,5.90057,5.39542,2.434,16.7411,384,5,
4829.56,5.90057,5.39694,2.434,16.7411,384,5,
4829.56,5.89996,5.40305,2.434,16.7411,384,5,
4829.56,5.89966,5.40915,2.434,16.7411,384,5,
4829.56,5.90057,5.41525,2.434,16.7411,384,5,
4829.57,5.89539,5.42288,2.434,16.7411,384,5,
4829.57,5.89539,5.42288,2.434,16.7411,384,5,
4829.57,5.89539,5.43509,2.434,16.7411,384,5,
4829.57,5.89508,5.43356,2.434,16.7411,384,5,
4829.57,5.89111,5.4534,2.434,16.7411,384,5,
4829.58,5.89111,5.4473,2.434,16.7411,384,5,
4829.58,5.88989,5.45645,2.434,16.7411,384,5,
4829.58,5.88989,5.4595,2.434,16.7411,384,5,
4829.58,5.88989,5.47171,2.434,16.7411,384,5,
4829.58,5.88562,5.47018,2.434,16.7411,384,5,
4829.59,5.88593,5.47781,2.434,16.7411,384,5,
4829.59,5.88562,5.48087,2.434,16.7411,384,5,
4829.59,5.88623,5.49612,2.434,16.7411,384,5,
4829.59,5.88165,5.49307,2.434,16.7411,384,5,
4829.59,5.88043,5.50223,2.434,16.7411,384,5,
4829.6,5.87982,5.50681,2.434,16.7411,384,5,
4829.6,5.88043,5.51443,2.434,16.7411,384,5,
4829.6,5.88043,5.52206,2.434,16.7411,384,5,
4829.6,5.87555,5.52512,2.434,16.7411,384,5,
4829.6,5.87585,5.53122,2.434,16.7411,384,5,
4829.61,5.87585,5.53275,2.434,16.7411,384,5,
4829.61,5.87494,5.54343,2.434,16.7411,384,5,
4829.61,5.87372,5.54953,2.434,16.7411,384,5,
4829.61,5.87097,5.55411,2.434,16.7411,384,5,
4829.61,5.87067,5.55869,2.434,16.7411,384,5,
4829.62,5.87067,5.57089,2.434,16.7411,384,5,
4829.62,5.87067,5.56784,2.434,16.7411,384,5,
4829.62,5.86731,5.577,2.434,16.7411,384,5,
4829.62,5.867,5.5831,2.434,16.7411,384,5,
4829.62,5.86548,5.5892,2.434,16.7411,384,5,
4829.63,5.86609,5.59225,2.434,16.7411,384,5,
4829.63,5.86609,5.60294,2.434,16.7411,384,5,
4829.63,5.86151,5.60599,2.434,16.7411,384,5,
4829.63,5.8606,5.61667,2.434,16.7411,384,5,
4829.63,5.86182,5.62125,2.434,16.7411,384,5,
4829.64,5.8609,5.62582,2.434,16.7411,384,5,
4829.64,5.86151,5.63193,2.434,16.7411,384,5,
4829.64,5.86121,5.64108,2.434,16.7411,384,5,
4829.64,5.8606,5.63956,2.434,16.7411,384,5,
4829.64,5.8551,5.65329,2.434,16.7411,384,5,
4829.65,5.85602,5.65482,2.434,16.7411,384,5,
4829.65,5.85602,5.66702,2.434,16.7411,384,5,
4829.65,5.85144,5.66702,2.434,16.7411,384,5,
4829.65,5.85083,5.67618,2.434,16.7411,384,5,
4829.65,5.85144,5.6777,2.434,16.7411,384,5,
4829.66,5.85114,5.69449,2.434,16.7411,384,5,
4829.66,5.85083,5.68991,2.434,16.7411,384,5,
4829.66,5.84717,5.70059,2.434,16.7411,384,5,
4829.66,5.84564,5.69907,2.434,16.7411,384,5,
4829.66,5.84656,5.7128,2.434,16.7411,384,5,
4829.67,5.84686,5.71127,2.434,16.7411,384,5,
4829.67,5.84534,5.72653,2.434,16.7411,384,5,
4829.67,5.84381,5.73111,2.434,16.7411,384,5,
4829.67,5.84167,5.74026,2.434,16.7411,384,5,
4829.67,5.84137,5.74026,2.434,16.7411,384,5,
4829.68,5.84198,5.74789,2.434,16.7411,384,5,
4829.68,5.84167,5.75247,2.434,16.7411,384,5,
4829.68,5.84106,5.76315,2.434,16.7411,384,5,
4829.68,5.84167,5.76468,2.434,16.7411,384,5,
4829.68,5.84167,5.77536,2.434,16.7411,384,5,
4829.69,5.84076,5.77536,2.434,16.7411,384,5,
4829.69,5.84106,5.78757,2.434,16.7411,384,5,
4829.69,5.84167,5.78909,2.434,16.7411,384,5,
4829.69,5.83191,5.8013,2.434,16.7411,384,5,
4829.69,5.8313,5.8013,2.434,16.7411,384,5,
4829.7,5.8316,5.81198,2.434,16.7411,384,5,
4829.7,5.83099,5.81503,2.434,16.7411,384,5,
4829.7,5.82947,5.82114,2.434,16.7411,384,5,
4829.7,5.82642,5.82571,2.434,16.7411,384,5,
4829.7,5.82672,5.83487,2.434,16.7411,384,5,
4829.71,5.82672,5.83945,2.434,16.7411,384,5,
4829.71,5.82672,5.85013,2.434,16.7411,384,5,
4829.71,5.82703,5.85165,2.434,16.7411,384,5,
4829.71,5.82642,5.86234,2.434,16.7411,384,5,
4829.71,5.82642,5.86234,2.434,16.7411,384,5,
4829.72,5.82611,5.87302,2.434,16.7411,384,5,
4829.72,5.82184,5.87607,2.434,16.7411,384,5,
4829.72,5.82214,5.8837,2.434,16.7411,384,5,
4829.72,5.82092,5.88522,2.434,16.7411,384,5,
4829.72,5.81726,5.89896,2.434,16.7411,384,5,
4829.73,5.81696,5.89743,2.434,16.7411,384,5,
4829.73,5.81665,5.91116,2.434,16.7411,384,5,
4829.73,5.81696,5.91116,2.434,16.7411,384,5,
4829.73,5.81665,5.92642,2.434,16.7411,384,5,
4829.73,5.81665,5.92032,2.434,16.7411,384,5,
4829.74,5.81604,5.93405,2.434,16.7411,384,5,
4829.74,5.81177,5.93863,2.434,16.7411,384,5,
4829.74,5.81238,5.94931,0,16.7411,384,5,
4829.74,5.81207,5.94778,0,16.7411,384,5,
4829.74,5.81146,5.95999,0,16.7411,384,5,
4829.75,5.80688,5.95847,0,16.7411,384,5,
4829.75,5.8075,5.96762,0,16.7411,384,5,
4829.75,5.80719,5.96762,0,16.7411,384,5,
4829.75,5.80658,5.98288,0,16.7411,384,5,
4829.75,5.80719,5.98441,0,16.7411,384,5,
4829.76,5.80841,5.99509,0,16.7411,384,5,
4829.76,5.80322,5.99814,0,16.7411,384,5,
4829.76,5.80231,6.00577,0,16.7411,384,5,
4829.76,5.80231,6.01035,0,16.7411,384,5,
4829.76,5.80261,6.02103,0,16.7411,384,5,
4829.77,5.802,6.02713,0,16.7411,384,5,
4829.77,5.80231,6.03476,0,16.7411,384,5,
4829.77,5.80048,6.04086,0,16.7411,384,5,
4829.77,5.79742,6.04391,0,16.7411,384,5,
4829.77,5.79681,6.05307,0,16.7411,384,5,
4829.78,5.79742,6.0607,0,16.7411,384,5,
4829.78,5.79742,6.06375,0,16.7411,384,5,
4829.78,5.79773,6.07138,0,16.7411,384,5,
4829.78,5.79651,6.08206,0,16.7411,384,5,
4829.78,5.79254,6.07748,0,16.7411,384,5,
4829.79,5.79285,6.08664,0,16.7411,384,5,
4829.79,5.79285,6.09427,0,16.7411,384,5,
4829.79,5.79224,6.10495,0,16.7411,384,5,
4829.79,5.79254,6.10648,0,16.7411,384,5,
4829.79,5.79224,6.11868,0,16.7411,384,5,
4829.8,5.79254,6.12021,0,16.7411,384,5,
4829.8,5.79193,6.12936,0,16.7411,384,5,
4829.8,5.79285,6.12936,0,16.7411,384,5,
4829.8,5.78705,6.1431,0,16.7411,384,5,
4829.8,5.78766,6.14615,0,16.7411,384,5,
4829.81,5.78766,6.15378,0,16.7411,384,5,
4829.81,5.78766,6.1553,0,16.7411,384,5,
4829.81,5.78705,6.17209,0,16.7411,384,5,
4829.81,5.78766,6.16904,0,16.7411,384,5,
4829.81,5.78766,6.18124,0,16.7411,384,5,
4829.82,5.78369,6.17972,0,16.7411,384,5,
4829.82,5.78217,6.19498,0,16.7411,384,5,
4829.82,5.78278,6.19498,0,16.7411,384,5,
4829.82,5.78278,6.20566,0,16.7411,384,5,
4829.82,5.78339,6.20566,0,16.7411,384,5,
4829.83,5.78278,6.22092,0,16.7411,384,5,
4829.83,5.78247,6.21176,0,16.7411,384,5,
4829.83,5.78278,6.23007,0,16.7411,384,5,
4829.83,5.77759,6.2316,0,16.7411,384,5,
4829.83,5.7785,6.24075,0,16.7411,384,5,
4829.84,5.77728,6.24838,0,16.7411,384,5,
4829.84,5.77759,6.25601,0,16.7411,384,5,
4829.84,5.77759,6.25906,0,16.7411,384,5,
4829.84,5.77759,6.26517,0,16.7411,384,5,
4829.84,5.7782,6.27585,0,16.7411,384,5,
4829.85,5.77728,6.28348,0,16.7411,384,5,
4829.85,5.77545,6.285,0,16.7411,384,5,
4829.85,5.77271,6.285,0,16.7411,384,5,
4829.85,5.77271,6.29721,0,16.7411,384,5,
4829.85,5.77271,6.30331,0,16.7411,384,5,
4829.86,5.77271,6.30789,0,16.7411,384,5,
4829.86,5.77301,6.31552,0,16.7411,384,5,
4829.86,5.77301,6.31857,0,16.7411,384,5,
4829.86,5.77301,6.33078,0,16.7411,384,5,
4829.86,5.77332,6.33231,0,16.7411,384,5,
4829.87,5.77301,6.33994,0,16.7411,384,5,
4829.87,5.76752,6.34756,0,16.7411,384,5,
4829.87,5.76752,6.35367,0,16.7411,384,5,
4829.87,5.76782,6.35825,0,16.7411,384,5,
4829.87,5.76843,6.3613,0,16.7411,384,5,
4829.88,5.76721,6.36893,0,16.7411,384,5,
4829.88,5.76752,6.3735,0,16.7411,384,5,
4829.88,5.76782,6.38266,0,16.7411,384,5,
4829.88,5.76782,6.38876,0,16.7411,384,5,
4829.88,5.76691,6.39639,0,16.7411,384,5,
4829.89,5.76813,6.39944,0,16.7411,384,5,
4829.89,5.76599,6.39944,0,16.7411,384,5,
4829.89,5.76263,6.41165,0,16.7411,384,5,
4829.89,5.76324,6.41165,0,16.7411,384,5,
4829.89,5.76385,6.42538,0,16.7411,384,5,
4829.9,5.76294,6.42386,0,16.7411,384,5,
4829.9,5.76324,6.43912,0,16.7411,384,5,
4829.9,5.76263,6.43759,0,16.7411,384,5,
4829.9,5.76324,6.4498,0,16.7411,384,5,
4829.9,5.76294,6.44675,0,16.7411,384,5,
4829.91,5.76294,6.46353,0,16.7411,384,5,
4829.91,5.76324,6.46201,0,16.7411,384,5,
4829.91,5.76263,6.47421,0,16.7411,384,5,
4829.91,5.76263,6.47574,0,16.7411,384,5,
4829.91,5.75867,6.48032,2.422,16.7411,384,5,
4829.92,5.75836,6.48642,2.422,16.7411,384,5,
4829.92,5.75775,6.491,2.422,16.7411,384,5,
4829.92,5.75775,6.50015,2.422,16.7411,384,5,
4829.92,5.75867,6.4971,2.422,16.7411,384,5,
4829.92,5.75867,6.51236,2.422,16.7411,384,5,
4829.93,5.75867,6.51083,2.422,16.7411,384,5,
4829.93,5.75836,6.52457,2.422,16.7411,384,5,
4829.93,5.75897,6.52304,2.422,16.7411,384,5,
4829.93,5.75897,6.53372,2.422,16.7411,384,5,
4829.93,5.75958,6.53372,2.422,16.7411,384,5,
4829.94,5.75836,6.54288,2.422,16.7411,384,5,
4829.94,5.75897,6.54898,2.422,16.7411,384,5,
4829.94,5.75836,6.55508,2.422,16.7411,384,5,
4829.94,5.75836,6.55814,2.422,16.7411,384,5,
4829.94,5.75836,6.55966,2.422,16.7411,384,5,
4829.95,5.75867,6.57034,2.422,16.7411,384,5,
4829.95,5.75378,6.57034,2.422,16.7411,384,5,
4829.95,5.75409,6.58102,2.422,16.7411,384,5,
4829.95,5.75348,6.58255,2.422,16.7411,384,5,
4829.95,5.75317,6.59476,2.422,16.7411,384,5,
4829.96,5.75378,6.59628,2.422,16.7411,384,5,
4829.96,5.75287,6.60391,2.422,16.7411,384,5,
4829.96,5.75348,6.60849,2.422,16.7411,384,5,
4829.96,5.75348,6.61307,2.422,16.7411,384,5,
4829.96,5.75317,6.6207,2.422,16.7411,384,5,
4829.97,5.75287,6.61612,2.422,16.7411,384,5,
4829.97,5.75378,6.63138,2.422,16.7411,384,5,
4829.97,5.75378,6.6329,2.422,16.7411,384,5,
4829.97,5.75348,6.64511,2.422,16.7411,384,5,
4829.97,5.75287,6.64359,2.422,16.7411,384,5,
4829.98,5.75317,6.65427,2.422,16.7411,384,5,
4829.98,5.75317,6.65579,2.422,16.7411,384,5,
4829.98,5.75317,6.66342,2.422,16.7411,384,5,
4829.98,5.75317,6.66647,2.422,16.7411,384,5,
4829.98,5.75317,6.668,2.422,16.7411,384,5,
4829.99,5.75287,6.67563,2.422,16.7411,384,5,
4829.99,5.75226,6.67868,2.422,16.7411,384,5,
4829.99,5.75348,6.69241,2.422,16.7411,384,5,
4829.99,5.75256,6.69241,2.422,16.7411,384,5,
4829.99,5.75317,6.70615,2.422,16.7411,384,5,
4830,5.75317,6.70309,2.422,16.7411,384,5,
4830,5.75317,6.71378,2.422,16.7411,384,5,
4830,5.75317,6.71835,2.422,16.7411,384,5,
4830,5.75348,6.7153,2.422,16.7411,384,5,
4830,5.75287,6.73056,2.422,16.7411,384,5,
4830.01,5.75348,6.73209,2.422,16.7411,384,5,
4830.01,5.75256,6.74429,2.422,16.7411,384,5,
4830.01,5.75195,6.74277,2.422,16.7411,384,5,
4830.01,5.74799,6.7504,2.422,16.7411,384,5,
4830.01,5.7486,6.75803,2.422,16.7411,384,5,
4830.02,5.74799,6.75192,2.422,16.7411,384,5,
4830.02,5.74799,6.76413,2.422,16.7411,384,5,
4830.02,5.7489,6.76871,2.422,16.7411,384,5,
4830.02,5.74829,6.77786,2.422,16.7411,384,5,
4830.02,5.74799,6.77939,2.422,16.7411,384,5,
4830.03,5.7486,6.79007,2.422,16.7411,384,5,
4830.03,5.7486,6.79465,2.422,16.7411,384,5,
4830.03,5.7486,6.7977,2.422,16.7411,384,5,
4830.03,5.7486,6.80838,2.422,16.7411,384,5,
4830.03,5.7486,6.80228,2.422,16.7411,384,5,
4830.04,5.74799,6.81906,2.422,16.7411,384,5,
4830.04,5.74799,6.81754,2.422,16.7411,384,5,
4830.04,5.74829,6.82669,2.422,16.7411,384,5,
4830.04,5.74829,6.82974,2.422,16.7411,384,5,
4830.04,5.7486,6.83737,2.422,16.7411,384,5,
4830.05,5.7486,6.84042,2.422,16.7411,384,5,
4830.05,5.7489,6.84042,2.422,16.7411,384,5,
4830.05,5.7489,6.8511,2.422,16.7411,384,5,
4830.05,5.7486,6.85568,2.422,16.7411,384,5,
4830.05,5.7486,6.86331,2.422,16.7411,384,5,
4830.06,5.74768,6.86789,2.422,16.7411,384,5,
4830.06,5.7486,6.87247,2.422,16.7411,384,5,
4830.06,5.74829,6.8801,2.422,16.7411,384,5,
4830.06,5.74799,6.87704,2.422,16.7411,384,5,
4830.06,5.74829,6.88925,2.422,16.7411,384,5,
4830.07,5.74829,6.89078,2.422,16.7411,384,5,
4830.07,5.74799,6.89688,2.422,16.7411,384,5,
4830.07,5.74829,6.90146,2.422,16.7411,384,5,
4830.07,5.7489,6.91061,2.422,16.7411,384,5,
4830.07,5.74829,6.91367,2.422,16.7411,384,5,
4830.08,5.7486,6.91061,2.422,16.7411,384,5,
4830.08,5.7489,6.92435,2.422,16.7411,384,5,
4830.08,5.74768,6.9274,2.422,16.7411,384,5,
4830.08,5.75287,6.93655,2.422,16.7411,384,5,
4830.08,5.75378,6.93808,2.422,16.7411,384,5,
4830.09,5.75287,6.93503,2.422,16.7411,384,5,
4830.09,5.75378,6.95029,2.422,16.7411,384,5,
4830.09,5.75348,6.95029,2.422,16.7411,384,5,
4830.09,5.75256,6.96402,2.422,16.7411,384,5,
4830.09,5.75287,6.96402,2.422,16.7411,384,5,
4830.1,5.75317,6.97012,2.422,16.7411,384,5,
4830.1,5.75317,6.97775,2.422,16.7411,384,5,
4830.1,5.75317,6.97165,2.422,16.7411,384,5,
4830.1,5.75378,6.98996,2.422,16.7411,384,5,
4830.1,5.75317,6.98996,2.422,16.7411,384,5,
4830.11,5.75317,6.99759,2.422,16.7411,384,5,
4830.11,5.75348,7.00064,2.422,16.7411,384,5,
4830.11,5.75287,6.99911,2.422,16.7411,384,5,
4830.11,5.75317,7.00827,2.422,16.7411,384,5,
4830.11,5.75287,7.01285,2.422,16.7411,384,5,
4830.12,5.75287,7.02353,2.422,16.7411,384,5,
4830.12,5.75317,7.02353,2.422,16.7411,384,5,
4830.12,5.75317,7.022,2.422,16.7411,384,5,
4830.12,5.75348,7.03574,2.422,16.7411,384,5,
4830.12,5.75287,7.03574,2.422,16.7411,384,5,
4830.13,5.75378,7.04337,2.422,16.7411,384,5,
4830.13,5.75348,7.04642,2.422,16.7411,384,5,
4830.13,5.75317,7.04947,2.422,16.7411,384,5,
4830.13,5.75592,7.06015,2.422,16.7411,384,5,
4830.13,5.75775,7.05862,2.422,16.7411,384,5,
4830.14,5.75836,7.06931,2.422,16.7411,384,5,
4830.14,5.75836,7.07388,2.422,16.7411,384,5,
4830.14,5.75806,7.07388,2.422,16.7411,384,5,
4830.14,5.75897,7.08456,2.422,16.7411,384,5,
4830.14,5.75806,7.08914,2.422,16.7411,384,5,
4830.15,5.75836,7.08914,2.422,16.7411,384,5,
4830.15,5.75806,7.0983,2.422,16.7411,384,5,
4830.15,5.75867,7.09982,2.422,16.7411,384,5,
4830.15,5.75775,7.1105,2.422,16.7411,384,5,
4830.15,5.75775,7.11203,2.422,16.7411,384,5,
4830.16,5.75867,7.1105,2.422,16.7411,384,5,
4830.16,5.75806,7.12119,2.422,16.7411,384,5,
4830.16,5.76202,7.12119,2.422,16.7411,384,5,
4830.16,5.76355,7.12576,2.422,16.7411,384,5,
4830.16,5.76324,7.13797,2.422,16.7411,384,5,
4830.17,5.76294,7.13339,2.422,16.7411,384,5,
4830.17,5.76385,7.14713,2.422,16.7411,384,5,
4830.17,5.76324,7.14865,2.422,16.7411,384,5,
4830.17,5.76294,7.1456,2.422,16.7411,384,5,
4830.17,5.76233,7.15781,2.422,16.7411,384,5,
4830.18,5.76324,7.15781,2.422,16.7411,384,5,
4830.18,5.76324,7.15628,2.422,16.7411,384,5,
4830.18,5.76324,7.17154,2.422,16.7411,384,5,
4830.18,5.76813,7.17001,2.422,16.7411,384,5,
4830.18,5.76782,7.17612,2.422,16.7411,384,5,
4830.19,5.76752,7.18527,2.422,16.7411,384,5,
4830.19,5.76752,7.18222,2.422,16.7411,384,5,
4830.19,5.76782,7.1929,2.422,16.7411,384,5,
4830.19,5.76782,7.19443,2.422,16.7411,384,5,
4830.19,5.76782,7.1929,2.422,16.7411,384,5,
4830.2,5.76782,7.20663,2.422,16.7411,384,5,
4830.2,5.76935,7.20511,2.422,16.7411,384,5,
4830.2,5.77271,7.20663,2.422,16.7411,384,5,
4830.2,5.7724,7.22037,2.422,16.7411,384,5,
4830.2,5.77301,7.22037,2.422,16.7411,384,5,
4830.21,5.77209,7.22037,2.422,16.7411,384,5,
4830.21,5.7724,7.23105,2.422,16.7411,384,5,
4830.21,5.77271,7.23257,2.422,16.7411,384,5,
4830.21,5.7724,7.23105,2.422,16.7411,384,5,
4830.21,5.77728,7.24326,2.422,16.7411,384,5,
4830.22,5.77759,7.24326,2.422,16.7411,384,5,
4830.22,5.77728,7.25088,2.422,16.7411,384,5,
4830.22,5.77759,7.25699,2.422,16.7411,384,5,
4830.22,5.77759,7.25699,2.422,16.7411,384,5,
4830.22,5.77759,7.26157,2.422,16.7411,384,5,
4830.23,5.77972,7.26767,2.422,16.7411,384,5,
4830.23,5.78308,7.2692,2.422,16.7411,384,5,
4830.23,5.78217,7.27682,2.422,16.7411,384,5,
4830.23,5.78278,7.27835,2.422,16.7411,384,5,
4830.23,5.78247,7.27988,2.422,16.7411,384,5,
4830.24,5.78247,7.28598,2.422,16.7411,384,5,
4830.24,5.784,7.29361,2.422,16.7411,384,5,
4830.24,5.78735,7.29056,2.422,16.7411,384,5,
4830.24,5.78735,7.29666,2.422,16.7411,384,5,
4830.24,5.78735,7.30582,2.422,16.7411,384,5,
4830.25,5.78735,7.30734,2.422,16.7411,384,5,
4830.25,5.78674,7.30276,2.422,16.7411,384,5,
4830.25,5.79193,7.31345,2.422,16.7411,384,5,
4830.25,5.79254,7.3165,2.422,16.7411,384,5,
4830.25,5.79193,7.3165,2.422,16.7411,384,5,
4830.26,5.79224,7.3287,2.422,16.7411,384,5,
4830.26,5.79193,7.33023,2.422,16.7411,384,5,
4830.26,5.79681,7.3287,2.422,16.7411,384,5,
4830.26,5.79742,7.34091,2.422,16.7411,384,5,
4830.26,5.79712,7.34091,2.422,16.7411,384,5,
4830.27,5.79742,7.34091,2.422,16.7411,384,5,
4830.27,5.79681,7.35464,2.422,16.7411,384,5,
4830.27,5.8017,7.35464,2.422,16.7411,384,5,
4830.27,5.802,7.35007,2.422,16.7411,384,5,
4830.27,5.80231,7.3577,2.422,16.7411,384,5,
4830.28,5.802,7.3638,2.422,16.7411,384,5,
4830.28,5.80231,7.36685,2.422,16.7411,384,5,
4830.28,5.80688,7.36533,2.422,16.7411,384,5,
4830.28,5.80597,7.37601,2.422,16.7411,384,5,
4830.28,5.80688,7.37906,2.422,16.7411,384,5,
4830.29,5.80688,7.37753,2.422,16.7411,384,5,
4830.29,5.81116,7.38974,2.422,16.7411,384,5,
4830.29,5.81207,7.39279,2.422,16.7411,384,5,
4830.29,5.81207,7.38974,2.422,16.7411,384,5,
4830.29,5.81238,7.38669,2.422,16.7411,384,5,
4830.3,5.8139,7.3989,2.422,16.7411,384,5,
4830.3,5.81726,7.40042,2.422,16.7411,384,5,
4830.3,5.81665,7.40042,2.422,16.7411,384,5,
4830.3,5.81696,7.405,2.422,16.7411,384,5,
4830.3,5.81696,7.41415,2.422,16.7411,384,5,
4830.31,5.82184,7.41263,2.422,16.7411,384,5,
4830.31,5.82123,7.41415,2.422,16.7411,384,5,
4830.31,5.82214,7.42636,2.422,16.7411,384,5,
4830.31,5.82153,7.42331,2.422,16.7411,384,5,
4830.31,5.82642,7.42636,2.422,16.7411,384,5,
4830.32,5.82703,7.42484,2.422,16.7411,384,5,
4830.32,5.82672,7.43704,2.422,16.7411,384,5,
4830.32,5.82672,7.43857,2.422,16.7411,384,5,
4830.32,5.8313,7.43857,2.422,16.7411,384,5,
4830.32,5.83099,7.44467,2.422,16.7411,384,5,
4830.33,5.8313,7.44925,2.422,16.7411,384,5,
4830.33,5.83313,7.45535,2.422,16.7411,384,5,
4830.33,5.83618,7.44925,2.422,16.7411,384,5,
4830.33,5.83618,7.45535,2.422,16.7411,384,5,
4830.33,5.83618,7.46451,2.422,16.7411,384,5,
4830.34,5.83618,7.46298,2.422,16.7411,384,5,
4830.34,5.84106,7.46451,2.422,16.7411,384,5,
4830.34,5.84137,7.46909,2.422,16.7411,384,5,
4830.34,5.84137,7.47519,2.422,16.7411,384,5,
4830.34,5.8429,7.47671,2.422,16.7411,384,5,
4830.35,5.84595,7.47824,2.422,16.7411,384,5,
4830.35,5.84595,7.47977,2.422,16.7411,384,5,
4830.35,5.84595,7.4874,2.422,16.7411,384,5,
4830.35,5.85052,7.48587,2.422,16.7411,384,5,
4830.35,5.85083,7.48892,2.422,16.7411,384,5,
4830.36,5.85144,7.48892,2.422,16.7411,384,5,
4830.36,5.85266,7.4996,2.422,16.7411,384,5,
4830.36,5.8551,7.50113,2.422,16.7411,384,5,
4830.36,5.85602,7.50418,2.422,16.7411,384,5,
4830.36,5.85602,7.49808,2.422,16.7411,384,5,
4830.37,5.8606,7.50571,2.422,16.7411,384,5,
4830.37,5.8606,7.51028,2.422,16.7411,384,5,
4830.37,5.8606,7.51334,2.422,16.7411,384,5,
4830.37,5.86456,7.51334,2.422,16.7411,384,5,
4830.37,5.86578,7.51181,2.422,16.7411,384,5,
4830.38,5.86578,7.52554,2.422,16.7411,384,5,
4830.38,5.86853,7.52707,2.422,16.7411,384,5,
4830.38,5.87036,7.52249,2.422,16.7411,384,5,
4830.38,5.87158,7.52402,2.422,16.7411,384,5,
4830.38,5.87097,7.52402,2.422,16.7411,384,5,
4830.39,5.87494,7.53775,2.422,16.7411,384,5,
4830.39,5.87555,7.53775,2.422,16.7411,384,5,
4830.39,5.87555,7.53622,2.422,16.7411,384,5,
4830.39,5.88074,7.53928,2.422,16.7411,384,5,
4830.39,5.88135,7.53622,2.422,16.7411,384,5,
4830.4,5.88104,7.54996,2.422,16.7411,384,5,
4830.4,5.8844,7.54996,2.422,16.7411,384,5,
4830.4,5.88531,7.55301,2.422,16.7411,384,5,
4830.4,5.88593,7.55148,2.422,16.7411,384,5,
4830.4,5.88989,7.54843,2.422,16.7411,384,5,
4830.41,5.8902,7.56216,2.422,16.7411,384,5,
4830.41,5.88989,7.55911,2.422,16.7411,384,5,
4830.41,5.89233,7.56216,2.422,16.7411,384,5,
4830.41,5.89508,7.56064,2.422,16.7411,384,5,
4830.41,5.89539,7.56064,2.422,16.7411,384,5,
4830.42,5.89783,7.57132,2.422,16.7411,384,5,
4830.42,5.90027,7.57437,2.422,16.7411,384,5,
4830.42,5.90088,7.57285,2.422,16.7411,384,5,
4830.42,5.90088,7.57437,2.422,16.7411,384,5,
4830.42,5.90515,7.57285,2.422,16.7411,384,5,
4830.43,5.90546,7.58047,2.422,16.7411,384,5,
4830.43,5.90546,7.58353,2.422,16.7411,384,5,
4830.43,5.90973,7.58505,2.422,16.7411,384,5,
4830.43,5.91034,7.5881,2.422,16.7411,384,5,
4830.43,5.90973,7.58658,2.422,16.7411,384,5,
4830.44,5.91522,7.58353,2.422,16.7411,384,5,
4830.44,5.91522,7.59726,2.422,16.7411,384,5,
4830.44,5.91461,7.59726,2.422,16.7411,384,5,
4830.44,5.91949,7.60031,2.422,16.7411,384,5,
4830.44,5.91919,7.59726,2.422,16.7411,384,5,
4830.45,5.92041,7.59421,2.422,16.7411,384,5,
4830.45,5.92407,7.60489,2.422,16.7411,384,5,
4830.45,5.92468,7.61099,2.422,16.7411,384,5,
4830.45,5.92499,7.61099,2.422,16.7411,384,5,
4830.45,5.92834,7.61252,2.422,16.7411,384,5,
4830.46,5.92987,7.61404,2.422,16.7411,384,5,
4830.46,5.92957,7.61252,2.422,16.7411,384,5,
4830.46,5.93323,7.62167,2.422,16.7411,384,5,
4830.46,5.93445,7.62015,2.422,16.7411,384,5,
4830.46,5.93445,7.6232,2.422,16.7411,384,5,
4830.47,5.93842,7.62167,2.422,16.7411,384,5,
4830.47,5.93872,7.6232,2.422,16.7411,384,5,
4830.47,5.93933,7.62167,2.422,16.7411,384,5,
4830.47,5.94269,7.63693,2.422,16.7411,384,5,
4830.47,5.9436,7.63541,2.422,16.7411,384,5,
4830.48,5.9436,7.63388,2.422,16.7411,384,5,
4830.48,5.94788,7.63541,2.422,16.7411,384,5,
4830.48,5.9491,7.63693,2.422,16.7411,384,5,
4830.48,5.94879,7.63541,2.422,16.7411,384,5,
4830.48,5.95398,7.64761,2.422,16.7411,384,5,
4830.49,5.95398,7.64914,2.422,16.7411,384,5,
4830.49,5.95398,7.64761,2.422,16.7411,384,5,
4830.49,5.95581,7.64914,2.422,16.7411,384,5,
4830.49,5.95825,7.64914,2.422,16.7411,384,5,
4830.49,5.95825,7.64914,2.422,16.7411,384,5,
4830.5,5.96039,7.64761,2.422,16.7411,384,5,
4830.5,5.96436,7.65677,2.422,16.7411,384,5,
4830.5,5.96405,7.66135,2.422,16.7411,384,5,
4830.5,5.96466,7.65829,2.422,16.7411,384,5,
4830.5,5.96863,7.65829,2.422,16.7411,384,5,
4830.51,5.96863,7.66135,2.422,16.7411,384,5,
4830.51,5.97046,7.65982,2.422,16.7411,384,5,
4830.51,5.97412,7.66745,2.422,16.7411,384,5,
4830.51,5.9729,7.67508,2.422,16.7411,384,5,
4830.51,5.97534,7.67508,2.422,16.7411,384,5,
4830.52,5.97778,7.6705,2.422,16.7411,384,5,
4830.52,5.97778,7.67355,2.422,16.7411,384,5,
4830.52,5.97992,7.6705,2.422,16.7411,384,5,
4830.52,5.98419,7.67355,2.422,16.7411,384,5,
4830.52,5.98328,7.67355,2.422,16.7411,384,5,
4830.53,5.98328,7.68271,2.422,16.7411,384,5,
4830.53,5.98785,7.68423,2.422,16.7411,384,5,
4830.53,5.98846,7.68423,2.422,16.7411,384,5,
4830.53,5.98846,7.68729,2.422,16.7411,384,5,
4830.53,5.99304,7.68576,2.422,16.7411,384,5,
4830.54,5.99304,7.68423,2.422,16.7411,384,5,
4830.54,5.99304,7.68729,2.422,16.7411,384,5,
4830.54,5.99823,7.68423,2.422,16.7411,384,5,
4830.54,5.99792,7.69492,2.422,16.7411,384,5,
4830.54,5.99792,7.69644,2.422,16.7411,384,5,
4830.55,6.00281,7.69949,2.422,16.7411,384,5,
4830.55,6.0025,7.69644,2.422,16.7411,384,5,
4830.55,6.00311,7.69644,2.422,16.7411,384,5,
4830.55,6.0083,7.69644,2.422,16.7411,384,5,
4830.55,6.00769,7.69644,2.422,16.7411,384,5,
4830.56,6.0083,7.69492,2.422,16.7411,384,5,
4830.56,6.01227,7.69644,2.422,16.7411,384,5,
4830.56,6.01288,7.70865,2.422,16.7411,384,5,
4830.56,6.01227,7.7117,2.422,16.7411,384,5,
4830.56,6.01715,7.70712,2.422,16.7411,384,5,
4830.57,6.01837,7.70712,2.422,16.7411,384,5,
4830.57,6.01746,7.70712,2.422,16.7411,384,5,
4830.57,6.02295,7.71017,2.422,16.7411,384,5,
4830.57,6.02295,7.70712,2.422,16.7411,384,5,
4830.57,6.02234,7.71017,2.422,16.7411,384,5,
4830.58,6.02753,7.70712,2.422,16.7411,384,5,
4830.58,6.02692,7.70865,2.422,16.7411,384,5,
4830.58,6.02722,7.72086,2.422,16.7411,384,5,
4830.58,6.03241,7.72391,2.422,16.7411,384,5,
4830.58,6.03241,7.72391,2.422,16.7411,384,5,
4830.59,6.03271,7.72391,2.422,16.7411,384,5,
4830.59,6.03729,7.72391,2.422,16.7411,384,5,
4830.59,6.0376,7.72086,2.422,16.7411,384,5,
4830.59,6.0379,7.72238,2.422,16.7411,384,5,
4830.59,6.04248,7.72238,2.422,16.7411,384,5,
4830.6,6.04218,7.72238,2.422,16.7411,384,5,
4830.6,6.04218,7.72238,2.422,16.7411,384,5,
4830.6,6.04706,7.72086,2.422,16.7411,384,5,
4830.6,6.04767,7.72391,2.422,16.7411,384,5,
4830.6,6.04706,7.73306,2.422,16.7411,384,5,
4830.61,6.05316,7.73306,2.422,16.7411,384,5,
4830.61,6.05225,7.73459,2.422,16.7411,384,5,
4830.61,6.05316,7.73611,2.422,16.7411,384,5,
4830.61,6.05804,7.73306,2.422,16.7411,384,5,
4830.61,6.05774,7.73306,2.422,16.7411,384,5,
4830.62,6.05713,7.73154,2.422,16.7411,384,5,
4830.62,6.06232,7.73306,2.422,16.7411,384,5,
4830.62,6.06201,7.73611,2.422,16.7411,384,5,
4830.62,6.06232,7.73611,2.422,16.7411,384,5,
4830.62,6.06659,7.73459,2.422,16.7411,384,5,
4830.63,6.06628,7.73306,2.422,16.7411,384,5,
4830.63,6.06873,7.73306,2.422,16.7411,384,5,
4830.63,6.07178,7.73306,2.422,16.7411,384,5,
4830.63,6.07117,7.73154,2.422,16.7411,384,5,
4830.63,6.07422,7.7468,2.422,16.7411,384,5,
4830.64,6.07666,7.74985,2.422,16.7411,384,5,
4830.64,6.07635,7.74527,2.422,16.7411,384,5,
4830.64,6.07819,7.74222,2.422,16.7411,384,5,
4830.64,6.08093,7.74985,2.422,16.7411,384,5,
4830.64,6.08124,7.74832,2.422,16.7411,384,5,
4830.65,6.0849,7.74374,2.422,16.7411,384,5,
4830.65,6.08673,7.74527,2.422,16.7411,384,5,
4830.65,6.08612,7.74832,2.422,16.7411,384,5,
4830.65,6.0907,7.74832,2.422,16.7411,384,5,
4830.65,6.091,7.74527,2.422,16.7411,384,5,
4830.66,6.0907,7.74374,2.422,16.7411,384,5,
4830.66,6.09467,7.74527,2.422,16.7411,384,5,
4830.66,6.09589,7.7468,2.422,16.7411,384,5,
4830.66,6.09558,7.74374,2.422,16.7411,384,5,
4830.66,6.09985,7.7468,2.422,16.7411,384,5,
4830.67,6.10016,7.7468,2.422,16.7411,384,5,
4830.67,6.10138,7.74832,2.422,16.7411,384,5,
4830.67,6.10535,7.7468,2.422,16.7411,384,5,
4830.67,6.10565,7.7468,2.422,16.7411,384,5,
4830.67,6.10596,7.759,2.422,16.7411,384,5,
4830.68,6.11053,7.75748,2.422,16.7411,384,5,
4830.68,6.11084,7.76053,2.422,16.7411,384,5,
4830.68,6.11023,7.759,2.422,16.7411,384,5,
4830.68,6.11572,7.76053,2.422,16.7411,384,5,
4830.68,6.11511,7.75595,2.422,16.7411,384,5,
4830.69,6.11572,7.75748,2.422,16.7411,384,5,
4830.69,6.12061,7.75748,2.422,16.7411,384,5,
4830.69,6.12061,7.75748,2.422,16.7411,384,5,
4830.69,6.12,7.75748,2.422,16.7411,384,5,
4830.69,6.12488,7.759,2.422,16.7411,384,5,
4830.7,6.12549,7.75595,2.422,16.7411,384,5,
4830.7,6.12549,7.75595,2.422,16.7411,384,5,
4830.7,6.13007,7.759,2.422,16.7411,384,5,
4830.7,6.12976,7.75442,2.422,16.7411,384,5,
4830.7,6.1319,7.759,2.422,16.7411,384,5,
4830.71,6.13525,7.759,2.422,16.7411,384,5,
4830.71,6.13525,7.759,2.422,16.7411,384,5,
4830.71,6.13708,7.76053,2.422,16.7411,384,5,
4830.71,6.13983,7.759,2.422,16.7411,384,5,
4830.71,6.13983,7.759,2.422,16.7411,384,5,
4830.72,6.14258,7.75748,2.422,16.7411,384,5,
4830.72,6.14502,7.75748,2.422,16.7411,384,5,
4830.72,6.14502,7.75748,2.422,16.7411,384,5,
4830.72,6.14441,7.75595,2.422,16.7411,384,5,
4830.72,6.15051,7.76053,2.422,16.7411,384,5,
4830.73,6.14929,7.759,2.422,16.7411,384,5,
4830.73,6.1496,7.759,2.422,16.7411,384,5,
4830.73,6.1554,7.759,2.422,16.7411,384,5,
4830.73,6.15509,7.759,2.422,16.7411,384,5,
4830.73,6.15448,7.759,2.422,16.7411,384,5,
4830.74,6.15997,7.75748,2.422,16.7411,384,5,
4830.74,6.15967,7.75595,2.422,16.7411,384,5,
4830.74,6.15967,7.759,2.422,16.7411,384,5,
4830.74,6.16516,7.75595,2.422,16.7411,384,5,
4830.74,6.16486,7.75595,2.422,16.7411,384,5,
4830.75,6.16455,7.759,2.422,16.7411,384,5,
4830.75,6.16913,7.75748,2.422,16.7411,384,5,
4830.75,6.16882,7.75595,2.422,16.7411,384,5,
4830.75,6.17004,7.75748,2.422,16.7411,384,5,
4830.75,6.1734,7.759,2.422,16.7411,384,5,
4830.76,6.17401,7.759,2.422,16.7411,384,5,
4830.76,6.17462,7.76053,2.422,16.7411,384,5,
4830.76,6.17859,7.75748,2.422,16.7411,384,5,
4830.76,6.1792,7.75595,2.422,16.7411,384,5,
4830.76,6.17981,7.75748,2.422,16.7411,384,5,
4830.77,6.18164,7.75748,2.422,16.7411,384,5,
4830.77,6.18439,7.75595,2.422,16.7411,384,5,
4830.77,6.18408,7.759,2.422,16.7411,384,5,
4830.77,6.18469,7.76205,2.422,16.7411,384,5,
4830.77,6.18958,7.75595,2.422,16.7411,384,5,
4830.78,6.18866,7.759,2.422,16.7411,384,5,
4830.78,6.18896,7.75442,2.422,16.7411,384,5,
4830.78,6.19324,7.759,2.422,16.7411,384,5,
4830.78,6.19446,7.76053,2.422,16.7411,384,5,
4830.78,6.19415,7.75748,2.422,16.7411,384,5,
4830.79,6.19598,7.75595,2.422,16.7411,384,5,
4830.79,6.19843,7.759,2.422,16.7411,384,5,
4830.79,6.19934,7.75748,2.422,16.7411,384,5,
4830.79,6.19873,7.75748,2.422,16.7411,384,5,
4830.79,6.20392,7.75595,2.422,16.7411,384,5,
4830.8,6.20331,7.759,2.422,16.7411,384,5,
4830.8,6.20392,7.76053,2.422,16.7411,384,5,
4830.8,6.20789,7.75748,2.422,16.7411,384,5,
4830.8,6.20911,7.76053,2.422,16.7411,384,5,
4830.8,6.2088,7.759,2.422,16.7411,384,5,
4830.81,6.2085,7.76053,2.422,16.7411,384,5,
4830.81,6.21368,7.75748,2.422,16.7411,384,5,
4830.81,6.21338,7.76053,2.422,16.7411,384,5,
4830.81,6.21368,7.759,2.422,16.7411,384,5,
4830.81,6.21765,7.759,2.422,16.7411,384,5,
4830.82,6.21857,7.76053,2.422,16.7411,384,5,
4830.82,6.21826,7.76053,2.422,16.7411,384,5,
4830.82,6.21857,7.759,2.422,16.7411,384,5,
4830.82,6.22375,7.7468,2.422,16.7411,384,5,
4830.82,6.22375,7.7468,2.422,16.7411,384,5,
4830.83,6.22375,7.7468,2.422,16.7411,384,5,
4830.83,6.22742,7.74527,2.422,16.7411,384,5,
4830.83,6.22894,7.74832,2.422,16.7411,384,5,
4830.83,6.22864,7.74527,2.422,16.7411,384,5,
4830.83,6.22894,7.74527,2.422,16.7411,384,5,
4830.84,6.23291,7.7468,2.422,16.7411,384,5,
4830.84,6.2326,7.74527,2.422,16.7411,384,5,
4830.84,6.23291,7.74527,2.422,16.7411,384,5,
4830.84,6.23444,7.74374,2.422,16.7411,384,5,
4830.84,6.23749,7.74832,2.422,16.7411,384,5,
4830.85,6.23779,7.74222,2.422,16.7411,384,5,
4830.85,6.23901,7.74832,2.422,16.7411,384,5,
4830.85,6.24207,7.74374,2.422,16.7411,384,5,
4830.85,6.24298,7.74527,2.422,16.7411,384,5,
4830.85,6.24298,7.74832,2.422,16.7411,384,5,
4830.86,6.24268,7.74832,2.422,16.7411,384,5,
4830.86,6.24817,7.7468,2.422,16.7411,384,5,
4830.86,6.24786,7.74985,2.422,16.7411,384,5,
4830.86,6.24786,7.7468,2.422,16.7411,384,5,
4830.86,6.24817,7.73459,2.422,16.7411,384,5,
4830.87,6.25214,7.73154,2.422,16.7411,384,5,
4830.87,6.25244,7.73459,2.422,16.7411,384,5,
4830.87,6.25305,7.73306,2.422,16.7411,384,5,
4830.87,6.25519,7.73611,2.422,16.7411,384,5,
4830.87,6.25732,7.73611,2.422,16.7411,384,5,
4830.88,6.25793,7.73459,2.422,16.7411,384,5,
4830.88,6.25671,7.73459,2.422,16.7411,384,5,
4830.88,6.2616,7.73611,2.422,16.7411,384,5,
4830.88,6.26221,7.73306,2.422,16.7411,384,5,
4830.88,6.26251,7.73611,2.422,16.7411,384,5,
4830.89,6.26251,7.73306,2.422,16.7411,384,5,
4830.89,6.26678,7.73306,2.422,16.7411,384,5,
4830.89,6.2674,7.73459,2.422,16.7411,384,5,
4830.89,6.26678,7.73459,2.422,16.7411,384,5,
4830.89,6.26709,7.72238,2.422,16.7411,384,5,
4830.9,6.27289,7.72238,2.422,16.7411,384,5,
4830.9,6.27228,7.72391,2.422,16.7411,384,5,
4830.9,6.27197,7.72086,2.422,16.7411,384,5,
4830.9,6.27258,7.72238,2.422,16.7411,384,5,
4830.9,6.27686,7.72238,2.422,16.7411,384,5,
4830.91,6.27716,7.72391,2.422,16.7411,384,5,
4830.91,6.27716,7.72238,2.422,16.7411,384,5,
4830.91,6.27655,7.72086,2.422,16.7411,384,5,
4830.91,6.28204,7.72086,2.422,16.7411,384,5,
4830.91,6.28174,7.72086,2.422,16.7411,384,5,
4830.92,6.28174,7.72086,2.422,16.7411,384,5,
4830.92,6.28204,7.71933,2.422,16.7411,384,5,
4830.92,6.28693,7.7117,2.422,16.7411,384,5,
4830.92,6.28693,7.71323,2.422,16.7411,384,5,
4830.92,6.28723,7.70865,2.422,16.7411,384,5,
4830.93,6.28693,7.70712,2.422,16.7411,384,5,
4830.93,6.29211,7.70712,2.422,16.7411,384,5,
4830.93,6.29181,7.71017,2.422,16.7411,384,5,
4830.93,6.29181,7.7117,2.422,16.7411,384,5,
4830.93,6.2915,7.70865,2.422,16.7411,384,5,
4830.94,6.29578,7.70865,2.422,16.7411,384,5,
4830.94,6.29639,7.71017,2.422,16.7411,384,5,
4830.94,6.29669,7.70865,2.422,16.7411,384,5,
4830.94,6.29669,7.70102,2.422,16.7411,384,5,
4830.94,6.29944,7.69644,2.422,19.0114,384,5,
4830.95,6.30188,7.69492,2.422,19.0114,384,5,
4830.95,6.30188,7.69797,2.422,19.0114,384,5,
4830.95,6.30157,7.69644,2.422,19.0114,384,5,
4830.95,6.30249,7.69492,2.422,19.0114,384,5,
4830.95,6.30585,7.69644,2.422,19.0114,384,5,
4830.96,6.30737,7.69949,2.422,19.0114,384,5,
4830.96,6.30676,7.69644,2.422,19.0114,384,5,
4830.96,6.30676,7.69797,2.422,19.0114,384,5,
4830.96,6.30859,7.69644,2.422,19.0114,384,5,
4830.96,6.31104,7.68423,2.422,19.0114,384,5,
4830.97,6.31195,7.68729,2.422,19.0114,384,5,
4830.97,6.31165,7.68576,2.422,19.0114,384,5,
4830.97,6.31134,7.68729,2.422,19.0114,384,5,
4830.97,6.31653,7.68271,2.422,19.0114,384,5,
4830.97,6.31683,7.68576,2.422,19.0114,384,5,
4830.98,6.31653,7.68118,2.422,19.0114,384,5,
4830.98,6.31622,7.68118,2.422,19.0114,384,5,
4830.98,6.31866,7.68118,2.422,19.0114,384,5,
4830.98,6.32172,7.67355,2.422,19.0114,384,5,
4830.98,6.32233,7.67355,2.422,19.0114,384,5,
4830.99,6.32111,7.67508,2.422,19.0114,384,5,
4830.99,6.3208,7.67355,2.422,19.0114,384,5,
4830.99,6.32507,7.6705,2.422,19.0114,384,5,
4830.99,6.3266,7.67203,2.422,19.0114,384,5,
4830.99,6.3266,7.67355,2.422,19.0114,384,5,
4831,6.32599,7.67203,2.422,19.0114,384,5,
4831,6.32568,7.6705,2.422,19.0114,384,5,
4831,6.33057,7.65829,2.422,19.0114,384,5,
4831,6.33057,7.65982,2.422,19.0114,384,5,
4831,6.33118,7.65982,2.422,19.0114,384,5,
4831.01,6.33179,7.66135,2.422,19.0114,384,5,
4831.01,6.33057,7.65982,2.422,19.0114,384,5,
4831.01,6.33545,7.66135,2.422,19.0114,384,5,
4831.01,6.33636,7.65982,2.422,19.0114,384,5,
4831.01,6.33606,7.65677,2.422,19.0114,384,5,
4831.02,6.33667,7.64609,2.422,19.0114,384,5,
4831.02,6.33606,7.64609,2.422,19.0114,384,5,
4831.02,6.34064,7.64609,2.422,19.0114,384,5,
4831.02,6.34125,7.64456,2.422,19.0114,384,5,
4831.02,6.34125,7.64761,2.422,19.0114,384,5,
4831.03,6.34094,7.64609,2.422,19.0114,384,5,
4831.03,6.34125,7.64761,2.422,19.0114,384,5,
4831.03,6.34521,7.64761,2.422,19.0114,384,5,
4831.03,6.34583,7.63541,2.422,19.0114,384,5,
4831.03,6.34583,7.63541,2.422,19.0114,384,5,
4831.04,6.34583,7.63693,2.422,19.0114,384,5,
4831.04,6.34644,7.63541,2.422,19.0114,384,5,
4831.04,6.3504,7.63235,2.422,19.0114,384,5,
4831.04,6.35101,7.63541,2.422,19.0114,384,5,
4831.04,6.35101,7.63541,2.422,19.0114,384,5,
4831.05,6.3504,7.63388,2.422,19.0114,384,5,
4831.05,6.35071,7.62473,2.422,19.0114,384,5,
4831.05,6.3504,7.62167,2.422,19.0114,384,5,
4831.05,6.35071,7.62015,2.422,19.0114,384,5,
4831.05,6.35529,7.6232,2.422,19.0114,384,5,
4831.06,6.35498,7.6232,2.422,19.0114,384,5,
4831.06,6.35559,7.62167,2.422,19.0114,384,5,
4831.06,6.36078,7.62473,2.422,19.0114,384,5,
4831.06,6.36017,7.6232,2.422,19.0114,384,5,
4831.06,6.36108,7.61099,2.422,19.0114,384,5,
4831.07,6.36017,7.61099,2.422,19.0114,384,5,
4831.07,6.36047,7.60947,2.422,19.0114,384,5,
4831.07,6.36475,7.60641,2.422,19.0114,384,5,
4831.07,6.36597,7.61252,2.422,19.0114,384,5,
4831.07,6.36505,7.61099,2.422,19.0114,384,5,
4831.08,6.36536,7.60947,2.422,19.0114,384,5,
4831.08,6.36566,7.61099,2.422,19.0114,384,5,
4831.08,6.36749,7.59879,2.422,19.0114,384,5,
4831.08,6.37024,7.59879,2.422,19.0114,384,5,
4831.08,6.37054,7.60031,2.422,19.0114,384,5,
4831.09,6.37024,7.59421,2.422,19.0114,384,5,
4831.09,6.37085,7.60031,2.422,19.0114,384,5,
4831.09,6.37115,7.60031,2.422,19.0114,384,5,
4831.09,6.37512,7.60031,2.422,19.0114,384,5,
4831.09,6.37573,7.60031,2.422,19.0114,384,5,
4831.1,6.37512,7.58658,2.422,19.0114,384,5,
4831.1,6.37543,7.582,2.422,19.0114,384,5,
4831.1,6.37543,7.58963,2.422,19.0114,384,5,
4831.1,6.37909,7.58505,2.422,19.0114,384,5,
4831.1,6.38,7.58353,2.422,19.0114,384,5,
4831.11,6.38062,7.58353,2.422,19.0114,384,5,
4831.11,6.38,7.58658,2.422,19.0114,384,5,
4831.11,6.38,7.58505,2.422,19.0114,384,5,
4831.11,6.38062,7.58505,2.422,19.0114,384,5,
4831.11,6.38489,7.57285,2.422,19.0114,384,5,
4831.12,6.3855,7.5759,2.422,19.0114,384,5,
4831.12,6.38489,7.57437,2.422,19.0114,384,5,
4831.12,6.38489,7.57285,2.422,19.0114,384,5,
4831.12,6.38947,7.57285,2.422,19.0114,384,5,
4831.12,6.39008,7.57132,2.422,19.0114,384,5,
4831.13,6.39008,7.57132,2.422,19.0114,384,5,
4831.13,6.38947,7.57437,2.422,19.0114,384,5,
4831.13,6.38977,7.56674,2.422,19.0114,384,5,
4831.13,6.39008,7.56064,2.422,19.0114,384,5,
4831.13,6.39526,7.55911,2.422,19.0114,384,5,
4831.14,6.39526,7.56369,2.422,19.0114,384,5,
4831.14,6.39496,7.56064,2.422,19.0114,384,5,
4831.14,6.39526,7.56064,2.422,19.0114,384,5,
4831.14,6.39526,7.55759,2.422,19.0114,384,5,
4831.14,6.39679,7.56369,2.422,19.0114,384,5,
4831.15,6.39954,7.55911,2.422,19.0114,384,5,
4831.15,6.39954,7.55453,2.422,19.0114,384,5,
4831.15,6.40045,7.54996,2.422,19.0114,384,5,
4831.15,6.39954,7.55148,2.422,19.0114,384,5,
4831.15,6.39984,7.54691,2.422,19.0114,384,5,
4831.16,6.40411,7.54996,2.422,19.0114,384,5,
4831.16,6.40503,7.54843,2.422,19.0114,384,5,
4831.16,6.40442,7.55301,2.422,19.0114,384,5,
4831.16,6.40503,7.54996,2.422,19.0114,384,5,
4831.16,6.40442,7.54996,2.422,19.0114,384,5,
4831.17,6.40656,7.54843,2.422,19.0114,384,5,
4831.17,6.40991,7.5347,2.422,19.0114,384,5,
4831.17,6.4093,7.53622,2.422,19.0114,384,5,
4831.17,6.4093,7.53622,2.422,19.0114,384,5,
4831.17,6.40961,7.5347,2.422,19.0114,384,5,
4831.18,6.4093,7.53775,2.422,19.0114,384,5,
4831.18,6.41388,7.53622,2.422,19.0114,384,5,
4831.18,6.41418,7.53775,2.422,19.0114,384,5,
4831.18,6.41418,7.53622,2.422,19.0114,384,5,
4831.18,6.41418,7.53317,2.422,19.0114,384,5,
4831.19,6.41449,7.52402,2.422,19.0114,384,5,
4831.19,6.41388,7.52097,2.422,19.0114,384,5,
4831.19,6.41815,7.52249,2.422,19.0114,384,5,
4831.19,6.41937,7.52554,2.422,19.0114,384,5,
4831.19,6.41968,7.52554,2.422,19.0114,384,5,
4831.2,6.41968,7.52707,2.422,19.0114,384,5,
4831.2,6.41937,7.52402,2.422,19.0114,384,5,
4831.2,6.41907,7.52402,2.422,19.0114,384,5,
4831.2,6.41815,7.52402,2.422,19.0114,384,5,
4831.2,6.42334,7.52707,2.422,19.0114,384,5,
4831.21,6.42365,7.51181,2.422,19.0114,384,5,
4831.21,6.42334,7.51181,2.422,19.0114,384,5,
4831.21,6.42395,7.51334,2.422,19.0114,384,5,
4831.21,6.42426,7.51181,2.422,19.0114,384,5,
4831.21,6.42365,7.51181,2.422,19.0114,384,5,
4831.22,6.42853,7.51181,2.422,19.0114,384,5,
4831.22,6.42944,7.51181,2.422,19.0114,384,5,
4831.22,6.42883,7.51028,2.422,19.0114,384,5,
4831.22,6.42914,7.51334,2.422,19.0114,384,5,
4831.22,6.42944,7.50418,2.422,19.0114,384,5,
4831.23,6.42944,7.49808,2.422,19.0114,384,5,
4831.23,6.43402,7.50265,2.422,19.0114,384,5,
4831.23,6.43341,7.49808,2.422,19.0114,384,5,
4831.23,6.43402,7.50265,2.422,19.0114,384,5,
4831.23,6.43402,7.50113,2.422,19.0114,384,5,
4831.24,6.43402,7.4996,2.422,19.0114,384,5,
4831.24,6.43402,7.49808,2.422,19.0114,384,5,
4831.24,6.4389,7.4996,2.422,19.0114,384,5,
4831.24,6.43921,7.50113,2.422,19.0114,384,5,
4831.24,6.43982,7.49045,2.422,19.0114,384,5,
4831.25,6.43982,7.48434,2.422,19.0114,384,5,
4831.25,6.43921,7.4874,2.422,19.0114,384,5,
4831.25,6.43951,7.48587,2.422,19.0114,384,5,
4831.25,6.4444,7.49045,2.422,19.0114,384,5,
4831.25,6.4444,7.49045,2.422,19.0114,384,5,
4831.26,6.4444,7.4874,2.422,19.0114,384,5,
4831.26,6.44409,7.48282,2.422,19.0114,384,5,
4831.26,6.44379,7.48892,2.422,19.0114,384,5,
4831.26,6.44348,7.4874,2.422,19.0114,384,5,
4831.26,6.44836,7.48129,2.422,19.0114,384,5,
4831.27,6.44928,7.47671,2.422,19.0114,384,5,
4831.27,6.44897,7.47671,2.422,19.0114,384,5,
4831.27,6.44928,7.47824,2.422,19.0114,384,5,
4831.27,6.44867,7.47671,2.422,19.0114,384,5,
4831.27,6.44836,7.47824,2.422,19.0114,384,5,
4831.28,6.44989,7.47824,2.422,19.0114,384,5,
4831.28,6.45386,7.47519,2.422,19.0114,384,5,
4831.28,6.45294,7.47519,2.422,19.0114,384,5,
4831.28,6.45325,7.47977,2.422,19.0114,384,5,
4831.28,6.45325,7.47519,2.422,19.0114,384,5,
4831.29,6.45325,7.46756,2.422,19.0114,384,5,
4831.29,6.45355,7.46146,2.422,19.0114,384,5,
4831.29,6.45874,7.46146,2.422,19.0114,384,5,
4831.29,6.45844,7.46451,2.422,19.0114,384,5,
4831.29,6.45844,7.46298,2.422,19.0114,384,5,
4831.3,6.45782,7.46298,2.422,19.0114,384,5,
4831.3,6.45905,7.46298,2.422,19.0114,384,5,
4831.3,6.45844,7.46603,2.422,19.0114,384,5,
4831.3,6.4621,7.46146,2.422,19.0114,384,5,
4831.3,6.46332,7.46298,2.422,19.0114,384,5,
4831.31,6.46332,7.45688,2.422,19.0114,384,5,
4831.31,6.4624,7.45383,2.422,19.0114,384,5,
4831.31,6.46271,7.45078,2.422,19.0114,384,5,
4831.31,6.46301,7.45078,2.422,19.0114,384,5,
4831.31,6.46301,7.4523,2.422,19.0114,384,5,
4831.32,6.4682,7.44925,2.422,19.0114,384,5,
4831.32,6.4682,7.44925,2.422,19.0114,384,5,
4831.32,6.46881,7.44925,2.422,19.0114,384,5,
4831.32,6.46759,7.4523,2.422,19.0114,384,5,
4831.32,6.46851,7.45383,2.422,19.0114,384,5,
4831.33,6.4679,7.4462,2.422,19.0114,384,5,
4831.33,6.4682,7.4523,2.422,19.0114,384,5,
4831.33,6.47278,7.43704,2.422,19.0114,384,5,
4831.33,6.47339,7.43857,2.422,19.0114,384,5,
4831.33,6.47308,7.43704,2.422,19.0114,384,5,
4831.34,6.47339,7.44009,2.422,19.0114,384,5,
4831.34,6.47278,7.43857,2.422,19.0114,384,5,
4831.34,6.47339,7.43704,2.422,19.0114,384,5,
4831.34,6.47308,7.43704,2.422,19.0114,384,5,
4831.34,6.47827,7.43552,2.422,19.0114,384,5,
4831.35,6.47797,7.43857,2.422,19.0114,384,5,
4831.35,6.47827,7.43857,2.422,19.0114,384,5,
4831.35,6.47766,7.43857,2.422,19.0114,384,5,
4831.35,6.47827,7.42789,2.422,19.0114,384,5,
4831.35,6.47766,7.42484,2.422,19.0114,384,5,
4831.36,6.47827,7.42941,2.422,19.0114,384,5,
4831.36,6.48224,7.42941,2.422,19.0114,384,5,
4831.36,6.48254,7.42484,2.422,19.0114,384,5,
4831.36,6.48285,7.42789,2.422,19.0114,384,5,
4831.36,6.48346,7.42636,2.422,19.0114,384,5,
4831.37,6.48346,7.42331,2.422,19.0114,384,5,
4831.37,6.48346,7.42789,2.422,19.0114,384,5,
4831.37,6.48346,7.42484,2.422,19.0114,384,5,
4831.37,6.48499,7.42636,2.422,19.0114,384,5,
4831.37,6.48712,7.42941,2.422,19.0114,384,5,
4831.38,6.48804,7.41415,2.422,19.0114,384,5,
4831.38,6.48865,7.41415,2.422,19.0114,384,5,
4831.38,6.48712,7.41568,2.422,19.0114,384,5,
4831.38,6.48834,7.41568,2.422,19.0114,384,5,
4831.38,6.48773,7.41415,2.422,19.0114,384,5,
4831.39,6.48834,7.41415,2.422,19.0114,384,5,
4831.39,6.49323,7.41263,2.422,19.0114,384,5,
4831.39,6.49323,7.41263,2.422,19.0114,384,5,
4831.39,6.49261,7.41568,2.422,19.0114,384,5,
4831.39,6.49323,7.41415,2.422,19.0114,384,5,
4831.4,6.49261,7.41568,2.422,19.0114,384,5,
4831.4,6.49261,7.41263,2.422,19.0114,384,5,
4831.4,6.49292,7.40195,2.422,19.0114,384,5,
4831.4,6.49536,7.40347,2.422,19.0114,384,5,
4831.4,6.49719,7.40195,2.422,19.0114,384,5,
4831.41,6.49719,7.40195,2.422,19.0114,384,5,
4831.41,6.4978,7.3989,2.422,19.0114,384,5,
4831.41,6.4978,7.405,2.422,19.0114,384,5,
4831.41,6.49719,7.40347,2.422,19.0114,384,5,
4831.41,6.4975,7.40042,2.422,19.0114,384,5,
4831.42,6.4978,7.40347,2.422,19.0114,384,5,
4831.42,6.50146,7.40042,2.422,19.0114,384,5,
4831.42,6.50238,7.40042,2.422,19.0114,384,5,
4831.42,6.50299,7.40347,2.422,19.0114,384,5,
4831.42,6.50269,7.40347,2.422,19.0114,384,5,
4831.43,6.50208,7.38821,2.422,19.0114,384,5,
4831.43,6.50238,7.39432,2.422,19.0114,384,5,
4831.43,6.50269,7.38669,2.422,19.0114,384,5,
4831.43,6.5033,7.38974,2.422,19.0114,384,5,
4831.43,6.50757,7.39279,2.422,19.0114,384,5,
4831.44,6.50757,7.38821,2.422,19.0114,384,5,
4831.44,6.50635,7.38974,2.422,19.0114,384,5,
4831.44,6.50787,7.38974,2.422,19.0114,384,5,
4831.44,6.50787,7.38974,2.422,19.0114,384,5,
4831.44,6.50726,7.39432,2.422,19.0114,384,5,
4831.45,6.50665,7.38669,2.422,19.0114,384,5,
4831.45,6.50726,7.38821,2.422,19.0114,384,5,
4831.45,6.51154,7.38821,2.422,19.0114,384,5,
4831.45,6.51276,7.39127,2.422,19.0114,384,5,
4831.45,6.51184,7.37753,2.422,19.0114,384,5,
4831.46,6.51215,7.37906,2.422,19.0114,384,5,
4831.46,6.51276,7.37906,2.422,19.0114,384,5,
4831.46,6.51276,7.38058,2.422,19.0114,384,5,
4831.46,6.51184,7.37906,2.422,19.0114,384,5,
4831.46,6.51215,7.37906,2.422,19.0114,384,5,
4831.47,6.51733,7.37753,2.422,19.0114,384,5,
4831.47,6.51733,7.37601,2.422,19.0114,384,5,
4831.47,6.51794,7.37448,2.422,19.0114,384,5,
4831.47,6.51764,7.37448,2.422,19.0114,384,5,
4831.47,6.51703,7.37906,2.422,19.0114,384,5,
4831.48,6.51733,7.37448,2.422,19.0114,384,5,
4831.48,6.51703,7.37753,2.422,19.0114,384,5,
4831.48,6.51703,7.37753,2.422,19.0114,384,5,
4831.48,6.51917,7.37296,2.422,19.0114,384,5,
4831.48,6.52222,7.36685,2.422,19.0114,384,5,
4831.49,6.52252,7.36533,2.422,19.0114,384,5,
4831.49,6.52191,7.3638,2.422,19.0114,384,5,
4831.49,6.52191,7.3638,2.422,19.0114,384,5,
4831.49,6.52191,7.3638,2.422,19.0114,384,5,
4831.49,6.52222,7.36533,2.422,19.0114,384,5,
4831.5,6.52191,7.36533,2.422,19.0114,384,5,
4831.5,6.52191,7.36533,2.422,19.0114,384,5,
4831.5,6.52588,7.3638,2.422,19.0114,384,5,
4831.5,6.52649,7.36227,2.422,19.0114,384,5,
4831.5,6.5271,7.3638,2.422,19.0114,384,5,
4831.51,6.5274,7.36533,2.422,19.0114,384,5,
4831.51,6.5274,7.3638,2.422,19.0114,384,5,
4831.51,6.5274,7.36685,2.422,19.0114,384,5,
4831.51,6.5271,7.35464,2.422,19.0114,384,5,
4831.51,6.5271,7.35312,2.422,19.0114,384,5,
4831.52,6.5274,7.35464,2.422,19.0114,384,5,
4831.52,6.52924,7.35312,2.422,19.0114,384,5,
4831.52,6.53229,7.35159,2.422,19.0114,384,5,
4831.52,6.53107,7.35312,2.422,19.0114,384,5,
4831.52,6.53259,7.35464,2.422,19.0114,384,5,
4831.53,6.53168,7.35464,2.422,19.0114,384,5,
4831.53,6.53259,7.35312,2.422,19.0114,384,5,
4831.53,6.53198,7.35159,2.422,19.0114,384,5,
4831.53,6.53198,7.35464,2.422,19.0114,384,5,
4831.53,6.53259,7.35617,2.422,19.0114,384,5,
4831.54,6.53137,7.35312,2.422,19.0114,384,5,
4831.54,6.53687,7.34396,2.422,19.0114,384,5,
4831.54,6.53748,7.33786,2.422,19.0114,384,5,
4831.54,6.53656,7.33939,2.422,19.0114,384,5,
4831.54,6.53625,7.33939,2.422,19.0114,384,5,
4831.55,6.53625,7.34091,2.422,19.0114,384,5,
4831.55,6.53717,7.34091,2.422,19.0114,384,5,
4831.55,6.53625,7.34244,2.422,19.0114,384,5,
4831.55,6.53717,7.33633,2.422,19.0114,384,5,
4831.55,6.53717,7.34091,2.422,19.0114,384,5,
4831.56,6.53717,7.34244,2.422,19.0114,384,5,
4831.56,6.54205,7.34244,2.422,19.0114,384,5,
4831.56,6.54144,7.34091,2.422,19.0114,384,5,
4831.56,6.54114,7.34091,2.422,19.0114,384,5,
4831.56,6.54175,7.33481,2.422,19.0114,384,5,
4831.57,6.54205,7.32718,2.422,19.0114,384,5,
4831.57,6.54205,7.3287,2.422,19.0114,384,5,
4831.57,6.54144,7.33023,2.422,19.0114,384,5,
4831.57,6.54297,7.33176,2.422,19.0114,384,5,
4831.57,6.54083,7.33023,2.422,19.0114,384,5,
4831.58,6.54236,7.32718,2.422,19.0114,384,5,
4831.58,6.54663,7.3287,2.422,19.0114,384,5,
4831.58,6.54663,7.3287,2.422,19.0114,384,5,
4831.58,6.54694,7.32718,2.422,19.0114,384,5,
4831.58,6.54663,7.32718,2.422,19.0114,384,5,
4831.59,6.54694,7.3287,2.422,19.0114,384,5,
4831.59,6.54663,7.3287,2.422,19.0114,384,5,
4831.59,6.54663,7.3287,2.422,19.0114,384,5,
4831.59,6.54602,7.31497,2.422,19.0114,384,5,
4831.59,6.54633,7.31802,2.422,19.0114,384,5,
4831.6,6.55151,7.31345,2.422,19.0114,384,5,
4831.6,6.55151,7.31497,2.422,19.0114,384,5,
4831.6,6.55151,7.31497,2.422,19.0114,384,5,
4831.6,6.5509,7.31955,2.422,19.0114,384,5,
4831.6,6.55182,7.31802,2.422,19.0114,384,5,
4831.61,6.55121,7.3165,2.422,19.0114,384,5,
4831.61,6.55182,7.31802,2.422,19.0114,384,5,
4831.61,6.55121,7.31955,2.422,19.0114,384,5,
4831.61,6.55121,7.31802,2.422,19.0114,384,5,
4831.61,6.55182,7.3165,2.422,19.0114,384,5,
4831.62,6.55396,7.31345,2.422,19.0114,384,5,
4831.62,6.55609,7.31802,2.422,19.0114,384,5,
4831.62,6.55579,7.31802,2.422,19.0114,384,5,
4831.62,6.55701,7.30276,2.422,19.0114,384,5,
4831.62,6.55609,7.30429,2.422,19.0114,384,5,
4831.63,6.5564,7.30734,2.422,19.0114,384,5,
4831.63,6.5567,7.30582,2.422,19.0114,384,5,
4831.63,6.55701,7.30582,2.422,19.0114,384,5,
4831.63,6.55579,7.30734,2.422,19.0114,384,5,
4831.63,6.55609,7.30734,2.422,19.0114,384,5,
4831.64,6.5564,7.30124,2.422,19.0114,384,5,
4831.64,6.56067,7.30734,2.422,19.0114,384,5,
4831.64,6.56097,7.30734,2.422,19.0114,384,5,
4831.64,6.56097,7.30582,2.422,19.0114,384,5,
4831.64,6.56189,7.30124,2.422,19.0114,384,5,
4831.65,6.56097,7.30276,2.422,19.0114,384,5,
4831.65,6.56128,7.30734,2.422,19.0114,384,5,
4831.65,6.56097,7.30276,2.422,19.0114,384,5,
4831.65,6.56128,7.29361,2.422,19.0114,384,5,
4831.65,6.56158,7.29208,2.422,19.0114,384,5,
4831.66,6.56158,7.29514,2.422,19.0114,384,5,
4831.66,6.56097,7.29056,2.422,19.0114,384,5,
4831.66,6.56342,7.29361,2.422,19.0114,384,5,
4831.66,6.56586,7.29056,2.422,19.0114,384,5,
4831.66,6.56647,7.29361,2.422,19.0114,384,5,
4831.67,6.56555,7.29056,2.422,19.0114,384,5,
4831.67,6.56647,7.29361,2.422,19.0114,384,5,
4831.67,6.56586,7.29361,2.422,19.0114,384,5,
4831.67,6.56586,7.29208,2.422,19.0114,384,5,
4831.67,6.56616,7.29361,2.422,19.0114,384,5,
4831.68,6.56555,7.29056,2.422,19.0114,384,5,
4831.68,6.56586,7.29056,2.422,19.0114,384,5,
4831.68,6.56647,7.29361,2.422,19.0114,384,5,
4831.68,6.56647,7.29361,2.422,19.0114,384,5,
4831.68,6.56799,7.29361,2.422,19.0114,384,5,
4831.69,6.57135,7.27988,2.422,19.0114,384,5,
4831.69,6.57043,7.27988,2.422,19.0114,384,5,
4831.69,6.57135,7.27835,2.422,19.0114,384,5,
4831.69,6.57104,7.2814,2.422,19.0114,384,5,
4831.69,6.57104,7.27835,2.422,19.0114,384,5,
4831.7,6.57135,7.27988,2.422,19.0114,384,5,
4831.7,6.57104,7.27835,2.422,19.0114,384,5,
4831.7,6.57135,7.27988,2.422,19.0114,384,5,
4831.7,6.57135,7.27682,2.422,19.0114,384,5,
4831.7,6.57074,7.27988,2.422,19.0114,384,5,
4831.71,6.57074,7.2814,2.422,19.0114,384,5,
4831.71,6.57043,7.2814,2.422,19.0114,384,5,
4831.71,6.57562,7.28293,2.422,19.0114,384,5,
4831.71,6.57623,7.27988,2.422,19.0114,384,5,
4831.71,6.57623,7.27988,2.422,19.0114,384,5,
4831.72,6.57684,7.27988,2.422,19.0114,384,5,
4831.72,6.57654,7.27988,2.422,19.0114,384,5,
4831.72,6.57623,7.27835,2.422,19.0114,384,5,
4831.72,6.57593,7.27682,2.422,19.0114,384,5,
4831.72,6.57593,7.2753,2.422,19.0114,384,5,
4831.73,6.57593,7.2692,2.422,19.0114,384,5,
4831.73,6.57623,7.2692,2.422,19.0114,384,5,
4831.73,6.57654,7.26767,2.422,19.0114,384,5,
4831.73,6.57623,7.26767,2.422,19.0114,384,5,
4831.73,6.57776,7.26767,2.422,19.0114,384,5,
4831.74,6.58081,7.26614,2.422,19.0114,384,5,
4831.74,6.58112,7.26614,2.422,19.0114,384,5,
4831.74,6.58112,7.26614,2.422,19.0114,384,5,
4831.74,6.58081,7.26767,2.422,19.0114,384,5,
4831.74,6.5802,7.2692,2.422,19.0114,384,5,
4831.75,6.58051,7.26767,2.422,19.0114,384,5,
4831.75,6.58142,7.2692,2.422,19.0114,384,5,
4831.75,6.58081,7.26462,2.422,19.0114,384,5,
4831.75,6.58112,7.2692,2.422,19.0114,384,5,
4831.75,6.58112,7.26767,2.422,19.0114,384,5,
4831.76,6.58142,7.26767,2.422,19.0114,384,5,
4831.76,6.58081,7.26309,2.422,19.0114,384,5,
4831.76,6.58539,7.26614,2.422,19.0114,384,5,
4831.76,6.58569,7.26614,2.422,19.0114,384,5,
4831.76,6.586,7.27072,2.422,19.0114,384,5,
4831.77,6.586,7.2692,2.422,19.0114,384,5,
4831.77,6.58569,7.2692,2.422,19.0114,384,5,
4831.77,6.58539,7.27072,2.422,19.0114,384,5,
4831.77,6.586,7.27072,2.422,19.0114,384,5,
4831.77,6.58508,7.27225,2.422,19.0114,384,5,
4831.78,6.58539,7.26614,2.422,19.0114,384,5,
4831.78,6.58508,7.27072,2.422,19.0114,384,5,
4831.78,6.58691,7.25699,2.422,19.0114,384,5,
4831.78,6.586,7.25851,2.422,19.0114,384,5,
4831.78,6.59058,7.25851,2.422,19.0114,384,5,
4831.79,6.59088,7.25851,2.422,19.0114,384,5,
4831.79,6.59088,7.25394,2.422,19.0114,384,5,
4831.79,6.59027,7.25546,2.422,19.0114,384,5,
4831.79,6.59027,7.25699,2.422,19.0114,384,5,
4831.79,6.59027,7.25546,2.422,19.0114,384,5,
4831.8,6.59119,7.25394,2.422,19.0114,384,5,
4831.8,6.59027,7.25699,2.422,19.0114,384,5,
4831.8,6.59058,7.25546,2.422,19.0114,384,5,
4831.8,6.59058,7.25699,2.422,19.0114,384,5,
4831.8,6.59088,7.25699,2.422,19.0114,384,5,
4831.81,6.59119,7.25851,2.422,19.0114,384,5,
4831.81,6.59271,7.25699,2.422,19.0114,384,5,
4831.81,6.59515,7.25546,2.422,19.0114,384,5,
4831.81,6.59546,7.25546,2.422,19.0114,384,5,
4831.81,6.59576,7.26004,2.422,19.0114,384,5,
4831.82,6.59576,7.25851,2.422,19.0114,384,5,
4831.82,6.59607,7.25699,2.422,19.0114,384,5,
4831.82,6.59607,7.25546,2.422,19.0114,384,5,
4831.82,6.59515,7.25699,2.422,19.0114,384,5,
4831.82,6.59576,7.25394,2.422,19.0114,384,5,
4831.83,6.59546,7.25394,2.422,19.0114,384,5,
4831.83,6.59485,7.25851,2.422,19.0114,384,5,
4831.83,6.59546,7.25699,2.422,19.0114,384,5,
4831.83,6.59576,7.25699,2.422,19.0114,384,5,
4831.83,6.60034,7.25699,2.422,19.0114,384,5,
4831.84,6.60034,7.25394,2.422,19.0114,384,5,
4831.84,6.60034,7.25699,2.422,19.0114,384,5,
4831.84,6.60095,7.25546,2.422,19.0114,384,5,
4831.84,6.60034,7.25699,2.422,19.0114,384,5,
4831.84,6.60034,7.25546,2.422,19.0114,384,5,
4831.85,6.60034,7.25851,2.422,19.0114,384,5,
4831.85,6.60065,7.25546,2.422,19.0114,384,5,
4831.85,6.60034,7.25699,2.422,19.0114,384,5,
4831.85,6.60065,7.25546,2.422,19.0114,384,5,
4831.85,6.60095,7.25546,2.422,19.0114,384,5,
4831.86,6.60004,7.25699,2.422,19.0114,384,5,
4831.86,6.604,7.25546,2.422,19.0114,384,5,
4831.86,6.60522,7.25699,2.422,19.0114,384,5,
4831.86,6.60553,7.25546,2.422,19.0114,384,5,
4831.86,6.60614,7.26004,2.422,19.0114,384,5,
4831.87,6.60553,7.25394,2.422,19.0114,384,5,
4831.87,6.60583,7.25699,2.422,19.0114,384,5,
4831.87,6.60522,7.25699,2.422,19.0114,384,5,
4831.87,6.60492,7.25699,2.422,19.0114,384,5,
4831.87,6.60522,7.25699,2.422,19.0114,384,5,
4831.88,6.60583,7.25546,2.422,19.0114,384,5,
4831.88,6.60492,7.25851,2.422,19.0114,384,5,
4831.88,6.60583,7.25699,2.422,19.0114,384,5,
4831.88,6.60767,7.25699,2.422,19.0114,384,5,
4831.88,6.61041,7.25699,2.422,19.0114,384,5,
4831.89,6.61102,7.25699,2.422,19.0114,384,5,
4831.89,6.61041,7.26004,2.422,19.0114,384,5,
4831.89,6.61102,7.25394,2.422,19.0114,384,5,
4831.89,6.61163,7.25394,2.422,19.0114,384,5,
4831.89,6.61072,7.25394,2.422,19.0114,384,5,
4831.9,6.61102,7.25699,2.422,19.0114,384,5,
4831.9,6.61072,7.25699,2.422,19.0114,384,5,
4831.9,6.61133,7.25699,2.422,19.0114,384,5,
4831.9,6.61163,7.25546,2.422,19.0114,384,5,
4831.9,6.61041,7.25394,2.422,19.0114,384,5,
4831.91,6.61011,7.25546,2.422,19.0114,384,5,
4831.91,6.61224,7.25394,2.422,19.0114,384,5,
4831.91,6.6156,7.25699,2.422,19.0114,384,5,
4831.91,6.61499,7.25546,2.422,19.0114,384,5,
4831.91,6.61652,7.25394,2.422,19.0114,384,5,
4831.92,6.61621,7.25851,2.422,19.0114,384,5,
4831.92,6.6153,7.25546,2.422,19.0114,384,5,
4831.92,6.61499,7.25546,2.422,19.0114,384,5,
4831.92,6.6156,7.25851,2.422,19.0114,384,5,
4831.92,6.6153,7.25546,2.422,19.0114,384,5,
4831.93,6.61438,7.25546,2.422,19.0114,384,5,
4831.93,6.6153,7.25394,2.422,19.0114,384,5,
4831.93,6.61469,7.25546,2.422,19.0114,384,5,
4831.93,6.6156,7.25546,2.422,19.0114,384,5,
4831.93,6.61469,7.25394,2.422,19.0114,384,5,
4831.94,6.62018,7.25546,2.422,19.0114,384,5,
4831.94,6.61926,7.26004,2.422,19.0114,384,5,
4831.94,6.62018,7.25394,2.422,19.0114,384,5,
4831.94,6.62018,7.25546,2.422,19.0114,384,5,
4831.94,6.61987,7.25546,2.422,19.0114,384,5,
4831.95,6.61987,7.25394,2.422,19.0114,384,5,
4831.95,6.62048,7.25394,2.422,19.0114,384,5,
4831.95,6.62018,7.26767,2.422,19.0114,384,5,
4831.95,6.62048,7.26614,2.422,19.0114,384,5,
4831.95,6.61957,7.26767,2.422,19.0114,384,5,
4831.96,6.62018,7.26767,2.422,19.0114,384,5,
4831.96,6.61987,7.26767,2.422,19.0114,384,5,
4831.96,6.61987,7.26462,2.422,19.0114,384,5,
4831.96,6.62018,7.26462,2.422,19.0114,384,5,
4831.96,6.62476,7.27225,2.422,19.0114,384,5,
4831.97,6.62537,7.2692,2.422,19.0114,384,5,
4831.97,6.62476,7.27225,2.422,19.0114,384,5,
4831.97,6.62537,7.26614,2.422,19.0114,384,5,
4831.97,6.62476,7.26614,2.422,19.0114,384,5,
4831.97,6.62445,7.2692,2.422,19.0114,384,5,
4831.98,6.62506,7.26767,2.422,19.0114,384,5,
4831.98,6.62476,7.27072,2.422,19.0114,384,5,
4831.98,6.62506,7.26767,2.422,19.0114,384,5,
4831.98,6.62506,7.2692,2.422,19.0114,384,5,
4831.98,6.62476,7.26614,2.422,19.0114,384,5,
4831.99,6.62537,7.26767,2.422,19.0114,384,5,
4831.99,6.62415,7.26614,2.422,19.0114,384,5,
4831.99,6.62537,7.2692,2.422,19.0114,384,5,
4831.99,6.62872,7.27072,2.422,19.0114,384,5,
4831.99,6.62933,7.2692,2.422,19.0114,384,5,
4832,6.63025,7.26614,2.422,19.0114,384,5,
4832,6.62933,7.26767,2.422,19.0114,384,5,
4832,6.62994,7.2692,2.422,19.0114,384,5,
4832,6.62994,7.2692,2.422,19.0114,384,5,
4832,6.62933,7.26767,2.422,19.0114,384,5,
4832.01,6.62933,7.27072,2.422,19.0114,384,5,
4832.01,6.63025,7.27225,2.422,19.0114,384,5,
4832.01,6.62994,7.26614,2.422,19.0114,384,5,
4832.01,6.62994,7.26767,2.422,19.0114,384,5,
4832.01,6.62964,7.2692,2.422,19.0114,384,5,
4832.02,6.62933,7.2692,2.422,19.0114,384,5,
4832.02,6.62933,7.26614,2.422,19.0114,384,5,
4832.02,6.62994,7.26767,2.422,19.0114,384,5,
4832.02,6.63239,7.27072,2.422,19.0114,384,5,
4832.02,6.63483,7.2692,2.422,19.0114,384,5,
4832.03,6.63513,7.26767,2.422,19.0114,384,5,
4832.03,6.63544,7.2692,2.422,19.0114,384,5,
4832.03,6.63513,7.27225,2.422,19.0114,384,5,
4832.03,6.63483,7.26462,2.422,19.0114,384,5,
4832.03,6.63452,7.2692,2.422,19.0114,384,5,
4832.04,6.63513,7.27072,2.422,19.0114,384,5,
4832.04,6.63513,7.26767,2.422,19.0114,384,5,
4832.04,6.63513,7.26767,2.422,19.0114,384,5,
4832.04,6.63452,7.26462,2.422,19.0114,384,5,
4832.04,6.63483,7.2692,2.422,19.0114,384,5,
4832.05,6.63574,7.27072,2.422,19.0114,384,5,
4832.05,6.63452,7.26614,2.422,19.0114,384,5,
4832.05,6.63513,7.27682,2.422,19.0114,384,5,
4832.05,6.63452,7.2814,2.422,19.0114,384,5,
4832.05,6.6391,7.28293,2.422,19.0114,384,5,
4832.06,6.63971,7.27988,2.422,19.0114,384,5,
4832.06,6.63971,7.27835,2.422,19.0114,384,5,
4832.06,6.64032,7.28445,2.422,19.0114,384,5,
4832.06,6.63971,7.27988,2.422,19.0114,384,5,
4832.06,6.64001,7.2814,2.422,19.0114,384,5,
4832.07,6.6394,7.27988,2.422,19.0114,384,5,
4832.07,6.63971,7.27988,2.422,19.0114,384,5,
4832.07,6.64032,7.2814,2.422,19.0114,384,5,
4832.07,6.64001,7.27835,2.422,19.0114,384,5,
4832.07,6.6394,7.27988,2.422,19.0114,384,5,
4832.08,6.64001,7.27835,2.422,19.0114,384,5,
4832.08,6.64001,7.2814,2.422,19.0114,384,5,
4832.08,6.64001,7.27988,2.422,19.0114,384,5,
4832.08,6.64032,7.27682,2.422,19.0114,384,5,
4832.08,6.63971,7.27988,2.422,19.0114,384,5,
4832.09,6.6394,7.27988,2.422,19.0114,384,5,
4832.09,6.64429,7.27835,2.422,19.0114,384,5,
4832.09,6.64459,7.27988,2.422,19.0114,384,5,
4832.09,6.6449,7.2814,2.422,19.0114,384,5,
4832.09,6.64459,7.27988,2.422,19.0114,384,5,
4832.1,6.6449,7.27835,2.422,19.0114,384,5,
4832.1,6.6452,7.27988,2.422,19.0114,384,5,
4832.1,6.6449,7.27682,2.422,19.0114,384,5,
4832.1,6.64459,7.27835,2.422,19.0114,384,5,
4832.1,6.64459,7.27988,2.422,19.0114,384,5,
4832.11,6.6449,7.27835,2.422,19.0114,384,5,
4832.11,6.6449,7.27988,2.422,19.0114,384,5,
4832.11,6.64551,7.29056,2.422,19.0114,384,5,
4832.11,6.64551,7.28903,2.422,19.0114,384,5,
4832.11,6.6449,7.29056,2.422,19.0114,384,5,
4832.12,6.6449,7.29208,2.422,19.0114,384,5,
4832.12,6.6449,7.28903,2.422,19.0114,384,5,
4832.12,6.6449,7.28903,2.422,19.0114,384,5,
4832.12,6.64581,7.29208,2.422,19.0114,384,5,
4832.12,6.6452,7.29208,2.422,19.0114,384,5,
4832.13,6.6452,7.29056,2.422,19.0114,384,5,
4832.13,6.65009,7.29361,2.422,19.0114,384,5,
4832.13,6.64917,7.29056,2.422,19.0114,384,5,
4832.13,6.64917,7.29208,2.422,19.0114,384,5,
4832.13,6.64886,7.29208,2.422,19.0114,384,5,
4832.14,6.64978,7.29361,2.422,19.0114,384,5,
4832.14,6.64856,7.28903,2.422,19.0114,384,5,
4832.14,6.64978,7.29208,2.422,19.0114,384,5,
4832.14,6.65039,7.29514,2.422,19.0114,384,5,
4832.14,6.64948,7.29208,2.422,19.0114,384,5,
4832.15,6.64917,7.29361,2.422,19.0114,384,5,
4832.15,6.64978,7.29056,2.422,19.0114,384,5,
4832.15,6.64978,7.30429,2.422,19.0114,384,5,
4832.15,6.64917,7.30582,2.422,19.0114,384,5,
4832.15,6.64978,7.30429,2.422,19.0114,384,5,
4832.16,6.64948,7.30582,2.422,19.0114,384,5,
4832.16,6.64948,7.30276,2.422,19.0114,384,5,
4832.16,6.64948,7.30582,2.422,19.0114,384,5,
4832.16,6.64948,7.30734,0.734,19.0114,384,5,
4832.16,6.64886,7.30276,0.734,19.0114,384,5,
4832.17,6.64948,7.30582,0.734,19.0114,384,5,
4832.17,6.64917,7.30276,0.734,19.0114,384,5,
4832.17,6.64948,7.30887,0.734,19.0114,384,5,
4832.17,6.64917,7.30276,0.734,19.0114,384,5,
4832.17,6.64917,7.30429,0.734,19.0114,384,5,
4832.18,6.64948,7.30734,0.734,19.0114,384,5,
4832.18,6.65405,7.30124,0.734,19.0114,384,5,
4832.18,6.65375,7.30276,0.734,19.0114,384,5,
4832.18,6.65436,7.30276,0.734,19.0114,384,5,
4832.18,6.65405,7.31497,0.734,19.0114,384,5,
4832.19,6.65436,7.3165,0.734,19.0114,384,5,
4832.19,6.65375,7.31955,0.734,19.0114,384,5,
4832.19,6.65466,7.3165,0.734,19.0114,384,5,
4832.19,6.65527,7.3165,0.734,19.0114,384,5,
4832.19,6.65436,7.31955,0.734,19.0114,384,5,
4832.2,6.65466,7.31802,0.734,19.0114,384,5,
4832.2,6.65405,7.31802,0.734,19.0114,384,5,
4832.2,6.65436,7.31955,0.734,19.0114,384,5,
4832.2,6.65436,7.31955,0.734,19.0114,384,5,
4832.2,6.65375,7.31802,0.734,19.0114,384,5,
4832.21,6.65405,7.31497,0.734,19.0114,384,5,
4832.21,6.65527,7.3165,0.734,19.0114,384,5,
4832.21,6.65405,7.3165,0.734,19.0114,384,5,
4832.21,6.65527,7.3165,0.734,19.0114,384,5,
4832.21,6.65436,7.31802,0.734,19.0114,384,5,
4832.22,6.65436,7.3287,0.734,19.0114,384,5,
4832.22,6.65436,7.33176,0.734,19.0114,384,5,
4832.22,6.65436,7.33176,0.734,19.0114,384,5,
4832.22,6.65405,7.33023,0.734,19.0114,384,5,
4832.22,6.65436,7.33023,0.734,19.0114,384,5,
4832.23,6.65436,7.33023,0.734,19.0114,384,5,
4832.23,6.65436,7.32565,0.734,19.0114,384,5,
4832.23,6.65436,7.33023,0.734,19.0114,384,5,
4832.23,6.65405,7.33023,0.734,19.0114,384,5,
4832.23,6.65466,7.3287,0.734,19.0114,384,5,
4832.24,6.65527,7.33023,0.734,19.0114,384,5,
4832.24,6.65436,7.33176,0.734,19.0114,384,5,
4832.24,6.65436,7.3287,0.734,19.0114,384,5,
4832.24,6.65436,7.33023,0.734,19.0114,384,5,
4832.24,6.65405,7.33023,0.734,19.0114,384,5,
4832.25,6.65314,7.33939,0.734,19.0114,384,5,
4832.25,6.65436,7.33939,0.734,19.0114,384,5,
4832.25,6.65466,7.34091,0.734,19.0114,384,5,
4832.25,6.65497,7.34244,0.734,19.0114,384,5,
4832.25,6.65466,7.33939,0.734,19.0114,384,5,
4832.26,6.65436,7.34244,0.734,19.0114,384,5,
4832.26,6.65497,7.34091,0.734,19.0114,384,5,
4832.26,6.65344,7.34244,0.734,19.0114,384,5,
4832.26,6.65405,7.33939,0.734,19.0114,384,5,
4832.26,6.65436,7.33786,0.734,19.0114,384,5,
4832.27,6.65497,7.33786,0.734,19.0114,384,5,
4832.27,6.65405,7.34244,0.734,19.0114,384,5,
4832.27,6.65497,7.34244,0.734,19.0114,384,5,
4832.27,6.65405,7.34244,0.734,19.0114,384,5,
4832.27,6.65375,7.34549,0.734,19.0114,384,5,
4832.28,6.65649,7.34091,0.734,19.0114,384,5,
4832.28,6.65924,7.34244,0.734,19.0114,384,5,
4832.28,6.65955,7.34549,0.734,19.0114,384,5,
4832.28,6.65955,7.35007,0.734,19.0114,384,5,
4832.28,6.65894,7.35159,0.734,19.0114,384,5,
4832.29,6.65894,7.35464,0.734,19.0114,384,5,
4832.29,6.66016,7.35617,0.734,19.0114,384,5,
4832.29,6.65985,7.35312,0.734,19.0114,384,5,
4832.29,6.65924,7.35464,0.734,19.0114,384,5,
4832.29,6.65924,7.35159,0.734,19.0114,384,5,
4832.3,6.65985,7.35312,0.734,19.0114,384,5,
4832.3,6.65924,7.35617,0.734,19.0114,384,5,
4832.3,6.65924,7.35007,0.734,19.0114,384,5,
4832.3,6.65802,7.35464,0.734,19.0114,384,5,
4832.3,6.65894,7.35617,0.734,19.0114,384,5,
4832.31,6.65894,7.35159,0.734,19.0114,384,5,
4832.31,6.65436,7.35159,0.734,19.0114,384,5,
4832.31,6.65436,7.35464,0.734,19.0114,384,5,
4832.31,6.65466,7.35159,0.734,19.0114,384,5,
4832.31,6.65405,7.34854,0.734,19.0114,384,5,
4832.32,6.65436,7.35312,0.734,19.0114,384,5,
4832.32,6.65436,7.35464,0.734,19.0114,384,5,
4832.32,6.65436,7.35007,0.734,19.0114,384,5,
4832.32,6.65405,7.36227,0.734,19.0114,384,5,
4832.32,6.65466,7.36533,0.734,19.0114,384,5,
4832.33,6.65466,7.3638,0.734,19.0114,384,5,
4832.33,6.65405,7.36533,0.734,19.0114,384,5,
4832.33,6.65558,7.36685,0.734,19.0114,384,5,
4832.33,6.65405,7.36685,0.734,19.0114,384,5,
4832.33,6.65405,7.36227,0.734,19.0114,384,5,
4832.34,6.65466,7.36685,0.734,19.0114,384,5,
4832.34,6.65405,7.36685,0.734,19.0114,384,5,
4832.34,6.65527,7.36533,0.734,19.0114,384,5,
4832.34,6.65436,7.36685,0.734,19.0114,384,5,
4832.34,6.65405,7.36533,0.734,19.0114,384,5,
4832.35,6.65436,7.3638,0.734,19.0114,384,5,
4832.35,6.65436,7.3638,0.734,19.0114,384,5,
4832.35,6.65527,7.36533,0.734,19.0114,384,5,
4832.35,6.65405,7.36685,0.734,19.0114,384,5,
4832.35,6.65466,7.36533,0.734,19.0114,384,5,
4832.36,6.65436,7.36227,0.734,19.0114,384,5,
4832.36,6.65436,7.36685,0.734,19.0114,384,5,
4832.36,6.65527,7.36685,0.734,19.0114,384,5,
4832.36,6.65375,7.36533,0.734,19.0114,384,5,
4832.36,6.65466,7.36685,0.734,19.0114,384,5,
4832.37,6.65436,7.36533,0.734,19.0114,384,5,
4832.37,6.65497,7.3638,0.734,19.0114,384,5,
4832.37,6.65466,7.37906,0.734,19.0114,384,5,
4832.37,6.65405,7.37448,0.734,19.0114,384,5,
4832.37,6.65466,7.37906,0.734,19.0114,384,5,
4832.38,6.65405,7.37601,0.734,19.0114,384,5,
4832.38,6.65466,7.37753,0.734,19.0114,384,5,
4832.38,6.65405,7.37906,0.734,19.0114,384,5,
4832.38,6.64917,7.37601,0.734,19.0114,384,5,
4832.38,6.64948,7.37906,0.734,19.0114,384,5,
4832.39,6.65009,7.37753,0.734,19.0114,384,5,
4832.39,6.64978,7.37753,0.734,19.0114,384,5,
4832.39,6.64886,7.38058,0.734,19.0114,384,5,
4832.39,6.64978,7.37601,0.734,19.0114,384,5,
4832.39,6.64917,7.38058,0.734,19.0114,384,5,
4832.4,6.64917,7.37601,0.734,19.0114,384,5,
4832.4,6.64948,7.38058,0.734,19.0114,384,5,
4832.4,6.64978,7.37753,0.734,19.0114,384,5,
4832.4,6.64978,7.37906,0.734,19.0114,384,5,
4832.4,6.64948,7.37448,0.734,19.0114,384,5,
4832.41,6.64886,7.37448,0.734,19.0114,384,5,
4832.41,6.64978,7.37753,0.734,19.0114,384,5,
4832.41,6.64948,7.37753,0.734,19.0114,384,5,
4832.41,6.64948,7.37906,0.734,19.0114,384,5,
4832.41,6.64948,7.37753,0.734,19.0114,384,5,
4832.42,6.64917,7.37753,0.734,19.0114,384,5,
4832.42,6.64459,7.37448,0.734,19.0114,384,5,
4832.42,6.64551,7.37753,0.734,19.0114,384,5,
4832.42,6.64429,7.37753,0.734,19.0114,384,5,
4832.42,6.64429,7.38211,0.734,19.0114,384,5,
4832.43,6.6449,7.37753,0.734,19.0114,384,5,
4832.43,6.64429,7.37601,0.734,19.0114,384,5,
4832.43,6.6449,7.37753,0.734,19.0114,384,5,
4832.43,6.64429,7.37601,0.734,19.0114,384,5,
4832.43,6.6449,7.37601,0.734,19.0114,384,5,
4832.44,6.6449,7.37753,0.734,19.0114,384,5,
4832.44,6.6449,7.37601,0.734,19.0114,384,5,
4832.44,6.6449,7.37601,0.734,19.0114,384,5,
4832.44,6.6449,7.37601,0.734,19.0114,384,5,
4832.44,6.64429,7.37753,0.734,19.0114,384,5,
4832.45,6.64215,7.38821,0.734,19.0114,384,5,
4832.45,6.6394,7.39127,0.734,19.0114,384,5,
4832.45,6.63971,7.39127,0.734,19.0114,384,5,
4832.45,6.6394,7.38974,0.734,19.0114,384,5,
4832.45,6.64001,7.38974,0.734,19.0114,384,5,
4832.46,6.6391,7.38821,0.734,19.0114,384,5,
4832.46,6.63971,7.38821,0.734,19.0114,384,5,
4832.46,6.63971,7.38974,0.734,19.0114,384,5,
4832.46,6.63971,7.38821,0.734,19.0114,384,5,
4832.46,6.6391,7.39127,0.734,19.0114,384,5,
4832.47,6.63971,7.39279,0.734,19.0114,384,5,
4832.47,6.6394,7.39127,0.734,19.0114,384,5,
4832.47,6.63971,7.38821,0.734,19.0114,384,5,
4832.47,6.63971,7.39127,0.734,19.0114,384,5,
4832.47,6.63483,7.38669,0.734,19.0114,384,5,
4832.48,6.63422,7.38821,0.734,19.0114,384,5,
4832.48,6.63422,7.39127,0.734,19.0114,384,5,
4832.48,6.63452,7.38821,0.734,19.0114,384,5,
4832.48,6.63483,7.39127,0.734,19.0114,384,5,
4832.48,6.63452,7.38669,0.734,19.0114,384,5,
4832.49,6.63452,7.38974,0.734,19.0114,384,5,
4832.49,6.63483,7.38974,0.734,19.0114,384,5,
4832.49,6.63452,7.39279,0.734,19.0114,384,5,
4832.49,6.63422,7.39127,0.734,19.0114,384,5,
4832.49,6.63422,7.38974,0.734,19.0114,384,5,
4832.5,6.63483,7.38821,0.734,19.0114,384,5,
4832.5,6.63422,7.39127,0.734,19.0114,384,5,
4832.5,6.63513,7.38974,0.734,19.0114,384,5,
4832.5,6.63483,7.38821,0.734,19.0114,384,5,
4832.5,6.63483,7.39432,0.734,19.0114,384,5,
4832.51,6.63422,7.38974,0.734,19.0114,384,5,
4832.51,6.63483,7.39127,0.734,19.0114,384,5,
4832.51,6.63422,7.39279,0.734,19.0114,384,5,
4832.51,6.63452,7.39127,0.734,19.0114,384,5,
4832.51,6.63422,7.38974,0.734,19.0114,384,5,
4832.52,6.63544,7.38821,0.734,19.0114,384,5,
4832.52,6.63452,7.38669,0.734,19.0114,384,5,
4832.52,6.63452,7.39127,0.734,19.0114,384,5,
4832.52,6.63483,7.39127,0.734,19.0114,384,5,
4832.52,6.63452,7.38974,0.734,19.0114,384,5,
4832.53,6.63086,7.38669,0.734,19.0114,384,5,
4832.53,6.62537,7.38821,0.734,19.0114,384,5,
4832.53,6.62537,7.38821,0.734,19.0114,384,5,
4832.53,6.62537,7.38974,0.734,19.0114,384,5,
4832.53,6.62506,7.39279,0.734,19.0114,384,5,
4832.54,6.62537,7.39279,0.734,19.0114,384,5,
4832.54,6.62537,7.39127,0.734,19.0114,384,5,
4832.54,6.62445,7.38821,0.734,19.0114,384,5,
4832.54,6.62506,7.38821,0.734,19.0114,384,5,
4832.54,6.62445,7.38669,0.734,19.0114,384,5,
4832.55,6.62415,7.39432,0.734,19.0114,384,5,
4832.55,6.62476,7.38974,0.734,19.0114,384,5,
4832.55,6.62506,7.39279,0.734,19.0114,384,5,
