2000-SECPT.acq
2 msec/sample
6 channels
RSP, X, RSPEC-R
Volts
EDA, Y, PPGED-R
microsiemens
ECG R-R
Seconds
Respiration Rate
BPM
C7 - EDR
Peaks
C14 - Control
Volts
min,CH1,CH14,CH40,CH42,CH47,CH54,
,91701,91701,91701,91701,91701,91701,
61.5722,4.96857,9.99603,0,5.83544,298,5,
61.5722,4.96857,9.99603,0,5.83544,298,5,
61.5722,4.96857,9.98993,0,5.83544,298,5,
61.5723,4.97314,9.99756,0,5.83544,298,5,
61.5723,4.97406,10.0052,0,5.83544,298,5,
61.5723,4.97467,10.0052,0,5.83544,298,5,
61.5724,4.97864,10.0037,0,5.83544,298,5,
61.5724,4.97864,10.0082,0,5.83544,298,5,
61.5724,4.97925,10.0067,0,5.83544,298,5,
61.5725,4.97986,10.0021,0,5.83544,298,5,
61.5725,4.98322,10.0204,0,5.83544,298,5,
61.5725,4.98383,10.022,0,5.83544,298,5,
61.5726,4.98352,10.0174,0,5.83544,298,5,
61.5726,4.98779,10.0159,0,5.83544,298,5,
61.5726,4.98932,10.0174,0,5.83544,298,5,
61.5727,4.98871,10.0174,0,5.83544,298,5,
61.5727,4.98871,10.0281,0,5.83544,298,5,
61.5727,4.99268,10.0296,0,5.83544,298,5,
61.5728,4.99359,10.0311,0,5.83544,298,5,
61.5728,4.99359,10.0296,0,5.83544,298,5,
61.5728,4.99664,10.0311,0,5.83544,298,5,
61.5729,4.99786,10.0418,0,5.83544,298,5,
61.5729,4.99786,10.0449,0,5.83544,298,5,
61.5729,4.99908,10.0418,0,5.83544,298,5,
61.573,5.00336,10.0433,0,5.83544,298,5,
61.573,5.00305,10.0418,0,5.83544,298,5,
61.573,5.00305,10.0449,0,5.83544,298,5,
61.5731,5.00671,10.054,0,5.83544,298,5,
61.5731,5.00824,10.054,0,5.83544,298,5,
61.5731,5.00763,10.0571,0,5.83544,298,5,
61.5732,5.00854,10.0525,0,5.83544,298,5,
61.5732,5.01282,10.054,0,5.83544,298,5,
61.5732,5.01343,10.0677,0,5.83544,298,5,
61.5733,5.01282,10.0647,0,5.83544,298,5,
61.5733,5.01404,10.0632,0,5.83544,298,5,
61.5733,5.01801,10.0647,0,5.83544,298,5,
61.5734,5.01801,10.0693,0,5.83544,298,5,
61.5734,5.0174,10.0784,0,5.83544,298,5,
61.5734,5.02258,10.08,0,5.83544,298,5,
61.5735,5.02289,10.0784,0,5.83544,298,5,
61.5735,5.0235,10.0784,0,5.83544,298,5,
61.5735,5.02228,10.0784,0,5.83544,298,5,
61.5736,5.02747,10.0861,0,5.83544,298,5,
61.5736,5.02777,10.0937,0,5.83544,298,5,
61.5736,5.02777,10.0937,0,5.83544,298,5,
61.5737,5.03082,10.0891,0,5.83544,298,5,
61.5737,5.03204,10.0952,0,5.83544,298,5,
61.5737,5.03265,10.0876,0,5.83544,298,5,
61.5738,5.03326,10.1044,0,5.83544,298,5,
61.5738,5.03784,10.1028,0,5.83544,298,5,
61.5738,5.03815,10.1013,0,5.83544,298,5,
61.5739,5.03754,10.1028,0,5.83544,298,5,
61.5739,5.03784,10.1028,0,5.83544,298,5,
61.5739,5.04211,10.112,0,5.83544,298,5,
61.574,5.04242,10.1181,0,5.83544,298,5,
61.574,5.04272,10.1181,0,5.83544,298,5,
61.574,5.047,10.112,0,5.83544,298,5,
61.5741,5.0473,10.1181,0,5.83544,298,5,
61.5741,5.0473,10.1166,0,5.83544,298,5,
61.5741,5.047,10.1257,0,5.83544,298,5,
61.5742,5.05188,10.1303,0,5.83544,298,5,
61.5742,5.0528,10.1273,0,5.83544,298,5,
61.5742,5.0528,10.1303,0,5.83544,298,5,
61.5743,5.05524,10.1273,0,5.83544,298,5,
61.5743,5.05707,10.1395,0,5.83544,298,5,
61.5743,5.05768,10.1395,0,5.83544,298,5,
61.5744,5.05829,10.1364,0,5.83544,298,5,
61.5744,5.06104,10.1395,0,5.83544,298,5,
61.5744,5.06256,10.1395,0,5.83544,298,5,
61.5745,5.06195,10.1395,0,5.83544,298,5,
61.5745,5.06256,10.1501,0,5.83544,298,5,
61.5745,5.06714,10.1517,0,5.83544,298,5,
61.5746,5.06683,10.1501,0,5.83544,298,5,
61.5746,5.06714,10.1501,0,5.83544,298,5,
61.5746,5.07111,10.1532,0,5.83544,298,5,
61.5747,5.07141,10.1501,0,5.83544,298,5,
61.5747,5.07172,10.1654,0,5.83544,298,5,
61.5747,5.07172,10.1669,0,5.83544,298,5,
61.5748,5.07599,10.1654,0,5.83544,298,5,
61.5748,5.0769,10.1608,0,5.83544,298,5,
61.5748,5.07721,10.1624,0,5.83544,298,5,
61.5749,5.07721,10.1624,0,5.83544,298,5,
61.5749,5.08148,10.1791,0,5.83544,298,5,
61.5749,5.08179,10.1776,0,5.83544,298,5,
61.575,5.08087,10.1746,0,5.83544,298,5,
61.575,5.08087,10.1761,0,5.83544,298,5,
61.575,5.08606,10.173,0,5.83544,298,5,
61.5751,5.08636,10.1776,0,5.83544,298,5,
61.5751,5.08667,10.1898,0,5.83544,298,5,
61.5751,5.08698,10.1913,0,5.83544,298,5,
61.5752,5.09094,10.1898,0,5.83544,298,5,
61.5752,5.09186,10.1868,0,5.83544,298,5,
61.5752,5.09155,10.1913,0,5.83544,298,5,
61.5753,5.09125,10.1868,0,5.83544,298,5,
61.5753,5.09613,10.1898,0,5.83544,298,5,
61.5753,5.09644,10.199,0,5.83544,298,5,
61.5754,5.09583,10.2036,0,5.83544,298,5,
61.5754,5.09674,10.202,0,5.83544,298,5,
61.5754,5.10132,10.2051,0,5.83544,298,5,
61.5755,5.10162,10.199,0,5.83544,298,5,
61.5755,5.1004,10.1974,0,5.83544,298,5,
61.5755,5.10101,10.2066,0,5.83544,298,5,
61.5756,5.10437,10.2158,0,5.83544,298,5,
61.5756,5.1062,10.2097,0,5.83544,298,5,
61.5756,5.10651,10.2142,0,5.83544,298,5,
61.5757,5.1059,10.2142,0,5.83544,298,5,
61.5757,5.1059,10.2127,0,5.83544,298,5,
61.5757,5.11017,10.2112,0,5.83544,298,5,
61.5758,5.11139,10.2142,0,5.83544,298,5,
61.5758,5.11078,10.2249,0,5.83544,298,5,
61.5758,5.11047,10.2264,0,5.83544,298,5,
61.5759,5.11017,10.2234,0,5.83544,298,5,
61.5759,5.11597,10.2219,0,5.83544,298,5,
61.5759,5.11566,10.228,0,5.83544,298,5,
61.576,5.11566,10.2249,0,5.83544,298,5,
61.576,5.11505,10.2295,0,5.83544,298,5,
61.576,5.11566,10.2295,0,5.83544,298,5,
61.5761,5.11566,10.2386,0,5.83544,298,5,
61.5761,5.11993,10.2356,0,5.83544,298,5,
61.5761,5.12024,10.2356,0,5.83544,298,5,
61.5762,5.12054,10.2371,0,5.83544,298,5,
61.5762,5.12054,10.2386,0,5.83544,298,5,
61.5762,5.12054,10.2386,0,5.83544,298,5,
61.5763,5.12024,10.2402,0,5.83544,298,5,
61.5763,5.12115,10.2371,0,5.83544,298,5,
61.5763,5.12604,10.2509,0,5.83544,298,5,
61.5764,5.12512,10.2493,0,5.83544,298,5,
61.5764,5.12543,10.2509,0,5.83544,298,5,
61.5764,5.12573,10.2524,0,5.83544,298,5,
61.5765,5.12543,10.2493,0,5.83544,298,5,
61.5765,5.12512,10.2463,0,5.83544,298,5,
61.5765,5.12543,10.2493,0,5.83544,298,5,
61.5766,5.13,10.2478,0,5.83544,298,5,
61.5766,5.13031,10.2493,0,5.83544,298,5,
61.5766,5.13062,10.26,0,5.83544,298,5,
61.5767,5.13092,10.2615,0,5.83544,298,5,
61.5767,5.13062,10.2631,0,5.83544,298,5,
61.5767,5.13031,10.2615,0,5.83544,298,5,
61.5768,5.13,10.2615,0,5.83544,298,5,
61.5768,5.13,10.2631,0,5.83544,298,5,
61.5768,5.1297,10.2631,0,5.83544,298,5,
61.5769,5.13031,10.2646,0,5.83544,298,5,
61.5769,5.13092,10.2646,0,5.83544,298,5,
61.5769,5.13519,10.2722,0,5.83544,298,5,
61.577,5.1358,10.2722,0,5.83544,298,5,
61.577,5.13458,10.2753,0,5.83544,298,5,
61.577,5.13489,10.2753,0,5.83544,298,5,
61.5771,5.1355,10.2737,0,5.83544,298,5,
61.5771,5.13428,10.2737,0,5.83544,298,5,
61.5771,5.13489,10.2753,0,5.83544,298,5,
61.5772,5.13489,10.2753,0,5.83544,298,5,
61.5772,5.13489,10.2737,0,5.83544,298,5,
61.5772,5.13519,10.2768,0,5.83544,298,5,
61.5773,5.1355,10.2737,0,5.83544,298,5,
61.5773,5.13519,10.286,0,5.83544,298,5,
61.5773,5.1355,10.2844,0,5.83544,298,5,
61.5774,5.1355,10.286,0,5.83544,298,5,
61.5774,5.13519,10.2829,0,5.83544,298,5,
61.5774,5.1355,10.289,0,5.83544,298,5,
61.5775,5.13611,10.2844,0,5.83544,298,5,
61.5775,5.1355,10.286,0,5.83544,298,5,
61.5775,5.13458,10.2875,0,5.83544,298,5,
61.5776,5.13458,10.286,0,5.83544,298,5,
61.5776,5.13519,10.286,0,5.83544,298,5,
61.5776,5.13519,10.2844,0,5.83544,298,5,
61.5777,5.13519,10.2951,0,5.83544,298,5,
61.5777,5.13489,10.2982,0,5.83544,298,5,
61.5777,5.13458,10.2982,0,5.83544,298,5,
61.5778,5.13519,10.3027,0,5.83544,298,5,
61.5778,5.13489,10.2966,0,5.83544,298,5,
61.5778,5.13489,10.2997,0,5.83544,298,5,
61.5779,5.13977,10.3012,0,5.83544,298,5,
61.5779,5.14038,10.2951,0,5.83544,298,5,
61.5779,5.13977,10.2997,0,5.83544,298,5,
61.578,5.14038,10.2951,0,5.83544,298,5,
61.578,5.13977,10.2982,0,5.83544,298,5,
61.578,5.14008,10.3012,0,5.83544,298,5,
61.5781,5.13947,10.2997,0,5.83544,298,5,
61.5781,5.14069,10.3012,0,5.83544,298,5,
61.5781,5.14038,10.3104,0,5.83544,298,5,
61.5782,5.14069,10.3104,0,5.83544,298,5,
61.5782,5.14038,10.3104,0,5.83544,298,5,
61.5782,5.13947,10.3073,0,5.83544,298,5,
61.5783,5.14008,10.3134,0,5.83544,298,5,
61.5783,5.14008,10.3088,0,5.83544,298,5,
61.5783,5.13977,10.3119,0,5.83544,298,5,
61.5784,5.14038,10.3104,0,5.83544,298,5,
61.5784,5.14008,10.3104,0,5.83544,298,5,
61.5784,5.14038,10.3134,0,5.83544,298,5,
61.5785,5.14038,10.3134,0,5.83544,298,5,
61.5785,5.13916,10.3088,0,5.83544,298,5,
61.5785,5.14008,10.3119,0,5.83544,298,5,
61.5786,5.13947,10.3134,0,5.83544,298,5,
61.5786,5.13977,10.3088,0,5.83544,298,5,
61.5786,5.13428,10.3119,0,5.83544,298,5,
61.5787,5.13489,10.3088,0,5.83544,298,5,
61.5787,5.1355,10.3104,0,5.83544,298,5,
61.5787,5.1355,10.321,0,5.83544,298,5,
61.5788,5.1358,10.3226,0,5.83544,298,5,
61.5788,5.13519,10.3241,0,5.83544,298,5,
61.5788,5.13489,10.321,0,5.83544,298,5,
61.5789,5.1355,10.3226,0,5.83544,298,5,
61.5789,5.1358,10.3241,0,5.83544,298,5,
61.5789,5.13275,10.3241,0,5.83544,298,5,
61.579,5.13031,10.3256,2.45,5.83544,298,5,
61.579,5.13062,10.3241,2.45,5.83544,298,5,
61.579,5.13031,10.3226,2.45,5.83544,298,5,
61.5791,5.13031,10.3226,2.45,5.83544,298,5,
61.5791,5.13092,10.3226,2.45,5.83544,298,5,
61.5791,5.13062,10.321,2.45,5.83544,298,5,
61.5792,5.13123,10.3241,2.45,5.83544,298,5,
61.5792,5.13184,10.3195,2.45,5.83544,298,5,
61.5792,5.13062,10.3226,2.45,5.83544,298,5,
61.5793,5.12604,10.321,2.45,5.83544,298,5,
61.5793,5.12543,10.3226,2.45,5.83544,298,5,
61.5793,5.12482,10.3241,2.45,5.83544,298,5,
61.5794,5.12573,10.3241,2.45,5.83544,298,5,
61.5794,5.12543,10.321,2.45,5.83544,298,5,
61.5794,5.12634,10.3256,2.45,5.83544,298,5,
61.5795,5.12604,10.321,2.45,5.83544,298,5,
61.5795,5.12573,10.321,2.45,5.83544,298,5,
61.5795,5.12268,10.3241,2.45,5.83544,298,5,
61.5796,5.12054,10.3241,2.45,5.83544,298,5,
61.5796,5.12115,10.3378,2.45,5.83544,298,5,
61.5796,5.12054,10.3348,2.45,5.83544,298,5,
61.5797,5.12115,10.3333,2.45,5.83544,298,5,
61.5797,5.12115,10.3348,2.45,5.83544,298,5,
61.5797,5.12054,10.3394,2.45,5.83544,298,5,
61.5798,5.11993,10.3394,2.45,5.83544,298,5,
61.5798,5.11627,10.3378,2.45,5.83544,298,5,
61.5798,5.11536,10.3363,2.45,5.83544,298,5,
61.5799,5.11566,10.3363,2.45,5.83544,298,5,
61.5799,5.11536,10.3348,2.45,5.83544,298,5,
61.5799,5.11536,10.3333,2.45,5.83544,298,5,
61.58,5.11627,10.3333,2.45,5.83544,298,5,
61.58,5.11261,10.3348,2.45,5.83544,298,5,
61.58,5.11078,10.3378,2.45,5.83544,298,5,
61.5801,5.11078,10.3394,2.45,5.83544,298,5,
61.5801,5.11047,10.3317,2.45,5.83544,298,5,
61.5801,5.11108,10.3348,2.45,5.83544,298,5,
61.5802,5.11078,10.3363,2.45,5.83544,298,5,
61.5802,5.11047,10.3317,2.45,5.83544,298,5,
61.5802,5.1059,10.3363,2.45,5.83544,298,5,
61.5803,5.10559,10.3378,2.45,5.83544,298,5,
61.5803,5.10559,10.3378,2.45,5.83544,298,5,
61.5803,5.10529,10.35,2.45,5.83544,298,5,
61.5804,5.1059,10.35,2.45,5.83544,298,5,
61.5804,5.1059,10.347,2.45,5.83544,298,5,
61.5804,5.10071,10.3531,2.45,5.83544,298,5,
61.5805,5.10132,10.347,2.45,5.83544,298,5,
61.5805,5.10132,10.3516,2.45,5.83544,298,5,
61.5805,5.10071,10.347,2.45,5.83544,298,5,
61.5806,5.10132,10.35,2.45,5.83544,298,5,
61.5806,5.10132,10.3485,2.45,5.83544,298,5,
61.5806,5.09644,10.347,2.45,5.83544,298,5,
61.5807,5.09552,10.347,2.45,5.83544,298,5,
61.5807,5.09613,10.3485,2.45,5.83544,298,5,
61.5807,5.09583,10.3485,2.45,5.83544,298,5,
61.5808,5.09552,10.347,2.45,5.83544,298,5,
61.5808,5.09613,10.347,2.45,5.83544,298,5,
61.5808,5.09277,10.3455,2.45,5.83544,298,5,
61.5809,5.09155,10.3485,2.45,5.83544,298,5,
61.5809,5.09094,10.347,2.45,5.83544,298,5,
61.5809,5.09125,10.3485,2.45,5.83544,298,5,
61.581,5.09155,10.3546,2.45,5.83544,298,5,
61.581,5.09094,10.3592,2.45,5.83544,298,5,
61.581,5.09125,10.3592,2.45,5.83544,298,5,
61.5811,5.08636,10.3622,2.45,5.83544,298,5,
61.5811,5.08606,10.3592,2.45,5.83544,298,5,
61.5811,5.08606,10.3577,2.45,5.83544,298,5,
61.5812,5.08667,10.3607,2.45,5.83544,298,5,
61.5812,5.08606,10.3592,2.45,5.83544,298,5,
61.5812,5.08606,10.3622,2.45,5.83544,298,5,
61.5813,5.08301,10.3592,2.45,5.83544,298,5,
61.5813,5.08209,10.3592,2.45,5.83544,298,5,
61.5813,5.08026,10.3622,2.45,5.83544,298,5,
61.5814,5.08148,10.3622,2.45,5.83544,298,5,
61.5814,5.08179,10.3592,2.45,5.83544,298,5,
61.5814,5.08179,10.3561,2.45,5.83544,298,5,
61.5815,5.08179,10.3577,2.45,5.83544,298,5,
61.5815,5.07874,10.3592,2.45,5.83544,298,5,
61.5815,5.07751,10.3622,2.45,5.83544,298,5,
61.5816,5.07721,10.3622,2.45,5.83544,298,5,
61.5816,5.07782,10.3729,2.45,5.83544,298,5,
61.5816,5.07751,10.3745,2.45,5.83544,298,5,
61.5817,5.07721,10.3729,2.45,5.83544,298,5,
61.5817,5.07721,10.3714,2.45,5.83544,298,5,
61.5817,5.07721,10.3699,2.45,5.83544,298,5,
61.5818,5.07233,10.3699,2.45,5.83544,298,5,
61.5818,5.07141,10.3745,2.45,5.83544,298,5,
61.5818,5.07294,10.3714,2.45,5.83544,298,5,
61.5819,5.07202,10.3714,2.45,5.83544,298,5,
61.5819,5.07202,10.3699,2.45,5.83544,298,5,
61.5819,5.07172,10.3714,2.45,5.83544,298,5,
61.582,5.07202,10.3729,2.45,5.83544,298,5,
61.582,5.07172,10.3714,2.45,5.83544,298,5,
61.582,5.06714,10.3745,2.45,5.83544,298,5,
61.5821,5.06683,10.3683,2.45,5.83544,298,5,
61.5821,5.06714,10.3729,2.45,5.83544,298,5,
61.5821,5.06714,10.3729,2.45,5.83544,298,5,
61.5822,5.06714,10.3851,2.45,5.83544,298,5,
61.5822,5.06653,10.3836,2.45,5.83544,298,5,
61.5822,5.06744,10.3806,2.45,5.83544,298,5,
61.5823,5.06683,10.3836,2.45,5.83544,298,5,
61.5823,5.06226,10.3821,2.45,5.83544,298,5,
61.5823,5.06195,10.3851,2.45,5.83544,298,5,
61.5824,5.06226,10.3836,2.45,5.83544,298,5,
61.5824,5.06256,10.3806,2.45,5.83544,298,5,
61.5824,5.06195,10.3836,2.45,5.83544,298,5,
61.5825,5.06287,10.3806,2.45,5.83544,298,5,
61.5825,5.06226,10.3821,2.45,5.83544,298,5,
61.5825,5.06256,10.3836,2.45,5.83544,298,5,
61.5826,5.06226,10.3836,2.45,5.83544,298,5,
61.5826,5.05737,10.3821,2.45,5.83544,298,5,
61.5826,5.05737,10.3821,2.45,5.83544,298,5,
61.5827,5.05707,10.3867,2.45,5.83544,298,5,
61.5827,5.05646,10.3912,2.45,5.83544,298,5,
61.5827,5.05676,10.3973,2.45,5.83544,298,5,
61.5828,5.05737,10.3958,2.45,5.83544,298,5,
61.5828,5.05707,10.3958,2.45,5.83544,298,5,
61.5828,5.05615,10.3958,2.45,5.83544,298,5,
61.5829,5.05737,10.3943,2.45,5.83544,298,5,
61.5829,5.05219,10.3989,2.45,5.83544,298,5,
61.5829,5.05157,10.3989,2.45,5.83544,298,5,
61.583,5.0528,10.3973,2.45,5.83544,298,5,
61.583,5.05219,10.3943,2.45,5.83544,298,5,
61.583,5.05249,10.3928,2.45,5.83544,298,5,
61.5831,5.05188,10.3989,2.45,5.83544,298,5,
61.5831,5.0528,10.3989,2.45,5.83544,298,5,
61.5831,5.05188,10.3958,2.45,5.83544,298,5,
61.5832,5.05219,10.3958,2.45,5.83544,298,5,
61.5832,5.04944,10.3973,2.45,5.83544,298,5,
61.5832,5.04761,10.3958,2.45,5.83544,298,5,
61.5833,5.0473,10.3989,2.45,5.83544,298,5,
61.5833,5.04822,10.4111,2.45,5.83544,298,5,
61.5833,5.0473,10.4065,2.45,5.83544,298,5,
61.5834,5.0473,10.4065,2.45,5.83544,298,5,
61.5834,5.047,10.408,2.45,5.83544,298,5,
61.5834,5.0473,10.4111,2.45,5.83544,298,5,
61.5835,5.0473,10.4111,2.45,5.83544,298,5,
61.5835,5.047,10.4065,2.45,5.83544,298,5,
61.5835,5.04211,10.4126,2.45,5.83544,298,5,
61.5836,5.04181,10.4065,2.45,5.83544,298,5,
61.5836,5.04272,10.4095,2.45,5.83544,298,5,
61.5836,5.04242,10.4111,2.45,5.83544,298,5,
61.5837,5.04242,10.408,2.45,5.83544,298,5,
61.5837,5.04242,10.4111,2.45,5.83544,298,5,
61.5837,5.04211,10.4065,2.45,5.83544,298,5,
61.5838,5.04242,10.4141,2.45,5.83544,298,5,
61.5838,5.03845,10.4126,2.45,5.83544,298,5,
61.5838,5.03815,10.4095,2.45,5.83544,298,5,
61.5839,5.03784,10.408,2.45,5.83544,298,5,
61.5839,5.03754,10.4111,2.45,5.83544,298,5,
61.5839,5.03784,10.4218,2.45,5.83544,298,5,
61.584,5.03754,10.4202,2.45,5.83544,298,5,
61.584,5.03784,10.4187,2.45,5.83544,298,5,
61.584,5.03815,10.4187,2.45,5.83544,298,5,
61.5841,5.03296,10.4202,2.45,5.83544,298,5,
61.5841,5.03326,10.4218,2.45,5.83544,298,5,
61.5841,5.03296,10.4233,2.45,5.83544,298,5,
61.5842,5.03326,10.4218,2.45,5.83544,298,5,
61.5842,5.03296,10.4233,2.45,5.83544,298,5,
61.5842,5.03265,10.4202,2.45,5.83544,298,5,
61.5843,5.03265,10.4202,2.45,5.83544,298,5,
61.5843,5.02838,10.4218,2.45,5.83544,298,5,
61.5843,5.02777,10.4218,2.45,5.83544,298,5,
61.5844,5.02869,10.4202,2.45,5.83544,298,5,
61.5844,5.02777,10.4218,2.45,5.83544,298,5,
61.5844,5.02808,10.4202,2.45,5.83544,298,5,
61.5845,5.02777,10.4202,2.45,5.83544,298,5,
61.5845,5.02747,10.4233,2.45,5.83544,298,5,
61.5845,5.02319,10.4187,2.45,5.83544,298,5,
61.5846,5.02289,10.4218,2.45,5.83544,298,5,
61.5846,5.02289,10.4187,2.45,5.83544,298,5,
61.5846,5.02289,10.4294,2.45,5.83544,298,5,
61.5847,5.02289,10.4324,2.45,5.83544,298,5,
61.5847,5.02319,10.4355,2.45,5.83544,298,5,
61.5847,5.01831,10.434,2.45,5.83544,298,5,
61.5848,5.01831,10.4355,2.45,5.83544,298,5,
61.5848,5.01801,10.4309,2.45,5.83544,298,5,
61.5848,5.01801,10.437,2.45,5.83544,298,5,
61.5849,5.01801,10.434,2.45,5.83544,298,5,
61.5849,5.01801,10.434,2.45,5.83544,298,5,
61.5849,5.01343,10.4324,2.45,5.83544,298,5,
61.585,5.01373,10.4355,2.45,5.83544,298,5,
61.585,5.01373,10.4324,2.45,5.83544,298,5,
61.585,5.01343,10.437,2.45,5.83544,298,5,
61.5851,5.01282,10.4324,2.45,5.83544,298,5,
61.5851,5.01282,10.434,2.45,5.83544,298,5,
61.5851,5.00885,10.434,2.45,5.83544,298,5,
61.5852,5.00763,10.4309,2.45,5.83544,298,5,
61.5852,5.00824,10.4355,2.45,5.83544,298,5,
61.5852,5.00824,10.4355,2.45,5.83544,298,5,
61.5853,5.00793,10.4309,2.45,5.83544,298,5,
61.5853,5.00793,10.437,2.45,5.83544,298,5,
61.5853,5.00397,10.434,2.45,5.83544,298,5,
61.5854,5.00336,10.4324,2.45,5.83544,298,5,
61.5854,5.00336,10.4355,2.45,5.83544,298,5,
61.5854,5.00305,10.4355,2.45,5.83544,298,5,
61.5855,5.00336,10.4309,2.45,5.83544,298,5,
61.5855,5.00397,10.4355,2.45,5.83544,298,5,
61.5855,4.99878,10.4324,2.45,5.83544,298,5,
61.5856,4.99817,10.4324,2.45,5.83544,298,5,
61.5856,4.99847,10.4324,2.45,5.83544,298,5,
61.5856,4.99786,10.4309,2.45,5.83544,298,5,
61.5857,4.99817,10.4416,2.45,5.83544,298,5,
61.5857,4.99847,10.4462,2.45,5.83544,298,5,
61.5857,4.99359,10.4462,2.45,5.83544,298,5,
61.5858,4.99359,10.4416,2.45,5.83544,298,5,
61.5858,4.99359,10.4446,2.45,5.83544,298,5,
61.5858,4.99359,10.4446,2.45,5.83544,298,5,
61.5859,4.9939,10.4431,2.45,5.83544,298,5,
61.5859,4.99329,10.4446,2.45,5.83544,298,5,
61.5859,4.99084,10.4431,2.45,5.83544,298,5,
61.586,4.9884,10.4462,2.45,5.83544,298,5,
61.586,4.98932,10.4462,2.45,5.83544,298,5,
61.586,4.98901,10.4492,2.45,5.83544,298,5,
61.5861,4.98901,10.4446,2.45,5.83544,298,5,
61.5861,4.9884,10.4477,2.45,5.83544,298,5,
61.5861,4.9881,10.4446,2.45,5.83544,298,5,
61.5862,4.98322,10.4446,2.45,5.83544,298,5,
61.5862,4.98322,10.4446,2.45,5.83544,298,5,
61.5862,4.98352,10.4416,2.45,5.83544,298,5,
61.5863,4.98352,10.4477,2.45,5.83544,298,5,
61.5863,4.98352,10.4477,2.45,5.83544,298,5,
61.5863,4.98322,10.4477,2.45,5.83544,298,5,
61.5864,4.98291,10.4462,2.45,5.83544,298,5,
61.5864,4.97833,10.4431,2.45,5.83544,298,5,
61.5864,4.97833,10.4446,2.45,5.83544,298,5,
61.5865,4.97803,10.4446,2.45,5.83544,298,5,
61.5865,4.97864,10.4462,2.45,5.83544,298,5,
61.5865,4.97864,10.4462,2.45,5.83544,298,5,
61.5866,4.97864,10.4477,2.45,5.83544,298,5,
61.5866,4.97498,10.4477,2.45,5.83544,298,5,
61.5866,4.97406,10.4446,2.45,5.83544,298,5,
61.5867,4.97375,10.4477,2.45,5.83544,298,5,
61.5867,4.97345,10.4477,2.45,5.83544,298,5,
61.5867,4.97406,10.4431,2.45,5.83544,298,5,
61.5868,4.97437,10.4462,2.45,5.83544,298,5,
61.5868,4.97375,10.4446,2.45,5.83544,298,5,
61.5868,4.97009,10.4431,2.45,5.83544,298,5,
61.5869,4.96857,10.4462,2.45,5.83544,298,5,
61.5869,4.96887,10.4477,2.45,5.83544,298,5,
61.5869,4.96826,10.4477,2.45,5.83544,298,5,
61.587,4.96918,10.4431,2.45,5.83544,298,5,
61.587,4.96887,10.4477,2.45,5.83544,298,5,
61.587,4.96857,10.4477,2.45,5.83544,298,5,
61.5871,4.9649,10.4431,2.45,5.83544,298,5,
61.5871,4.9646,10.4446,2.45,5.83544,298,5,
61.5871,4.96368,10.4446,2.45,5.83544,298,5,
61.5872,4.96429,10.4446,2.45,5.83544,298,5,
61.5872,4.96429,10.4416,2.45,5.83544,298,5,
61.5872,4.96368,10.4568,2.45,5.83544,298,5,
61.5873,4.9646,10.4599,2.45,5.83544,298,5,
61.5873,4.95972,10.4538,2.45,5.83544,298,5,
61.5873,4.95972,10.4614,2.45,5.83544,298,5,
61.5874,4.95972,10.4584,2.45,5.83544,298,5,
61.5874,4.95972,10.4614,2.45,5.83544,298,5,
61.5874,4.95911,10.4553,2.45,5.83544,298,5,
61.5875,4.9588,10.4568,2.45,5.83544,298,5,
61.5875,4.95911,10.4599,2.45,5.83544,298,5,
61.5875,4.95575,10.4568,2.45,5.83544,298,5,
61.5876,4.95392,10.4599,2.45,5.83544,298,5,
61.5876,4.95453,10.4584,2.45,5.83544,298,5,
61.5876,4.95422,10.4568,2.45,5.83544,298,5,
61.5877,4.95453,10.4568,2.45,5.83544,298,5,
61.5877,4.95392,10.4584,2.45,5.83544,298,5,
61.5877,4.95392,10.4599,2.45,5.83544,298,5,
61.5878,4.95392,10.4614,2.45,5.83544,298,5,
61.5878,4.94904,10.4568,2.45,5.83544,298,5,
61.5878,4.94965,10.4599,2.45,5.83544,298,5,
61.5879,4.94934,10.4584,2.45,5.83544,298,5,
61.5879,4.94934,10.4599,2.45,5.83544,298,5,
61.5879,4.94965,10.4568,2.45,5.83544,298,5,
61.588,4.94904,10.4584,2.45,5.83544,298,5,
61.588,4.94934,10.4553,2.45,5.83544,298,5,
61.588,4.94934,10.4599,2.45,5.83544,298,5,
61.5881,4.94446,10.4584,2.45,5.83544,298,5,
61.5881,4.94415,10.4599,2.45,5.83544,298,5,
61.5881,4.94415,10.4599,2.45,5.83544,298,5,
61.5882,4.94446,10.4568,2.45,5.83544,298,5,
61.5882,4.94446,10.4584,2.45,5.83544,298,5,
61.5882,4.94415,10.4599,2.45,5.83544,298,5,
61.5883,4.94446,10.4584,2.45,5.83544,298,5,
61.5883,4.94446,10.4584,2.45,5.83544,298,5,
61.5883,4.94049,10.4568,2.45,5.83544,298,5,
61.5884,4.93896,10.4599,2.45,5.83544,298,5,
61.5884,4.94019,10.4721,2.45,5.83544,298,5,
61.5884,4.93958,10.4691,2.45,5.83544,298,5,
61.5885,4.94019,10.4691,2.45,5.83544,298,5,
61.5885,4.94019,10.4706,2.45,5.83544,298,5,
61.5885,4.93958,10.4706,2.45,5.83544,298,5,
61.5886,4.94019,10.4691,2.45,5.83544,298,5,
61.5886,4.93927,10.4675,2.45,5.83544,298,5,
61.5886,4.93896,10.4691,2.45,5.83544,298,5,
61.5887,4.93439,10.4706,2.45,5.83544,298,5,
61.5887,4.935,10.4675,2.45,5.83544,298,5,
61.5887,4.93439,10.4691,2.45,5.83544,298,5,
61.5888,4.93469,10.466,2.45,5.83544,298,5,
61.5888,4.93439,10.4691,2.45,5.83544,298,5,
61.5888,4.935,10.4706,2.45,5.83544,298,5,
61.5889,4.93469,10.4706,2.45,5.83544,298,5,
61.5889,4.93469,10.4706,2.45,5.83544,298,5,
61.5889,4.935,10.4721,2.45,5.83544,298,5,
61.589,4.93408,10.4721,2.45,5.83544,298,5,
61.589,4.9295,10.4706,2.45,5.83544,298,5,
61.589,4.92981,10.4675,2.45,5.83544,298,5,
61.5891,4.9295,10.4706,2.45,5.83544,298,5,
61.5891,4.9295,10.4706,2.45,5.83544,298,5,
61.5891,4.93042,10.4706,2.45,5.83544,298,5,
61.5892,4.9295,10.4721,2.45,5.83544,298,5,
61.5892,4.92981,10.4721,2.45,5.83544,298,5,
61.5892,4.92981,10.4721,2.45,5.83544,298,5,
61.5893,4.92981,10.4736,2.45,5.83544,298,5,
61.5893,4.9292,10.4691,2.45,5.83544,298,5,
61.5893,4.92981,10.4721,2.45,5.83544,298,5,
61.5894,4.92493,10.4675,2.45,5.83544,298,5,
61.5894,4.92462,10.4752,2.45,5.83544,298,5,
61.5894,4.92493,10.4691,2.45,5.83544,298,5,
61.5895,4.92554,10.4706,2.45,5.83544,298,5,
61.5895,4.92432,10.4691,2.45,5.83544,298,5,
61.5895,4.92554,10.4691,2.45,5.83544,298,5,
61.5896,4.92462,10.4736,2.45,5.83544,298,5,
61.5896,4.92462,10.4706,2.45,5.83544,298,5,
61.5896,4.92462,10.4721,2.45,5.83544,298,5,
61.5897,4.92493,10.4706,2.45,5.83544,298,5,
61.5897,4.92462,10.4706,2.45,5.83544,298,5,
61.5897,4.92523,10.4691,2.45,5.83544,298,5,
61.5898,4.92462,10.4706,2.45,5.83544,298,5,
61.5898,4.92096,10.4706,2.45,5.83544,298,5,
61.5898,4.92004,10.4691,2.45,5.83544,298,5,
61.5899,4.92004,10.4675,2.45,5.83544,298,5,
61.5899,4.92004,10.4706,2.45,5.83544,298,5,
61.5899,4.92096,10.4691,2.45,5.83544,298,5,
61.59,4.91974,10.4706,2.45,5.83544,298,5,
61.59,4.92004,10.4691,2.45,5.83544,298,5,
61.59,4.92004,10.4691,2.45,5.83544,298,5,
61.5901,4.92004,10.4675,2.45,5.83544,298,5,
61.5901,4.91974,10.4706,2.45,5.83544,298,5,
61.5901,4.91974,10.4691,2.45,5.83544,298,5,
61.5902,4.91943,10.4675,2.45,5.83544,298,5,
61.5902,4.91974,10.4721,2.45,5.83544,298,5,
61.5902,4.91943,10.4691,2.45,5.83544,298,5,
61.5903,4.91608,10.4721,2.45,5.83544,298,5,
61.5903,4.91486,10.4691,2.45,5.83544,298,5,
61.5903,4.91516,10.4736,2.45,5.83544,298,5,
61.5904,4.91516,10.4691,2.45,5.83544,298,5,
61.5904,4.91547,10.4706,2.45,5.83544,298,5,
61.5904,4.91516,10.4721,2.45,5.83544,298,5,
61.5905,4.91547,10.4706,2.45,5.83544,298,5,
61.5905,4.91516,10.466,2.45,5.83544,298,5,
61.5905,4.91486,10.4691,2.45,0,298,5,
61.5906,4.91425,10.4691,2.45,0,298,5,
61.5906,4.91516,10.4691,2.45,0,298,5,
61.5906,4.91547,10.4706,2.45,0,298,5,
61.5907,4.91516,10.4706,2.45,0,298,5,
61.5907,4.91516,10.4736,2.45,0,298,5,
61.5907,4.91211,10.4706,2.45,0,298,5,
61.5908,4.91028,10.4675,2.45,0,298,5,
61.5908,4.91028,10.4706,2.45,0,298,5,
61.5908,4.91028,10.4691,2.45,0,298,5,
61.5909,4.91028,10.4721,2.45,0,298,5,
61.5909,4.90997,10.4706,2.45,0,298,5,
61.5909,4.91028,10.4691,2.45,0,298,5,
61.591,4.91058,10.4706,2.45,0,298,5,
61.591,4.90906,10.4721,2.45,0,298,5,
61.591,4.91089,10.4691,2.45,0,298,5,
61.5911,4.91028,10.4706,2.45,0,298,5,
61.5911,4.90997,10.4721,2.45,0,298,5,
61.5911,4.91028,10.4675,2.45,0,298,5,
61.5912,4.90509,10.4721,2.45,0,298,5,
61.5912,4.9057,10.4706,2.45,0,298,5,
61.5912,4.90509,10.4691,2.45,0,298,5,
61.5913,4.90479,10.4706,2.45,0,298,5,
61.5913,4.9057,10.466,2.45,0,298,5,
61.5913,4.9057,10.4675,2.45,0,298,5,
61.5914,4.90601,10.4706,2.45,0,298,5,
61.5914,4.90479,10.4584,2.45,0,298,5,
61.5914,4.9054,10.4568,2.45,0,298,5,
61.5915,4.9054,10.4568,2.45,0,298,5,
61.5915,4.9054,10.4584,2.45,0,298,5,
61.5915,4.9057,10.4568,2.45,0,298,5,
61.5916,4.90021,10.4553,2.45,0,298,5,
61.5916,4.90051,10.4568,2.45,0,298,5,
61.5916,4.90082,10.4553,2.45,0,298,5,
61.5917,4.90082,10.4568,2.45,0,298,5,
61.5917,4.90051,10.4553,2.45,0,298,5,
61.5917,4.90082,10.4584,2.45,0,298,5,
61.5918,4.90051,10.4568,2.45,0,298,5,
61.5918,4.90143,10.4614,2.45,0,298,5,
61.5918,4.90082,10.4538,2.45,0,298,5,
61.5919,4.90051,10.4568,2.45,0,298,5,
61.5919,4.8999,10.4568,2.45,0,298,5,
61.5919,4.89594,10.4568,2.45,0,298,5,
61.592,4.89532,10.4568,2.45,0,298,5,
61.592,4.89563,10.4614,2.45,0,298,5,
61.592,4.89563,10.4568,2.45,0,298,5,
61.5921,4.89532,10.4584,2.45,0,298,5,
61.5921,4.89471,10.4599,2.45,0,298,5,
61.5921,4.89563,10.4584,2.45,0,298,5,
61.5922,4.89532,10.4584,2.45,0,298,5,
61.5922,4.89532,10.4568,2.45,0,298,5,
61.5922,4.89563,10.4614,2.45,0,298,5,
61.5923,4.89197,10.4584,2.45,0,298,5,
61.5923,4.89014,10.4568,2.45,0,298,5,
61.5923,4.89014,10.4477,2.45,0,298,5,
61.5924,4.89044,10.4462,2.45,0,298,5,
61.5924,4.89014,10.4462,2.45,0,298,5,
61.5924,4.89044,10.4462,2.45,0,298,5,
61.5925,4.89014,10.4477,2.45,0,298,5,
61.5925,4.89014,10.4446,2.45,0,298,5,
61.5925,4.89075,10.4431,2.45,0,298,5,
61.5926,4.89014,10.4462,2.45,0,298,5,
61.5926,4.89075,10.4462,2.45,0,298,5,
61.5926,4.88678,10.4462,2.45,0,298,5,
61.5927,4.88586,10.4446,2.45,0,298,5,
61.5927,4.88556,10.4446,2.45,0,298,5,
61.5927,4.88525,10.4462,2.45,0,298,5,
61.5928,4.88556,10.4446,2.45,0,298,5,
61.5928,4.88525,10.4431,2.45,0,298,5,
61.5928,4.88495,10.4446,2.45,0,298,5,
61.5929,4.88556,10.4446,2.45,0,298,5,
61.5929,4.88586,10.4431,2.45,0,298,5,
61.5929,4.88617,10.4462,2.45,0,298,5,
61.593,4.88556,10.4446,2.45,0,298,5,
61.593,4.88037,10.4431,2.45,0,298,5,
61.593,4.88007,10.4462,2.45,0,298,5,
61.5931,4.88037,10.4507,2.45,0,298,5,
61.5931,4.88068,10.4446,2.45,0,298,5,
61.5931,4.88068,10.4462,2.45,0,298,5,
61.5932,4.88007,10.4446,2.45,0,298,5,
61.5932,4.88068,10.4446,2.45,0,298,5,
61.5932,4.88037,10.4477,2.45,0,298,5,
61.5933,4.88037,10.4355,2.45,0,298,5,
61.5933,4.87976,10.434,2.45,0,298,5,
61.5933,4.87732,10.4309,2.45,0,298,5,
61.5934,4.87549,10.4355,2.45,0,298,5,
61.5934,4.87579,10.4355,2.45,0,298,5,
61.5934,4.87549,10.434,2.45,0,298,5,
61.5935,4.87579,10.434,2.45,0,298,5,
61.5935,4.87579,10.437,2.45,0,298,5,
61.5935,4.8761,10.4355,2.45,0,298,5,
61.5936,4.8761,10.437,2.45,0,298,5,
61.5936,4.8761,10.434,2.45,0,298,5,
61.5936,4.8761,10.4355,2.45,0,298,5,
61.5937,4.87579,10.4309,2.45,0,298,5,
61.5937,4.87152,10.4355,2.45,0,298,5,
61.5937,4.87091,10.4355,2.45,0,298,5,
61.5938,4.8703,10.4324,2.45,0,298,5,
61.5938,4.87122,10.4309,2.45,0,298,5,
61.5938,4.87122,10.434,2.45,0,298,5,
61.5939,4.87091,10.4355,2.45,0,298,5,
61.5939,4.87061,10.4324,2.45,0,298,5,
61.5939,4.87091,10.434,2.45,0,298,5,
61.594,4.87091,10.4324,2.45,0,298,5,
61.594,4.87091,10.4324,2.45,0,298,5,
61.594,4.87091,10.4355,2.45,0,298,5,
61.5941,4.86633,10.4355,2.45,0,298,5,
61.5941,4.86542,10.4355,2.45,0,298,5,
61.5941,4.86572,10.4324,2.45,0,298,5,
61.5942,4.86633,10.4218,2.45,0,298,5,
61.5942,4.86603,10.4218,2.45,0,298,5,
61.5942,4.86633,10.4202,2.45,0,298,5,
61.5943,4.86603,10.4218,2.45,0,298,5,
61.5943,4.86633,10.4202,2.45,0,298,5,
61.5943,4.86572,10.4233,2.45,0,298,5,
61.5944,4.86572,10.4218,2.45,0,298,5,
61.5944,4.86572,10.4187,2.45,0,298,5,
61.5944,4.86206,10.4202,2.45,0,298,5,
61.5945,4.86145,10.4218,2.45,0,298,5,
61.5945,4.86145,10.4233,2.45,0,298,5,
61.5945,4.86145,10.4202,2.45,0,298,5,
61.5946,4.86145,10.4202,2.45,0,298,5,
61.5946,4.86115,10.4218,2.45,0,298,5,
61.5946,4.86145,10.4248,2.45,0,298,5,
61.5947,4.86145,10.4202,2.45,0,298,5,
61.5947,4.86145,10.4218,2.45,0,298,5,
61.5947,4.86115,10.4233,2.45,0,298,5,
61.5948,4.85626,10.4187,2.45,0,298,5,
61.5948,4.85687,10.4218,2.45,0,298,5,
61.5948,4.85657,10.4202,2.45,0,298,5,
61.5949,4.85657,10.4218,2.45,0,298,5,
61.5949,4.85657,10.4172,2.45,0,298,5,
61.5949,4.85687,10.4248,2.45,0,298,5,
61.595,4.85626,10.408,2.45,0,298,5,
61.595,4.85626,10.4126,2.45,0,298,5,
61.595,4.85657,10.4095,2.45,0,298,5,
61.5951,4.85596,10.408,2.45,0,298,5,
61.5951,4.85138,10.4126,2.45,0,298,5,
61.5951,4.85168,10.4065,2.45,0,298,5,
61.5952,4.85107,10.408,2.45,0,298,5,
61.5952,4.85199,10.4111,2.45,0,298,5,
61.5952,4.85107,10.4095,2.45,0,298,5,
61.5953,4.85168,10.4141,2.45,0,298,5,
61.5953,4.85138,10.4111,2.45,0,298,5,
61.5953,4.85199,10.4095,2.45,0,298,5,
61.5954,4.85168,10.4111,2.45,0,298,5,
61.5954,4.84802,10.4111,2.45,0,298,5,
61.5954,4.84619,10.4095,2.45,0,298,5,
61.5955,4.8465,10.4111,2.45,0,298,5,
61.5955,4.84619,10.4065,2.45,0,298,5,
61.5955,4.84619,10.4095,2.45,0,298,5,
61.5956,4.8465,10.408,2.45,0,298,5,
61.5956,4.84711,10.4111,2.45,0,298,5,
61.5956,4.8468,10.408,2.45,0,298,5,
61.5957,4.8468,10.4095,2.45,0,298,5,
61.5957,4.84283,10.405,2.45,0,298,5,
61.5957,4.84161,10.3973,2.45,0,298,5,
61.5958,4.84192,10.3958,2.45,0,298,5,
61.5958,4.84131,10.3958,2.45,0,298,5,
61.5958,4.84253,10.3943,2.45,0,298,5,
61.5959,4.84161,10.3973,2.45,0,298,5,
61.5959,4.841,10.3973,2.45,0,298,5,
61.5959,4.84192,10.3989,2.45,0,298,5,
61.596,4.84161,10.3943,2.45,0,298,5,
61.596,4.83734,10.3973,2.45,0,298,5,
61.596,4.83643,10.3989,2.45,0,298,5,
61.5961,4.83582,10.3943,2.45,0,298,5,
61.5961,4.83673,10.3958,2.45,0,298,5,
61.5961,4.83734,10.3973,2.45,0,298,5,
61.5962,4.83673,10.3912,2.45,0,298,5,
61.5962,4.83643,10.3943,2.45,0,298,5,
61.5962,4.83643,10.3958,2.45,0,298,5,
61.5963,4.83643,10.3943,2.45,0,298,5,
61.5963,4.83093,10.3958,2.45,0,298,5,
61.5963,4.83154,10.3989,2.45,0,298,5,
61.5964,4.83093,10.3958,2.45,0,298,5,
61.5964,4.83185,10.3943,2.45,0,298,5,
61.5964,4.83154,10.3867,2.45,0,298,5,
61.5965,4.83185,10.3836,2.45,0,298,5,
61.5965,4.83154,10.3836,2.45,0,298,5,
61.5965,4.83124,10.3836,2.45,0,298,5,
61.5966,4.82697,10.3821,2.45,0,298,5,
61.5966,4.82666,10.3867,2.45,0,298,5,
61.5966,4.82666,10.3806,2.45,0,298,5,
61.5967,4.82666,10.3867,2.45,0,298,5,
61.5967,4.82635,10.3836,2.45,0,298,5,
61.5967,4.82697,10.3882,2.45,0,298,5,
61.5968,4.82635,10.3821,2.45,0,298,5,
61.5968,4.82666,10.3836,2.45,0,298,5,
61.5968,4.82666,10.3836,2.45,0,298,5,
61.5969,4.82208,10.3836,2.45,0,298,5,
61.5969,4.82178,10.3836,2.45,0,298,5,
61.5969,4.82208,10.3821,2.45,0,298,5,
61.597,4.82269,10.3851,2.45,0,298,5,
61.597,4.82208,10.3806,2.45,0,298,5,
61.597,4.82147,10.3699,2.45,0,298,5,
61.5971,4.82239,10.3714,2.45,0,298,5,
61.5971,4.8175,10.3699,2.45,0,298,5,
61.5971,4.8172,10.3729,2.45,0,298,5,
61.5972,4.81659,10.3729,2.45,0,298,5,
61.5972,4.8172,10.3745,2.45,0,298,5,
61.5972,4.8172,10.3714,2.45,0,298,5,
61.5973,4.8175,10.3745,2.45,0,298,5,
61.5973,4.8172,10.3729,2.45,0,298,5,
61.5973,4.81659,10.3714,2.45,0,298,5,
61.5974,4.8172,10.3729,2.45,0,298,5,
61.5974,4.81201,10.3714,2.45,0,298,5,
61.5974,4.81232,10.3729,2.45,0,298,5,
61.5975,4.81293,10.3729,2.45,0,298,5,
61.5975,4.81232,10.3699,2.45,0,298,5,
61.5975,4.81201,10.3638,2.45,0,298,5,
61.5976,4.81201,10.3622,2.45,0,298,5,
61.5976,4.81232,10.3592,2.45,0,298,5,
61.5976,4.81201,10.3592,2.45,0,298,5,
61.5977,4.80682,10.3592,2.45,0,298,5,
61.5977,4.80743,10.3622,2.45,0,298,5,
61.5977,4.80713,10.3592,2.45,0,298,5,
61.5978,4.80743,10.3577,2.45,0,298,5,
61.5978,4.80743,10.3577,2.45,0,298,5,
61.5978,4.80682,10.3577,2.45,0,298,5,
61.5979,4.80743,10.3592,2.45,0,298,5,
61.5979,4.80316,10.3592,2.45,0,298,5,
61.5979,4.80225,10.3607,2.45,0,298,5,
61.598,4.80255,10.347,2.45,0,298,5,
61.598,4.80164,10.3485,2.45,0,298,5,
61.598,4.80225,10.3439,2.45,0,298,5,
61.5981,4.80255,10.347,2.45,0,298,5,
61.5981,4.80225,10.35,2.45,0,298,5,
61.5981,4.80194,10.347,2.45,0,298,5,
61.5982,4.79828,10.3455,2.45,0,298,5,
61.5982,4.79767,10.3485,2.45,0,298,5,
61.5982,4.79736,10.3455,2.45,0,298,5,
61.5983,4.79797,10.347,2.45,0,298,5,
61.5983,4.79736,10.35,2.45,0,298,5,
61.5983,4.79736,10.3424,2.45,0,298,5,
61.5984,4.79767,10.3485,2.45,0,298,5,
61.5984,4.79736,10.347,2.45,0,298,5,
61.5984,4.79401,10.35,2.45,0,298,5,
61.5985,4.79156,10.3363,2.45,0,298,5,
61.5985,4.79248,10.3348,2.45,0,298,5,
61.5985,4.79279,10.3378,2.45,0,298,5,
61.5986,4.79187,10.3348,2.45,0,298,5,
61.5986,4.79156,10.3378,2.45,0,298,5,
61.5986,4.79187,10.3363,2.45,0,298,5,
61.5987,4.79248,10.3348,2.45,0,298,5,
61.5987,4.79248,10.3333,2.45,0,298,5,
61.5987,4.7879,10.3378,2.45,0,298,5,
61.5988,4.7876,10.3348,2.45,0,298,5,
61.5988,4.7879,10.3363,2.45,0,298,5,
61.5988,4.78821,10.3348,2.45,0,298,5,
61.5989,4.7876,10.3333,2.45,0,298,5,
61.5989,4.7879,10.3348,2.45,0,298,5,
61.5989,4.7876,10.3363,2.45,0,298,5,
61.599,4.7876,10.3226,2.45,0,298,5,
61.599,4.78271,10.3241,2.45,0,298,5,
61.599,4.78302,10.3241,2.45,0,298,5,
61.5991,4.78241,10.3195,2.45,0,298,5,
61.5991,4.78302,10.321,2.45,0,298,5,
61.5991,4.78271,10.3256,2.45,0,298,5,
61.5992,4.78302,10.3226,2.45,0,298,5,
61.5992,4.78302,10.3256,2.45,0,298,5,
61.5992,4.78302,10.3226,2.45,0,298,5,
61.5993,4.77875,10.321,2.45,0,298,5,
61.5993,4.77783,10.321,2.45,0,298,5,
61.5993,4.77814,10.3226,2.45,0,298,5,
61.5994,4.77814,10.3256,2.45,0,298,5,
61.5994,4.77753,10.3241,2.45,0,298,5,
61.5994,4.77844,10.3256,2.45,0,298,5,
61.5995,4.77844,10.3226,2.45,0,298,5,
61.5995,4.77753,10.3256,2.45,0,298,5,
61.5995,4.77295,10.3073,2.45,0,298,5,
61.5996,4.77325,10.3134,2.45,0,298,5,
61.5996,4.77264,10.3104,2.45,0,298,5,
61.5996,4.77295,10.3073,2.45,0,298,5,
61.5997,4.77295,10.3119,2.45,0,298,5,
61.5997,4.77203,10.3119,2.45,0,298,5,
61.5997,4.77295,10.3088,2.45,0,298,5,
61.5998,4.76959,10.3104,2.45,0,298,5,
61.5998,4.76807,10.3104,2.45,0,298,5,
61.5998,4.76776,10.3149,2.45,0,298,5,
61.5999,4.76807,10.3104,2.45,0,298,5,
61.5999,4.76807,10.3149,2.45,0,298,5,
61.5999,4.76807,10.3149,2.45,0,298,5,
61.6,4.76776,10.3104,2.45,0,298,5,
61.6,4.76807,10.3134,2.45,0,298,5,
61.6,4.76349,10.3104,2.45,0,298,5,
61.6001,4.76318,10.3104,2.45,0,298,5,
61.6001,4.76288,10.3119,2.45,0,298,5,
61.6001,4.76318,10.3027,2.45,0,298,5,
61.6002,4.76379,10.2982,2.45,0,298,5,
61.6002,4.76288,10.3012,2.45,0,298,5,
61.6002,4.76288,10.2997,2.45,0,298,5,
61.6003,4.758,10.2997,2.45,0,298,5,
61.6003,4.758,10.3012,2.45,0,298,5,
61.6003,4.7583,10.3012,2.45,0,298,5,
61.6004,4.7583,10.2997,2.45,0,298,5,
61.6004,4.758,10.2982,2.45,0,298,5,
61.6004,4.758,10.2982,2.45,0,298,5,
61.6005,4.758,10.2997,2.45,0,298,5,
61.6005,4.75281,10.2982,2.45,0,298,5,
61.6005,4.75342,10.2982,2.45,0,298,5,
61.6006,4.75372,10.2966,2.45,0,298,5,
61.6006,4.75342,10.2982,2.45,0,298,5,
61.6006,4.75342,10.2982,2.45,0,298,5,
61.6007,4.75372,10.2982,2.45,0,298,5,
61.6007,4.75342,10.2997,2.45,0,298,5,
61.6007,4.74762,10.2982,2.45,0,298,5,
61.6008,4.74823,10.2966,2.45,0,298,5,
61.6008,4.74915,10.2875,2.45,0,298,5,
61.6008,4.74854,10.286,2.45,0,298,5,
61.6009,4.74792,10.289,2.45,0,298,5,
61.6009,4.74823,10.2921,2.45,0,298,5,
61.6009,4.74762,10.286,2.45,0,298,5,
61.601,4.74365,10.286,2.45,0,298,5,
61.601,4.74304,10.286,2.45,0,298,5,
61.601,4.74335,10.286,2.45,0,298,5,
61.6011,4.74304,10.286,2.45,0,298,5,
61.6011,4.74335,10.2875,2.45,0,298,5,
61.6011,4.74335,10.2844,2.45,0,298,5,
61.6012,4.74304,10.286,2.45,0,298,5,
61.6012,4.73877,10.2844,2.45,0,298,5,
61.6012,4.73907,10.286,2.45,0,298,5,
61.6013,4.73816,10.286,2.45,0,298,5,
61.6013,4.73816,10.2844,2.45,0,298,5,
61.6013,4.73816,10.2844,2.45,0,298,5,
61.6014,4.73907,10.286,2.45,0,298,5,
61.6014,4.73816,10.286,2.45,0,298,5,
61.6014,4.73389,10.286,2.45,0,298,5,
61.6015,4.73328,10.2905,2.45,0,298,5,
61.6015,4.73328,10.2768,2.45,0,298,5,
61.6015,4.73389,10.2753,2.45,0,298,5,
61.6016,4.73389,10.2753,2.45,0,298,5,
61.6016,4.73419,10.2737,2.45,0,298,5,
61.6016,4.73389,10.2737,2.45,0,298,5,
61.6017,4.729,10.2737,2.45,0,298,5,
61.6017,4.72931,10.2737,2.45,0,298,5,
61.6017,4.729,10.2753,2.45,0,298,5,
61.6018,4.72839,10.2768,2.45,0,298,5,
61.6018,4.72809,10.2737,2.45,0,298,5,
61.6018,4.72931,10.2753,2.45,0,298,5,
61.6019,4.7287,10.2753,2.45,0,298,5,
61.6019,4.729,10.2737,2.45,0,298,5,
61.6019,4.72382,10.2722,2.45,0,298,5,
61.602,4.72412,10.2737,2.45,0,298,5,
61.602,4.72412,10.2722,2.45,0,298,5,
61.602,4.72321,10.2722,2.45,0,298,5,
61.6021,4.72382,10.2737,2.45,0,298,5,
61.6021,4.72443,10.2768,2.45,0,298,5,
61.6021,4.72382,10.2722,2.45,0,298,5,
61.6022,4.72321,10.2722,2.45,0,298,5,
61.6022,4.72015,10.2737,2.45,0,298,5,
61.6022,4.71924,10.2661,2.45,0,298,5,
61.6023,4.71924,10.26,2.45,0,298,5,
61.6023,4.71954,10.2615,2.45,0,298,5,
61.6023,4.71954,10.2615,2.45,0,298,5,
61.6024,4.71954,10.2631,2.45,0,298,5,
61.6024,4.71985,10.2646,2.45,0,298,5,
61.6024,4.71985,10.2615,2.45,0,298,5,
61.6025,4.71497,10.26,2.45,0,298,5,
61.6025,4.71527,10.26,2.45,0,298,5,
61.6025,4.71527,10.2615,2.45,0,298,5,
61.6026,4.71497,10.2615,2.45,0,298,5,
61.6026,4.71405,10.2646,2.45,0,298,5,
61.6026,4.71436,10.26,2.45,0,298,5,
61.6027,4.71436,10.2615,2.45,0,298,5,
61.6027,4.71466,10.26,2.45,0,298,5,
61.6027,4.71405,10.26,2.45,0,298,5,
61.6028,4.71008,10.2615,2.45,0,298,5,
61.6028,4.70917,10.26,2.45,0,298,5,
61.6028,4.70917,10.26,2.45,0,298,5,
61.6029,4.70886,10.26,2.45,0,298,5,
61.6029,4.70886,10.2615,2.45,0,298,5,
61.6029,4.71069,10.2661,2.45,0,298,5,
61.603,4.70856,10.26,2.45,0,298,5,
61.603,4.70947,10.2631,2.45,0,298,5,
61.603,4.70947,10.26,2.45,0,298,5,
61.6031,4.70978,10.2615,2.45,0,298,5,
61.6031,4.7049,10.2631,2.45,0,298,5,
61.6031,4.70428,10.2585,2.45,0,298,5,
61.6032,4.70428,10.2615,2.45,0,298,5,
61.6032,4.70398,10.2615,2.45,0,298,5,
61.6032,4.70367,10.26,2.45,0,298,5,
61.6033,4.70398,10.26,2.45,0,298,5,
61.6033,4.70367,10.2509,2.45,0,298,5,
61.6033,4.70398,10.2493,2.45,0,298,5,
61.6034,4.70428,10.2509,2.45,0,298,5,
61.6034,4.70398,10.2509,2.45,0,298,5,
61.6034,4.70459,10.2509,2.45,0,298,5,
61.6035,4.70093,10.2524,2.45,0,298,5,
61.6035,4.69971,10.2463,2.45,0,298,5,
61.6035,4.69971,10.2524,2.45,0,298,5,
61.6036,4.69971,10.2493,2.45,0,298,5,
61.6036,4.6994,10.2509,2.45,0,298,5,
61.6036,4.69971,10.2509,2.45,0,298,5,
61.6037,4.6994,10.2509,2.45,0,298,5,
61.6037,4.6994,10.2463,2.45,0,298,5,
61.6037,4.70032,10.2524,2.45,0,298,5,
61.6038,4.6991,10.2509,2.45,0,298,5,
61.6038,4.70001,10.2493,2.45,0,298,5,
61.6038,4.6994,10.2463,2.45,0,298,5,
61.6039,4.69574,10.2493,2.45,0,298,5,
61.6039,4.69452,10.2478,2.45,0,298,5,
61.6039,4.69482,10.2493,2.45,0,298,5,
61.604,4.69452,10.2493,2.45,0,298,5,
61.604,4.69452,10.2478,2.45,0,298,5,
61.604,4.69452,10.2478,2.45,0,298,5,
61.6041,4.69452,10.2478,2.45,0,298,5,
61.6041,4.69421,10.2478,2.45,0,298,5,
61.6041,4.69391,10.2493,2.45,0,298,5,
61.6042,4.69421,10.2509,2.45,0,298,5,
61.6042,4.69421,10.2463,2.45,0,298,5,
61.6042,4.69543,10.2509,2.45,0,298,5,
61.6043,4.69421,10.2493,2.45,0,298,5,
61.6043,4.68964,10.2493,2.45,0,298,5,
61.6043,4.68903,10.2478,2.45,0,298,5,
61.6044,4.68933,10.2509,2.45,0,298,5,
61.6044,4.68964,10.2509,2.45,0,298,5,
61.6044,4.68903,10.2509,2.45,0,298,5,
61.6045,4.68994,10.2478,2.45,0,298,5,
61.6045,4.68994,10.2524,2.45,0,298,5,
61.6045,4.68933,10.2509,2.45,0,298,5,
61.6046,4.68994,10.2493,2.45,0,298,5,
61.6046,4.68903,10.2509,2.45,0,298,5,
61.6046,4.68994,10.2524,2.45,0,298,5,
61.6047,4.68964,10.2524,2.45,0,298,5,
61.6047,4.68964,10.2524,2.45,0,298,5,
61.6047,4.68964,10.2509,2.45,0,298,5,
61.6048,4.68872,10.2478,2.45,0,298,5,
61.6048,4.68903,10.2493,2.45,0,298,5,
61.6048,4.69025,10.2524,2.45,0,298,5,
61.6049,4.68964,10.2493,2.45,0,298,5,
61.6049,4.68964,10.2478,2.45,0,298,5,
61.6049,4.68994,10.2478,2.45,0,298,5,
61.605,4.69025,10.2509,2.45,0,298,5,
61.605,4.68933,10.2478,2.45,0,298,5,
61.605,4.68964,10.2524,2.45,0,298,5,
61.6051,4.68964,10.2478,2.45,0,298,5,
61.6051,4.68811,10.2524,2.45,3.78358,298,5,
61.6051,4.68506,10.2509,2.45,3.78358,298,5,
61.6052,4.68506,10.2386,2.45,3.78358,298,5,
61.6052,4.68506,10.2356,2.45,3.78358,298,5,
61.6052,4.68445,10.2371,2.45,3.78358,298,5,
61.6053,4.68018,10.2386,2.45,3.78358,298,5,
61.6053,4.68018,10.2371,2.45,3.78358,298,5,
61.6053,4.67987,10.2371,2.45,3.78358,298,5,
61.6054,4.67957,10.2356,2.45,3.78358,298,5,
61.6054,4.68018,10.2371,2.45,3.78358,298,5,
61.6054,4.68079,10.2356,2.45,3.78358,298,5,
61.6055,4.67987,10.2371,2.45,3.78358,298,5,
61.6055,4.68048,10.2371,2.45,3.78358,298,5,
61.6055,4.67987,10.2402,2.45,3.78358,298,5,
61.6056,4.68018,10.2371,2.45,3.78358,298,5,
61.6056,4.67987,10.2402,2.45,3.78358,298,5,
61.6056,4.68018,10.2371,2.45,3.78358,298,5,
61.6057,4.68018,10.2371,2.45,3.78358,298,5,
61.6057,4.68018,10.2356,2.45,3.78358,298,5,
61.6057,4.68018,10.2386,2.45,3.78358,298,5,
61.6058,4.67987,10.2386,2.45,3.78358,298,5,
61.6058,4.68018,10.2356,2.45,3.78358,298,5,
61.6058,4.68018,10.2356,2.45,3.78358,298,5,
61.6059,4.67682,10.2386,2.45,3.78358,298,5,
61.6059,4.67438,10.2371,2.45,3.78358,298,5,
61.6059,4.67499,10.2402,2.45,3.78358,298,5,
61.606,4.67499,10.2356,2.45,3.78358,298,5,
61.606,4.67468,10.2356,2.45,3.78358,298,5,
61.606,4.67499,10.2386,2.45,3.78358,298,5,
61.6061,4.67499,10.2356,2.45,3.78358,298,5,
61.6061,4.67499,10.2356,2.45,3.78358,298,5,
61.6061,4.67499,10.2371,2.45,3.78358,298,5,
61.6062,4.67529,10.2356,2.45,3.78358,298,5,
61.6062,4.67529,10.2356,2.45,3.78358,298,5,
61.6062,4.67468,10.2386,2.45,3.78358,298,5,
61.6063,4.67529,10.2371,2.45,3.78358,298,5,
61.6063,4.67529,10.2386,2.45,3.78358,298,5,
61.6063,4.67468,10.2356,2.45,3.78358,298,5,
61.6064,4.67468,10.2356,2.45,3.78358,298,5,
61.6064,4.67499,10.2386,2.45,3.78358,298,5,
61.6064,4.67499,10.2341,2.45,3.78358,298,5,
61.6065,4.67529,10.2341,2.45,3.78358,298,5,
61.6065,4.67499,10.2356,2.45,3.78358,298,5,
61.6065,4.67499,10.2386,2.45,3.78358,298,5,
61.6066,4.67468,10.2386,2.45,3.78358,298,5,
61.6066,4.67438,10.2402,2.45,3.78358,298,5,
61.6066,4.67468,10.2356,2.45,3.78358,298,5,
61.6067,4.67529,10.2386,2.45,3.78358,298,5,
61.6067,4.67499,10.2386,2.45,3.78358,298,5,
61.6067,4.67499,10.2356,2.45,3.78358,298,5,
61.6068,4.67407,10.2386,2.45,3.78358,298,5,
61.6068,4.67438,10.2371,2.45,3.78358,298,5,
61.6068,4.67468,10.2402,2.45,3.78358,298,5,
61.6069,4.67468,10.2356,2.45,3.78358,298,5,
61.6069,4.67407,10.2371,2.45,3.78358,298,5,
61.6069,4.67468,10.2371,2.45,3.78358,298,5,
61.607,4.67499,10.2371,2.45,3.78358,298,5,
61.607,4.67529,10.2356,2.45,3.78358,298,5,
61.607,4.67468,10.2386,2.45,3.78358,298,5,
61.6071,4.67468,10.2371,2.45,3.78358,298,5,
61.6071,4.67407,10.2356,2.45,3.78358,298,5,
61.6071,4.67529,10.2371,2.45,3.78358,298,5,
61.6072,4.67499,10.2402,2.45,3.78358,298,5,
61.6072,4.67499,10.2371,2.45,3.78358,298,5,
61.6072,4.67529,10.2356,2.45,3.78358,298,5,
61.6073,4.67468,10.2386,2.45,3.78358,298,5,
61.6073,4.67499,10.2341,2.45,3.78358,298,5,
61.6073,4.67407,10.2356,2.45,3.78358,298,5,
61.6074,4.67468,10.2386,2.45,3.78358,298,5,
61.6074,4.67499,10.2356,2.45,3.78358,298,5,
61.6074,4.67468,10.2371,2.45,3.78358,298,5,
61.6075,4.67468,10.2371,2.45,3.78358,298,5,
61.6075,4.67499,10.2371,2.45,3.78358,298,5,
61.6075,4.6756,10.2386,2.45,3.78358,298,5,
61.6076,4.67926,10.2417,2.45,3.78358,298,5,
61.6076,4.67926,10.2356,2.45,3.78358,298,5,
61.6076,4.67987,10.2402,2.45,3.78358,298,5,
61.6077,4.67987,10.2386,2.45,3.78358,298,5,
61.6077,4.67926,10.2402,2.45,3.78358,298,5,
61.6077,4.67987,10.2402,2.45,3.78358,298,5,
61.6078,4.67987,10.2356,2.45,3.78358,298,5,
61.6078,4.67957,10.2402,2.45,3.78358,298,5,
61.6078,4.67987,10.2386,2.45,3.78358,298,5,
61.6079,4.67957,10.2371,2.45,3.78358,298,5,
61.6079,4.68018,10.2356,2.45,3.78358,298,5,
61.6079,4.67926,10.2371,2.45,3.78358,298,5,
61.608,4.67926,10.2356,2.45,3.78358,298,5,
61.608,4.68414,10.2417,2.45,3.78358,298,5,
61.608,4.68414,10.2356,2.45,3.78358,298,5,
61.6081,4.68384,10.2356,2.45,3.78358,298,5,
61.6081,4.68536,10.2386,2.45,3.78358,298,5,
61.6081,4.68414,10.2371,2.45,3.78358,298,5,
61.6082,4.68506,10.2371,2.45,3.78358,298,5,
61.6082,4.68414,10.2356,2.45,3.78358,298,5,
61.6082,4.68475,10.2402,2.45,3.78358,298,5,
61.6083,4.68475,10.2341,2.45,3.78358,298,5,
61.6083,4.68445,10.2356,2.45,3.78358,298,5,
61.6083,4.68475,10.2386,2.45,3.78358,298,5,
61.6084,4.68475,10.2356,2.45,3.78358,298,5,
61.6084,4.68475,10.2356,2.45,3.78358,298,5,
61.6084,4.68475,10.2386,2.45,3.78358,298,5,
61.6085,4.68414,10.2356,2.45,3.78358,298,5,
61.6085,4.68475,10.2371,2.45,3.78358,298,5,
61.6085,4.68445,10.2386,2.45,3.78358,298,5,
61.6086,4.68445,10.2341,2.45,3.78358,298,5,
61.6086,4.69421,10.2371,2.45,3.78358,298,5,
61.6086,4.69421,10.2386,2.22,3.78358,298,5,
61.6087,4.69452,10.2386,2.22,3.78358,298,5,
61.6087,4.69513,10.2386,2.22,3.78358,298,5,
61.6087,4.69513,10.2371,2.22,3.78358,298,5,
61.6088,4.6994,10.2356,2.22,3.78358,298,5,
61.6088,4.6994,10.2371,2.22,3.78358,298,5,
61.6088,4.6994,10.2402,2.22,3.78358,298,5,
61.6089,4.69879,10.2478,2.22,3.78358,298,5,
61.6089,4.6991,10.2509,2.22,3.78358,298,5,
61.6089,4.70001,10.2493,2.22,3.78358,298,5,
61.609,4.70398,10.2493,2.22,3.78358,298,5,
61.609,4.70459,10.2524,2.22,3.78358,298,5,
61.609,4.70428,10.2509,2.22,3.78358,298,5,
61.6091,4.70337,10.2509,2.22,3.78358,298,5,
61.6091,4.70917,10.2478,2.22,3.78358,298,5,
61.6091,4.70947,10.2509,2.22,3.78358,298,5,
61.6092,4.70856,10.2478,2.22,3.78358,298,5,
61.6092,4.70947,10.2509,2.22,3.78358,298,5,
61.6092,4.71008,10.2493,2.22,3.78358,298,5,
61.6093,4.71405,10.2524,2.22,3.78358,298,5,
61.6093,4.71405,10.2463,2.22,3.78358,298,5,
61.6093,4.71405,10.2539,2.22,3.78358,298,5,
61.6094,4.71466,10.2524,2.22,3.78358,298,5,
61.6094,4.71436,10.2524,2.22,3.78358,298,5,
61.6094,4.71405,10.2509,2.22,3.78358,298,5,
61.6095,4.71924,10.2524,2.22,3.78358,298,5,
61.6095,4.71893,10.2478,2.22,3.78358,298,5,
61.6095,4.71924,10.2509,2.22,3.78358,298,5,
61.6096,4.71893,10.2493,2.22,3.78358,298,5,
61.6096,4.71954,10.2493,2.22,3.78358,298,5,
61.6096,4.72382,10.2509,2.22,3.78358,298,5,
61.6097,4.72351,10.2509,2.22,3.78358,298,5,
61.6097,4.72351,10.2493,2.22,3.78358,298,5,
61.6097,4.72412,10.2509,2.22,3.78358,298,5,
61.6098,4.7287,10.2463,2.22,3.78358,298,5,
61.6098,4.7287,10.2509,2.22,3.78358,298,5,
61.6098,4.72931,10.2631,2.22,3.78358,298,5,
61.6099,4.73358,10.2615,2.22,3.78358,298,5,
61.6099,4.73267,10.2646,2.22,3.78358,298,5,
61.6099,4.73389,10.2631,2.22,3.78358,298,5,
61.61,4.7348,10.2585,2.22,3.78358,298,5,
61.61,4.73816,10.2646,2.22,3.78358,298,5,
61.61,4.73846,10.2631,2.22,3.78358,298,5,
61.6101,4.73846,10.2615,2.22,3.78358,298,5,
61.6101,4.73846,10.2615,2.22,3.78358,298,5,
61.6101,4.74365,10.2646,2.22,3.78358,298,5,
61.6102,4.74304,10.2631,2.22,3.78358,298,5,
61.6102,4.74365,10.26,2.22,3.78358,298,5,
61.6102,4.74304,10.2631,2.22,3.78358,298,5,
61.6103,4.74304,10.2631,2.22,3.78358,298,5,
61.6103,4.74457,10.26,2.22,3.78358,298,5,
61.6103,4.74792,10.2615,2.22,3.78358,298,5,
61.6104,4.74884,10.2615,2.22,3.78358,298,5,
61.6104,4.74823,10.2661,2.22,3.78358,298,5,
61.6104,4.75159,10.2646,2.22,3.78358,298,5,
61.6105,4.75311,10.2661,2.22,3.78358,298,5,
61.6105,4.75311,10.2737,2.22,3.78358,298,5,
61.6105,4.7525,10.2753,2.22,3.78358,298,5,
61.6106,4.75769,10.2753,2.22,3.78358,298,5,
61.6106,4.758,10.2737,2.22,3.78358,298,5,
61.6106,4.75861,10.2753,2.22,3.78358,298,5,
61.6107,4.75861,10.2737,2.22,3.78358,298,5,
61.6107,4.76257,10.2737,2.22,3.78358,298,5,
61.6107,4.76318,10.2753,2.22,3.78358,298,5,
61.6108,4.76288,10.2737,2.22,3.78358,298,5,
61.6108,4.76257,10.2753,2.22,3.78358,298,5,
61.6108,4.76318,10.2768,2.22,3.78358,298,5,
61.6109,4.76318,10.2753,2.22,3.78358,298,5,
61.6109,4.76288,10.2737,2.22,3.78358,298,5,
61.6109,4.77295,10.2768,2.22,3.78358,298,5,
61.611,4.77386,10.2737,2.22,3.78358,298,5,
61.611,4.77753,10.2783,2.22,3.78358,298,5,
61.611,4.77783,10.289,2.22,3.78358,298,5,
61.6111,4.77814,10.289,2.22,3.78358,298,5,
61.6111,4.7821,10.2905,2.22,3.78358,298,5,
61.6111,4.78302,10.2829,2.22,3.78358,298,5,
61.6112,4.78271,10.2921,2.22,3.78358,298,5,
61.6112,4.78424,10.2844,2.22,3.78358,298,5,
61.6112,4.7876,10.2875,2.22,3.78358,298,5,
61.6113,4.78882,10.2875,2.22,3.78358,298,5,
61.6113,4.78821,10.286,2.22,3.78358,298,5,
61.6113,4.78729,10.289,2.22,3.78358,298,5,
61.6114,4.7876,10.289,2.22,3.78358,298,5,
61.6114,4.7879,10.2844,2.22,3.78358,298,5,
61.6114,4.78729,10.286,2.22,3.78358,298,5,
61.6115,4.78699,10.2921,2.22,3.78358,298,5,
61.6115,4.7879,10.2997,2.22,3.78358,298,5,
61.6115,4.7879,10.2997,2.22,3.78358,298,5,
61.6116,4.7876,10.2997,2.22,3.78358,298,5,
61.6116,4.78851,10.2966,2.22,3.78358,298,5,
61.6116,4.78729,10.3012,2.22,3.78358,298,5,
61.6117,4.78729,10.2982,2.22,3.78358,298,5,
61.6117,4.78729,10.2997,2.22,3.78358,298,5,
61.6117,4.7876,10.2951,2.22,3.78358,298,5,
61.6118,4.7876,10.3012,2.22,3.78358,298,5,
61.6118,4.81201,10.2982,2.22,3.78358,298,5,
61.6118,4.81201,10.2997,2.22,3.78358,298,5,
61.6119,4.8175,10.2966,2.22,3.78358,298,5,
61.6119,4.81689,10.3012,2.22,3.78358,298,5,
61.6119,4.8172,10.3104,2.22,3.78358,298,5,
61.612,4.82239,10.3073,2.22,3.78358,298,5,
61.612,4.82269,10.3104,2.22,3.78358,298,5,
61.612,4.82269,10.3119,2.22,3.78358,298,5,
61.6121,4.82727,10.3119,2.22,3.78358,298,5,
61.6121,4.82758,10.3119,2.22,3.78358,298,5,
61.6121,4.82727,10.3134,2.22,3.78358,298,5,
61.6122,4.83154,10.3104,2.22,3.78358,298,5,
61.6122,4.83185,10.3088,2.22,3.78358,298,5,
61.6122,4.83093,10.3119,2.22,3.78358,298,5,
61.6123,4.83215,10.3104,2.22,3.78358,298,5,
61.6123,4.83124,10.3165,2.22,3.78358,298,5,
61.6123,4.83948,10.3241,2.22,3.78358,298,5,
61.6124,4.841,10.3226,2.22,3.78358,298,5,
61.6124,4.84192,10.3256,2.22,3.78358,298,5,
61.6124,4.8465,10.3226,2.22,3.78358,298,5,
61.6125,4.8465,10.321,2.22,3.78358,298,5,
61.6125,4.8465,10.3226,2.22,3.78358,298,5,
61.6125,4.84619,10.3241,2.22,3.78358,298,5,
61.6126,4.85046,10.318,2.22,3.78358,298,5,
61.6126,4.85107,10.321,2.22,3.78358,298,5,
61.6126,4.85107,10.321,2.22,3.78358,298,5,
61.6127,4.85626,10.3378,2.22,3.78358,298,5,
61.6127,4.85626,10.3333,2.22,3.78358,298,5,
61.6127,4.85657,10.3348,2.22,3.78358,298,5,
61.6128,4.86145,10.3317,2.22,3.78358,298,5,
61.6128,4.86176,10.3348,2.22,3.78358,298,5,
61.6128,4.86115,10.3333,2.22,3.78358,298,5,
61.6129,4.86572,10.3348,2.22,3.78358,298,5,
61.6129,4.86664,10.3333,2.22,3.78358,298,5,
61.6129,4.87152,10.3363,2.22,3.78358,298,5,
61.613,4.87122,10.3348,2.22,3.78358,298,5,
61.613,4.87244,10.3439,2.22,3.78358,298,5,
61.613,4.87549,10.3455,2.22,3.78358,298,5,
61.6131,4.87549,10.347,2.22,3.78358,298,5,
61.6131,4.87915,10.35,2.22,3.78358,298,5,
61.6131,4.88068,10.347,2.22,3.78358,298,5,
61.6132,4.88007,10.347,2.22,3.78358,298,5,
61.6132,4.88556,10.3455,2.22,3.78358,298,5,
61.6132,4.88647,10.347,2.22,3.78358,298,5,
61.6133,4.88586,10.3455,2.22,3.78358,298,5,
61.6133,4.89075,10.3546,2.22,3.78358,298,5,
61.6133,4.89136,10.3577,2.22,3.78358,298,5,
61.6134,4.89075,10.3592,2.22,3.78358,298,5,
61.6134,4.89532,10.3622,2.22,3.78358,298,5,
61.6134,4.89563,10.3577,2.22,3.78358,298,5,
61.6135,4.89563,10.3592,2.22,3.78358,298,5,
61.6135,4.90051,10.3592,2.22,3.78358,298,5,
61.6135,4.90021,10.3577,2.22,3.78358,298,5,
61.6136,4.90173,10.3622,2.22,3.78358,298,5,
61.6136,4.90509,10.3577,2.22,3.78358,298,5,
61.6136,4.90509,10.3668,2.22,3.78358,298,5,
61.6137,4.90631,10.3729,2.22,3.78358,298,5,
61.6137,4.91058,10.3729,2.22,3.78358,298,5,
61.6137,4.91028,10.376,2.22,3.78358,298,5,
61.6138,4.91119,10.3729,2.22,3.78358,298,5,
61.6138,4.91547,10.3714,2.22,3.78358,298,5,
61.6138,4.91577,10.3729,2.22,3.78358,298,5,
61.6139,4.91608,10.3714,2.22,3.78358,298,5,
61.6139,4.91974,10.3699,2.22,3.78358,298,5,
61.6139,4.92065,10.3745,2.22,3.78358,298,5,
61.614,4.92371,10.376,2.22,3.78358,298,5,
61.614,4.92554,10.3851,2.22,3.78358,298,5,
61.614,4.92584,10.3867,2.22,3.78358,298,5,
61.6141,4.92889,10.379,2.22,3.78358,298,5,
61.6141,4.93011,10.3821,2.22,3.78358,298,5,
61.6141,4.93011,10.3836,2.22,3.78358,298,5,
61.6142,4.93408,10.3836,2.22,3.78358,298,5,
61.6142,4.93439,10.379,2.22,3.78358,298,5,
61.6142,4.9353,10.3821,2.22,3.78358,298,5,
61.6143,4.93805,10.3821,2.22,3.78358,298,5,
61.6143,4.94019,10.3821,2.22,3.78358,298,5,
61.6143,4.93958,10.3851,2.22,3.78358,298,5,
61.6144,4.94324,10.3943,2.22,3.78358,298,5,
61.6144,4.94385,10.3958,2.22,3.78358,298,5,
61.6144,4.94446,10.3973,2.22,3.78358,298,5,
61.6145,4.94751,10.3973,2.22,3.78358,298,5,
61.6145,4.94995,10.3973,2.22,3.78358,298,5,
61.6145,4.94995,10.3989,2.22,3.78358,298,5,
61.6146,4.9527,10.3943,2.22,3.78358,298,5,
61.6146,4.95514,10.3973,2.22,3.78358,298,5,
61.6146,4.95422,10.3989,2.22,3.78358,298,5,
61.6147,4.95728,10.3958,2.22,3.78358,298,5,
61.6147,4.95941,10.4019,2.22,3.78358,298,5,
61.6147,4.9585,10.4065,2.22,3.78358,298,5,
61.6148,4.95972,10.4065,2.22,3.78358,298,5,
61.6148,4.96338,10.408,2.22,3.78358,298,5,
61.6148,4.9646,10.4126,2.22,3.78358,298,5,
61.6149,4.9649,10.4126,2.22,3.78358,298,5,
61.6149,4.96857,10.4126,2.22,3.78358,298,5,
61.6149,4.96887,10.4126,2.22,3.78358,298,5,
61.615,4.96918,10.4065,2.22,3.78358,298,5,
61.615,4.97345,10.4126,2.22,3.78358,298,5,
61.615,4.97375,10.4126,2.22,3.78358,298,5,
61.6151,4.97437,10.4141,2.22,3.78358,298,5,
61.6151,4.97864,10.4218,2.22,3.78358,298,5,
61.6151,4.97894,10.4233,2.22,3.78358,298,5,
61.6152,4.97864,10.4218,2.22,3.78358,298,5,
61.6152,4.98444,10.4202,2.22,3.78358,298,5,
61.6152,4.98383,10.4218,2.22,3.78358,298,5,
61.6153,4.98413,10.4218,2.22,3.78358,298,5,
61.6153,4.9884,10.4202,2.22,3.78358,298,5,
61.6153,4.98871,10.4218,2.22,3.78358,298,5,
61.6154,4.9881,10.4233,2.22,3.78358,298,5,
61.6154,4.99359,10.4218,2.22,3.78358,298,5,
61.6154,4.99298,10.4324,2.22,3.78358,298,5,
61.6155,4.99298,10.434,2.22,3.78358,298,5,
61.6155,4.99786,10.434,2.22,3.78358,298,5,
61.6155,4.99817,10.4324,2.22,3.78358,298,5,
61.6156,4.99878,10.4355,2.22,3.78358,298,5,
61.6156,5.00305,10.4355,2.22,3.78358,298,5,
61.6156,5.00336,10.434,2.22,3.78358,298,5,
61.6157,5.00305,10.437,2.22,3.78358,298,5,
61.6157,5.00732,10.434,2.22,3.78358,298,5,
61.6157,5.00854,10.434,2.22,3.78358,298,5,
61.6158,5.00824,10.4401,2.22,3.78358,298,5,
61.6158,5.0116,10.4462,2.22,3.78358,298,5,
61.6158,5.01312,10.4462,2.22,3.78358,298,5,
61.6159,5.01343,10.4431,2.22,3.78358,298,5,
61.6159,5.0174,10.4462,2.22,3.78358,298,5,
61.6159,5.01831,10.4462,2.22,3.78358,298,5,
61.616,5.01801,10.4462,2.22,3.78358,298,5,
61.616,5.01831,10.4446,2.22,3.78358,298,5,
61.616,5.02258,10.4507,2.22,3.78358,298,5,
61.6161,5.02319,10.4446,2.22,3.78358,298,5,
61.6161,5.0238,10.4446,2.22,3.78358,298,5,
61.6161,5.02777,10.4584,2.22,3.78358,298,5,
61.6162,5.02838,10.4568,2.22,3.78358,298,5,
61.6162,5.02869,10.4599,2.22,3.78358,298,5,
61.6162,5.03204,10.4599,2.22,3.78358,298,5,
61.6163,5.03296,10.4599,2.22,3.78358,298,5,
61.6163,5.03326,10.4584,2.22,3.78358,298,5,
61.6163,5.03784,10.4584,2.22,3.78358,298,5,
61.6164,5.03723,10.4553,2.22,3.78358,298,5,
61.6164,5.03754,10.4599,2.22,3.78358,298,5,
61.6164,5.04181,10.4538,2.22,3.78358,298,5,
61.6165,5.04242,10.4691,2.22,3.78358,298,5,
61.6165,5.04272,10.4706,2.22,3.78358,298,5,
61.6165,5.0473,10.4691,2.22,3.78358,298,5,
61.6166,5.0473,10.4706,2.22,3.78358,298,5,
61.6166,5.04791,10.4721,2.22,3.78358,298,5,
61.6166,5.05096,10.4706,2.22,3.78358,298,5,
61.6167,5.05219,10.4691,2.22,3.78358,298,5,
61.6167,5.05249,10.4691,2.22,3.78358,298,5,
61.6167,5.05615,10.4691,2.22,3.78358,298,5,
61.6168,5.05737,10.4721,2.22,3.78358,298,5,
61.6168,5.05798,10.4813,2.22,3.78358,298,5,
61.6168,5.05768,10.4843,2.22,3.78358,298,5,
61.6169,5.06226,10.4828,2.22,3.78358,298,5,
61.6169,5.06226,10.4828,2.22,3.78358,298,5,
61.6169,5.06317,10.4813,2.22,3.78358,298,5,
61.617,5.06744,10.4797,2.22,3.78358,298,5,
61.617,5.06714,10.4843,2.22,3.78358,298,5,
61.617,5.06744,10.4813,2.22,3.78358,298,5,
61.6171,5.07202,10.4843,2.22,3.78358,298,5,
61.6171,5.07263,10.4843,2.22,3.78358,298,5,
61.6171,5.07202,10.4935,2.22,3.78358,298,5,
61.6172,5.0766,10.498,2.22,3.78358,298,5,
61.6172,5.07721,10.4965,2.22,3.78358,298,5,
61.6172,5.0766,10.4935,2.22,3.78358,298,5,
61.6173,5.08057,10.4935,2.22,3.78358,298,5,
61.6173,5.08209,10.495,2.22,3.78358,298,5,
61.6173,5.08118,10.495,2.22,3.78358,298,5,
61.6174,5.0824,10.4965,2.22,3.78358,298,5,
61.6174,5.08606,10.495,2.22,3.78358,298,5,
61.6174,5.08636,10.4996,2.22,3.78358,298,5,
61.6175,5.08575,10.5057,2.22,3.78358,298,5,
61.6175,5.09155,10.5042,2.22,3.78358,298,5,
61.6175,5.09155,10.5057,2.22,3.78358,298,5,
61.6176,5.09125,10.5087,2.22,3.78358,298,5,
61.6176,5.09644,10.5103,2.22,3.78358,298,5,
61.6176,5.09674,10.5042,2.22,3.78358,298,5,
61.6177,5.09552,10.5118,2.22,3.78358,298,5,
61.6177,5.10071,10.5057,2.22,3.78358,298,5,
61.6177,5.10132,10.5072,2.22,3.78358,298,5,
61.6178,5.10101,10.5209,2.22,3.78358,298,5,
61.6178,5.10437,10.5194,2.22,3.78358,298,5,
61.6178,5.10651,10.524,2.22,3.78358,298,5,
61.6179,5.1059,10.5194,2.22,3.78358,298,5,
61.6179,5.1059,10.5209,2.22,3.78358,298,5,
61.6179,5.11047,10.5194,2.22,3.78358,298,5,
61.618,5.11078,10.5209,2.22,3.78358,298,5,
61.618,5.11139,10.5194,2.22,3.78358,298,5,
61.618,5.11414,10.5179,2.22,3.78358,298,5,
61.6181,5.11658,10.5179,2.22,3.78358,298,5,
61.6181,5.11627,10.5331,2.22,3.78358,298,5,
61.6181,5.11566,10.5316,2.22,3.78358,298,5,
61.6182,5.12054,10.5331,2.22,3.78358,298,5,
61.6182,5.12024,10.5331,2.22,3.78358,298,5,
61.6182,5.12024,10.5331,2.22,3.78358,298,5,
61.6183,5.12085,10.5362,2.22,3.78358,298,5,
61.6183,5.12543,10.5301,2.22,3.78358,298,5,
61.6183,5.12573,10.5347,2.22,3.78358,298,5,
61.6184,5.12512,10.5331,2.22,3.78358,298,5,
61.6184,5.12848,10.5362,2.22,3.78358,298,5,
61.6184,5.13,10.5438,2.22,3.78358,298,5,
61.6185,5.13031,10.5454,2.22,3.78358,298,5,
61.6185,5.13031,10.5469,2.22,3.78358,298,5,
61.6185,5.13062,10.5423,2.22,3.78358,298,5,
61.6186,5.13031,10.5438,2.22,3.78358,298,5,
61.6186,5.13489,10.5438,2.22,3.78358,298,5,
61.6186,5.13885,10.5454,2.22,3.78358,298,5,
61.6187,5.14008,10.5438,2.22,3.78358,298,5,
61.6187,5.13977,10.5438,2.22,3.78358,298,5,
61.6187,5.13947,10.5484,2.22,3.78358,298,5,
61.6188,5.13885,10.5621,2.22,3.78358,298,5,
61.6188,5.14557,10.5576,2.22,3.78358,298,5,
61.6188,5.14526,10.556,2.22,3.78358,298,5,
61.6189,5.14496,10.556,2.22,3.78358,298,5,
61.6189,5.14465,10.5545,2.22,3.78358,298,5,
61.6189,5.14923,10.5576,2.22,3.78358,298,5,
61.619,5.14923,10.5576,2.22,3.78358,298,5,
61.619,5.14984,10.5576,2.22,3.78358,298,5,
61.619,5.14984,10.556,2.22,3.78358,298,5,
61.6191,5.15076,10.5591,2.22,3.78358,298,5,
61.6191,5.15533,10.5606,2.22,3.78358,298,5,
61.6191,5.15472,10.5682,2.22,3.78358,298,5,
61.6192,5.15442,10.5682,2.22,3.78358,298,5,
61.6192,5.15533,10.5667,2.22,3.78358,298,5,
61.6192,5.1593,10.5698,2.22,3.78358,298,5,
61.6193,5.15961,10.5682,2.22,3.78358,298,5,
61.6193,5.1593,10.5698,2.22,3.78358,298,5,
61.6193,5.159,10.5652,2.22,3.78358,298,5,
61.6194,5.15991,10.5698,2.22,3.78358,298,5,
61.6194,5.16418,10.5682,2.22,3.78358,298,5,
61.6194,5.1651,10.5698,2.22,3.78358,298,5,
61.6195,5.16479,10.5698,2.22,3.78358,298,5,
61.6195,5.1651,10.5789,2.22,3.78358,298,5,
61.6195,5.16388,10.5789,2.22,3.78358,298,5,
61.6196,5.16907,10.5774,2.22,3.78358,298,5,
61.6196,5.16998,10.582,2.22,3.78358,298,5,
61.6196,5.16907,10.582,2.22,3.78358,298,5,
61.6197,5.16907,10.5759,2.22,3.78358,298,5,
61.6197,5.16937,10.5804,2.22,3.78358,298,5,
61.6197,5.17029,10.5804,2.22,3.78358,298,5,
61.6198,5.17426,10.5789,2.22,3.78358,298,5,
61.6198,5.17456,10.582,2.22,3.78358,298,5,
61.6198,5.17456,10.5789,2.22,3.78358,298,5,
61.6199,5.17426,10.5804,2.22,3.78358,298,5,
61.6199,5.17395,10.5942,2.22,3.78358,298,5,
61.6199,5.177,10.5942,2.22,3.78358,298,5,
61.62,5.17853,10.5942,2.22,3.78358,298,5,
61.62,5.17914,10.5942,2.22,3.78358,298,5,
61.62,5.18005,10.5942,2.22,3.78358,298,5,
61.6201,5.17914,10.5927,2.22,3.78358,298,5,
61.6201,5.17914,10.5942,2.22,3.78358,298,5,
61.6201,5.17883,10.5942,2.22,3.78358,298,5,
61.6202,5.18341,10.5942,2.22,3.78358,298,5,
61.6202,5.18433,10.5911,2.22,3.78358,298,5,
61.6202,5.18341,10.5942,2.22,3.78358,298,5,
61.6203,5.18494,10.5927,2.22,3.78358,298,5,
61.6203,5.18402,10.5988,2.22,3.78358,298,5,
61.6203,5.18433,10.6079,2.22,3.78358,298,5,
61.6204,5.18402,10.6064,0.334,3.78358,298,5,
61.6204,5.18463,10.6033,0.334,3.78358,298,5,
61.6204,5.18951,10.6064,0.334,3.78358,298,5,
61.6205,5.18921,10.6018,0.334,3.78358,298,5,
61.6205,5.18829,10.6033,0.334,3.78358,298,5,
61.6205,5.18921,10.6094,0.334,3.78358,298,5,
61.6206,5.1889,10.6033,0.334,3.78358,298,5,
61.6206,5.18829,10.6064,0.334,3.78358,298,5,
61.6206,5.1886,10.6079,0.334,3.78358,298,5,
61.6207,5.18951,10.6033,0.334,3.78358,298,5,
61.6207,5.19348,10.6064,0.334,3.78358,298,5,
61.6207,5.19409,10.6094,0.334,3.78358,298,5,
61.6208,5.19379,10.6186,0.334,3.78358,298,5,
61.6208,5.19379,10.6171,0.334,3.78358,298,5,
61.6208,5.19379,10.6186,0.334,3.78358,298,5,
61.6209,5.19379,10.6171,0.334,3.78358,298,5,
61.6209,5.19348,10.6171,0.334,3.78358,298,5,
61.6209,5.19409,10.6155,0.334,3.78358,298,5,
61.621,5.19409,10.6155,0.334,3.78358,298,5,
61.621,5.19348,10.6171,0.334,3.78358,298,5,
61.621,5.19379,10.6155,0.334,3.78358,298,5,
61.6211,5.19409,10.6155,0.334,3.78358,298,5,
61.6211,5.19867,10.6171,0.334,3.78358,298,5,
61.6211,5.19806,10.614,0.334,3.78358,298,5,
61.6212,5.19836,10.6186,0.334,3.78358,298,5,
61.6212,5.19867,10.6216,0.334,3.78358,298,5,
61.6212,5.19867,10.6323,0.334,3.78358,298,5,
61.6213,5.19867,10.6323,0.334,3.78358,298,5,
61.6213,5.19806,10.6323,0.334,3.78358,298,5,
61.6213,5.19867,10.6308,0.334,3.78358,298,5,
61.6214,5.19958,10.6308,0.334,3.78358,298,5,
61.6214,5.19867,10.6308,0.334,3.78358,298,5,
61.6214,5.19836,10.6262,0.334,3.78358,298,5,
61.6215,5.19897,10.6308,0.334,3.78358,298,5,
61.6215,5.19989,10.6308,0.334,3.78358,298,5,
61.6215,5.19928,10.6323,0.334,3.78358,298,5,
61.6216,5.19897,10.6293,0.334,3.78358,298,5,
61.6216,5.19836,10.6308,0.334,3.78358,298,5,
61.6216,5.19897,10.6323,0.334,3.78358,298,5,
61.6217,5.19867,10.6415,0.334,3.78358,298,5,
61.6217,5.19928,10.6415,0.334,3.78358,298,5,
61.6217,5.19867,10.64,0.334,3.78358,298,5,
61.6218,5.19958,10.643,0.334,3.78358,298,5,
61.6218,5.19897,10.643,0.334,3.78358,298,5,
61.6218,5.19836,10.6415,0.334,3.78358,298,5,
61.6219,5.19867,10.643,0.334,3.78358,298,5,
61.6219,5.19897,10.643,0.334,3.78358,298,5,
61.6219,5.19897,10.64,0.334,3.78358,298,5,
61.622,5.19867,10.6384,0.334,3.78358,298,5,
61.622,5.19928,10.6415,0.334,3.78358,298,5,
61.622,5.19867,10.6445,0.334,3.78358,298,5,
61.6221,5.19836,10.6445,0.334,3.78358,298,5,
61.6221,5.19867,10.6552,0.334,3.78358,298,5,
61.6221,5.19897,10.6552,0.334,3.78358,298,5,
61.6222,5.19897,10.6522,0.334,3.78358,298,5,
61.6222,5.19836,10.6552,0.334,3.78358,298,5,
61.6222,5.19867,10.6583,0.334,3.78358,298,5,
61.6223,5.19836,10.6537,0.334,3.78358,298,5,
61.6223,5.19867,10.6537,0.334,3.78358,298,5,
61.6223,5.19806,10.6537,0.334,3.78358,298,5,
61.6224,5.19928,10.6522,0.334,3.78358,298,5,
61.6224,5.19775,10.6552,0.334,3.78358,298,5,
61.6224,5.19897,10.6552,0.334,3.78358,298,5,
61.6225,5.19836,10.6567,0.334,3.78358,298,5,
61.6225,5.19867,10.6552,0.334,3.78358,298,5,
61.6225,5.19897,10.6644,0.334,3.78358,298,5,
61.6226,5.19867,10.6689,0.334,3.78358,298,5,
61.6226,5.19867,10.6659,0.334,3.78358,298,5,
61.6226,5.19928,10.6674,0.334,3.78358,298,5,
61.6227,5.19897,10.6659,0.334,3.78358,298,5,
61.6227,5.19836,10.6705,0.334,3.78358,298,5,
61.6227,5.19958,10.6689,0.334,3.78358,298,5,
61.6228,5.19928,10.6674,0.334,3.78358,298,5,
61.6228,5.19836,10.6644,0.334,3.78358,298,5,
61.6228,5.19867,10.6674,0.334,3.78358,298,5,
61.6229,5.19745,10.6659,0.334,3.78358,298,5,
61.6229,5.19318,10.6659,0.334,3.78358,298,5,
61.6229,5.1944,10.6689,0.334,3.78358,298,5,
61.623,5.1944,10.6659,0.334,3.78358,298,5,
61.623,5.1947,10.6766,0.334,3.78358,298,5,
61.623,5.19409,10.6781,0.334,3.78358,298,5,
61.6231,5.1944,10.6812,0.334,3.78358,298,5,
61.6231,5.19379,10.6827,0.334,3.78358,298,5,
61.6231,5.19409,10.6781,0.334,3.78358,298,5,
61.6232,5.19409,10.6796,0.334,3.78358,298,5,
61.6232,5.1944,10.6812,0.334,3.78358,298,5,
61.6232,5.1944,10.6796,0.334,3.78358,298,5,
61.6233,5.19409,10.6781,0.334,3.78358,298,5,
61.6233,5.18921,10.6812,0.334,3.78358,298,5,
61.6233,5.18921,10.6812,0.334,3.78358,298,5,
61.6234,5.18982,10.6781,0.334,3.78358,298,5,
61.6234,5.18982,10.6781,0.334,3.78358,298,5,
61.6234,5.18951,10.6781,0.334,3.78358,298,5,
61.6235,5.18921,10.6934,0.334,3.78358,298,5,
61.6235,5.18921,10.6918,0.334,3.78358,298,5,
61.6235,5.18951,10.6949,0.334,3.78358,298,5,
61.6236,5.1889,10.6903,0.334,3.78358,298,5,
61.6236,5.18982,10.6903,0.334,3.78358,298,5,
61.6236,5.18463,10.6934,0.334,3.78358,298,5,
61.6237,5.18463,10.6918,0.334,3.78358,298,5,
61.6237,5.18433,10.6934,0.334,3.78358,298,5,
61.6237,5.18372,10.6918,0.334,3.78358,298,5,
61.6238,5.18402,10.6949,0.334,3.78358,298,5,
61.6238,5.18463,10.6888,0.334,3.78358,298,5,
61.6238,5.18555,10.6934,0.334,3.78358,298,5,
61.6239,5.18341,10.6949,0.334,3.78358,298,5,
61.6239,5.18341,10.6888,0.334,3.78358,298,5,
61.6239,5.17914,10.6979,0.334,3.78358,298,5,
61.624,5.17914,10.704,0.334,3.78358,298,5,
61.624,5.17914,10.7071,0.334,3.78358,298,5,
61.624,5.17914,10.7025,0.334,3.78358,298,5,
61.6241,5.17975,10.7071,0.334,3.78358,298,5,
61.6241,5.17914,10.7025,0.334,3.78358,298,5,
61.6241,5.17853,10.7071,0.334,3.78358,298,5,
61.6242,5.17517,10.704,0.334,3.78358,298,5,
61.6242,5.17426,10.7056,0.334,3.78358,298,5,
61.6242,5.17456,10.7056,0.334,3.78358,298,5,
61.6243,5.17365,10.7086,0.334,3.78358,298,5,
61.6243,5.17426,10.7025,0.334,3.78358,298,5,
61.6243,5.17365,10.704,0.334,3.78358,298,5,
61.6244,5.17395,10.701,0.334,3.78358,298,5,
61.6244,5.17303,10.701,0.334,3.78358,298,5,
61.6244,5.16968,10.7147,0.334,3.78358,298,5,
61.6245,5.16968,10.7162,0.334,3.78358,298,5,
61.6245,5.16998,10.7178,0.334,3.78358,298,5,
61.6245,5.16968,10.7193,0.334,3.78358,298,5,
61.6246,5.16907,10.7162,0.334,3.78358,298,5,
61.6246,5.16968,10.7162,0.334,3.78358,298,5,
61.6246,5.16632,10.7193,0.334,3.78358,298,5,
61.6247,5.16449,10.7147,0.334,3.78358,298,5,
61.6247,5.16418,10.7147,0.334,3.78358,298,5,
61.6247,5.16479,10.7178,0.334,3.78358,298,5,
61.6248,5.16418,10.7178,0.334,3.78358,298,5,
61.6248,5.1651,10.7178,0.334,3.78358,298,5,
61.6248,5.16418,10.7178,0.334,3.78358,298,5,
61.6249,5.15961,10.7162,0.334,3.78358,298,5,
61.6249,5.15961,10.7178,0.334,3.78358,298,5,
61.6249,5.15991,10.7178,0.334,3.78358,298,5,
61.625,5.15991,10.7315,0.334,3.78358,298,5,
61.625,5.159,10.7285,0.334,3.78358,298,5,
61.625,5.15961,10.7254,0.334,3.78358,298,5,
61.6251,5.15472,10.7285,0.334,3.78358,298,5,
61.6251,5.15503,10.73,0.334,3.78358,298,5,
61.6251,5.15472,10.7239,0.334,3.78358,298,5,
61.6252,5.15442,10.7285,0.334,3.78358,298,5,
61.6252,5.15472,10.733,0.334,3.78358,298,5,
61.6252,5.15533,10.7254,0.334,3.78358,298,5,
61.6253,5.15015,10.7285,0.334,3.78358,298,5,
61.6253,5.15045,10.7269,0.334,3.78358,298,5,
61.6253,5.15045,10.73,0.334,3.78358,298,5,
61.6254,5.15076,10.73,0.334,3.78358,298,5,
61.6254,5.15045,10.73,0.334,3.78358,298,5,
61.6254,5.14709,10.7285,0.334,3.78358,298,5,
61.6255,5.14526,10.7269,0.334,3.78358,298,5,
61.6255,5.14618,10.7285,0.334,3.78358,298,5,
61.6255,5.14648,10.7407,0.334,3.78358,298,5,
61.6256,5.14526,10.7407,0.334,3.78358,298,5,
61.6256,5.14221,10.7407,0.334,3.78358,298,5,
61.6256,5.14008,10.7407,0.334,3.78358,298,5,
61.6257,5.14099,10.7437,0.334,3.78358,298,5,
61.6257,5.14069,10.7391,0.334,3.78358,298,5,
61.6257,5.14038,10.7391,0.334,3.78358,298,5,
61.6258,5.13672,10.7422,0.334,3.78358,298,5,
61.6258,5.1358,10.7391,0.334,3.78358,298,5,
61.6258,5.1358,10.7422,0.334,3.78358,298,5,
61.6259,5.13519,10.7376,0.334,3.78358,298,5,
61.6259,5.13489,10.7407,0.334,3.78358,298,5,
61.6259,5.13062,10.7361,0.334,3.78358,298,5,
61.626,5.13031,10.7407,0.334,3.78358,298,5,
61.626,5.13062,10.7407,0.334,3.78358,298,5,
61.626,5.13062,10.7407,0.334,3.78358,298,5,
61.6261,5.13,10.7391,0.334,3.78358,298,5,
61.6261,5.12543,10.7407,0.334,3.78358,298,5,
61.6261,5.12512,10.7422,0.334,3.78358,298,5,
61.6262,5.12543,10.7422,0.334,3.78358,298,5,
61.6262,5.12543,10.7513,0.334,3.78358,298,5,
61.6262,5.12085,10.7544,0.334,3.78358,298,5,
61.6263,5.11993,10.7544,0.334,3.78358,298,5,
61.6263,5.12024,10.7513,0.334,3.78358,298,5,
61.6263,5.12054,10.7544,0.334,3.78358,298,5,
61.6264,5.11597,10.7513,0.334,3.78358,298,5,
61.6264,5.11566,10.7544,0.334,3.78358,298,5,
61.6264,5.11566,10.7544,0.334,3.78358,298,5,
61.6265,5.11505,10.7529,0.334,3.78358,298,5,
61.6265,5.11108,10.7544,0.334,3.78358,298,5,
61.6265,5.11078,10.7544,0.334,3.78358,298,5,
61.6266,5.11078,10.7544,0.334,3.78358,298,5,
61.6266,5.11078,10.7529,0.334,3.78358,298,5,
61.6266,5.10559,10.7498,0.334,3.78358,298,5,
61.6267,5.1059,10.7544,0.334,3.78358,298,5,
61.6267,5.10651,10.7544,0.334,3.78358,298,5,
61.6267,5.10559,10.7529,0.334,3.78358,298,5,
61.6268,5.10101,10.7529,0.334,3.78358,298,5,
61.6268,5.10132,10.7544,0.334,3.78358,298,5,
61.6268,5.1004,10.7513,0.334,3.78358,298,5,
61.6269,5.1004,10.7529,0.334,3.78358,298,5,
61.6269,5.09583,10.7529,0.334,3.78358,298,5,
61.6269,5.09583,10.7544,0.334,3.78358,298,5,
61.627,5.09583,10.7544,0.334,3.78358,298,5,
61.627,5.09583,10.7529,0.334,3.78358,298,5,
61.627,5.09064,10.7651,0.334,3.78358,298,5,
61.6271,5.09094,10.7666,0.334,3.78358,298,5,
61.6271,5.09094,10.7681,0.334,3.78358,298,5,
61.6271,5.08667,10.7636,0.334,3.78358,298,5,
61.6272,5.08636,10.7651,0.334,3.78358,298,5,
61.6272,5.08606,10.7636,0.334,3.78358,298,5,
61.6272,5.08575,10.7651,0.334,3.78358,298,5,
61.6273,5.08057,10.762,0.334,3.78358,298,5,
61.6273,5.08087,10.7681,0.334,3.78358,298,5,
61.6273,5.08118,10.7651,0.334,3.78358,298,5,
61.6274,5.07751,10.7666,0.334,3.78358,298,5,
61.6274,5.07721,10.7666,0.334,3.78358,298,5,
61.6274,5.0769,10.7636,0.334,3.78358,298,5,
61.6275,5.0769,10.7651,0.334,3.78358,298,5,
61.6275,5.07202,10.7681,0.334,3.78358,298,5,
61.6275,5.07141,10.7651,0.334,3.78358,298,5,
61.6276,5.07202,10.7666,0.334,3.78358,298,5,
61.6276,5.06866,10.7651,0.334,3.78358,298,5,
61.6276,5.06714,10.7651,0.334,3.78358,298,5,
61.6277,5.06683,10.7651,0.334,3.78358,298,5,
61.6277,5.06714,10.7651,0.334,3.78358,298,5,
61.6277,5.06226,10.7681,0.334,3.78358,298,5,
61.6278,5.06165,10.7681,0.334,3.78358,298,5,
61.6278,5.06226,10.762,0.334,3.78358,298,5,
61.6278,5.05859,10.7651,0.334,3.78358,298,5,
61.6279,5.05798,10.7636,0.334,3.78358,298,5,
61.6279,5.05737,10.7636,0.334,3.78358,298,5,
61.6279,5.05768,10.7636,0.334,3.78358,298,5,
61.628,5.0528,10.7651,0.334,3.78358,298,5,
61.628,5.05249,10.7636,0.334,3.78358,298,5,
61.628,5.05249,10.7666,0.334,3.78358,298,5,
61.6281,5.047,10.7636,0.334,3.78358,298,5,
61.6281,5.0473,10.762,0.334,3.78358,298,5,
61.6281,5.04761,10.7651,0.334,3.78358,298,5,
61.6282,5.04639,10.7651,0.334,3.78358,298,5,
61.6282,5.04272,10.7636,0.334,3.78358,298,5,
61.6282,5.04242,10.7666,0.334,3.78358,298,5,
61.6283,5.04272,10.7666,0.334,3.78358,298,5,
61.6283,5.03815,10.7651,0.334,3.78358,298,5,
61.6283,5.03754,10.7666,0.334,3.78358,298,5,
61.6284,5.03754,10.762,0.334,3.78358,298,5,
61.6284,5.03326,10.7666,0.334,3.78358,298,5,
61.6284,5.03204,10.7651,0.334,3.78358,298,5,
61.6285,5.03296,10.7651,0.334,3.78358,298,5,
61.6285,5.03174,10.7636,0.334,3.78358,298,5,
61.6285,5.02777,10.7681,0.334,3.78358,298,5,
61.6286,5.02777,10.7651,0.334,3.78358,298,5,
61.6286,5.02808,10.7651,0.334,3.78358,298,5,
61.6286,5.02228,10.7681,0.334,3.78358,298,5,
61.6287,5.0235,10.7681,0.334,3.78358,298,5,
61.6287,5.02319,10.7651,0.334,3.78358,298,5,
61.6287,5.02014,10.7636,0.334,3.78358,298,5,
61.6288,5.01801,10.762,0.334,3.78358,298,5,
61.6288,5.01801,10.7651,0.334,3.78358,298,5,
61.6288,5.0174,10.7651,0.334,3.78358,298,5,
61.6289,5.01312,10.7636,0.334,3.78358,298,5,
61.6289,5.01404,10.7666,0.334,3.78358,298,5,
61.6289,5.01404,10.7666,0.334,3.78358,298,5,
61.629,5.00793,10.7636,0.334,3.78358,298,5,
61.629,5.00885,10.762,0.334,3.78358,298,5,
61.629,5.00763,10.7666,0.334,3.78358,298,5,
61.6291,5.00519,10.7803,0.334,3.78358,298,5,
61.6291,5.00366,10.7788,0.334,3.78358,298,5,
61.6291,5.00366,10.7727,0.334,3.78358,298,5,
61.6292,5.00397,10.7788,0.334,3.78358,298,5,
61.6292,4.99969,10.7803,0.334,3.78358,298,5,
61.6292,4.99847,10.7773,0.334,3.78358,298,5,
61.6293,4.99908,10.7788,0.334,3.78358,298,5,
61.6293,4.9939,10.7788,0.334,3.78358,298,5,
61.6293,4.99359,10.7773,0.334,3.78358,298,5,
61.6294,4.99329,10.7788,0.334,3.78358,298,5,
61.6294,4.99023,10.7681,0.334,3.78358,298,5,
61.6294,4.98871,10.7666,0.334,3.78358,298,5,
61.6295,4.98962,10.7666,0.334,3.78358,298,5,
61.6295,4.98779,10.7636,0.334,3.78358,298,5,
61.6295,4.98352,10.7651,0.334,3.78358,298,5,
61.6296,4.98352,10.7636,0.334,3.78358,298,5,
61.6296,4.98383,10.7666,0.334,3.78358,298,5,
61.6296,4.97864,10.7636,0.334,3.78358,298,5,
61.6297,4.97894,10.7666,0.334,3.78358,298,5,
61.6297,4.97864,10.7681,0.334,3.78358,298,5,
61.6297,4.97467,10.762,0.334,3.78358,298,5,
61.6298,4.97375,10.7651,0.334,3.78358,298,5,
61.6298,4.97406,10.7636,0.334,3.78358,298,5,
61.6298,4.97314,10.7666,0.334,3.78358,298,5,
61.6299,4.96887,10.7666,0.334,3.78358,298,5,
61.6299,4.96948,10.7605,0.334,3.78358,298,5,
61.6299,4.96918,10.759,0.334,3.78358,298,5,
61.63,4.96368,10.7666,0.334,3.78358,298,5,
61.63,4.96368,10.7666,0.334,3.78358,298,5,
61.63,4.9646,10.7651,0.334,3.78358,298,5,
61.6301,4.95941,10.7651,0.334,3.78358,298,5,
61.6301,4.9588,10.7666,0.334,3.78358,298,5,
61.6301,4.95911,10.7666,0.334,3.78358,298,5,
61.6302,4.95605,10.7651,0.334,3.78358,298,5,
61.6302,4.95392,10.7651,0.334,3.78358,298,5,
61.6302,4.95392,10.7666,0.334,3.78358,298,5,
61.6303,4.95361,10.7651,0.334,3.78358,298,5,
61.6303,4.94873,10.7651,0.334,3.78358,298,5,
61.6303,4.95026,10.7651,0.334,3.78358,298,5,
61.6304,4.94934,10.7681,0.334,3.78358,298,5,
61.6304,4.94415,10.7666,0.334,3.78358,298,5,
61.6304,4.94385,10.7651,0.334,3.78358,298,5,
61.6305,4.94476,10.7651,0.334,3.78358,298,5,
61.6305,4.93988,10.7712,0.334,3.78358,298,5,
61.6305,4.93927,10.7681,0.334,3.78358,298,5,
61.6306,4.93896,10.7651,0.334,3.78358,298,5,
61.6306,4.93927,10.7666,0.334,3.78358,298,5,
61.6306,4.93469,10.7651,0.334,3.78358,298,5,
61.6307,4.935,10.7681,0.334,3.78358,298,5,
61.6307,4.93469,10.7666,0.334,3.78358,298,5,
61.6307,4.92981,10.7636,0.334,3.78358,298,5,
61.6308,4.9292,10.7636,0.334,3.78358,298,5,
61.6308,4.9295,10.7681,0.334,3.78358,298,5,
61.6308,4.9295,10.7666,0.334,3.78358,298,5,
61.6309,4.92493,10.7666,0.334,3.78358,298,5,
61.6309,4.92462,10.7636,0.334,3.78358,298,5,
61.6309,4.92523,10.7651,0.334,3.78358,298,5,
61.631,4.92188,10.762,0.334,3.78358,298,5,
61.631,4.92004,10.7666,0.334,3.78358,298,5,
61.631,4.92065,10.762,0.334,3.78358,298,5,
61.6311,4.92035,10.7666,0.334,3.78358,298,5,
61.6311,4.91577,10.7651,0.334,3.78358,298,5,
61.6311,4.91547,10.7651,0.334,3.78358,298,5,
61.6312,4.91486,10.7651,0.334,3.78358,298,5,
61.6312,4.91516,10.7666,0.334,3.78358,298,5,
61.6312,4.91028,10.7651,0.334,3.78358,298,5,
61.6313,4.91028,10.7636,0.334,3.78358,298,5,
61.6313,4.90997,10.7666,0.334,3.78358,298,5,
61.6313,4.91028,10.7651,0.334,3.78358,298,5,
61.6314,4.90509,10.7651,0.334,3.78358,298,5,
61.6314,4.9057,10.7636,0.334,3.78358,298,5,
61.6314,4.9054,10.7666,0.334,3.78358,298,5,
61.6315,4.90601,10.762,0.334,3.78358,298,5,
61.6315,4.90051,10.7636,0.334,3.78358,298,5,
61.6315,4.90021,10.7651,0.334,3.78358,298,5,
61.6316,4.90021,10.7636,0.334,3.78358,298,5,
61.6316,4.90051,10.762,0.334,3.78358,298,5,
61.6316,4.89685,10.7636,0.334,3.78358,298,5,
61.6317,4.89594,10.7636,0.334,3.78358,298,5,
61.6317,4.89532,10.7651,0.334,3.78358,298,5,
61.6317,4.89502,10.7651,0.334,3.78358,298,5,
61.6318,4.89563,10.7666,0.334,3.78358,298,5,
61.6318,4.89075,10.7636,0.334,3.78358,298,5,
61.6318,4.88983,10.7666,0.334,3.78358,298,5,
61.6319,4.89014,10.7666,0.334,3.78358,298,5,
61.6319,4.89105,10.7636,0.334,3.78358,298,5,
61.6319,4.88953,10.7666,0.334,3.78358,298,5,
61.632,4.88495,10.762,0.334,3.78358,298,5,
61.632,4.88525,10.7651,0.334,3.78358,298,5,
61.632,4.88556,10.7636,0.334,3.78358,298,5,
61.6321,4.88586,10.7666,0.334,3.78358,298,5,
61.6321,4.88617,10.7636,0.334,3.78358,298,5,
61.6321,4.88007,10.7636,0.334,3.78358,298,5,
61.6322,4.88068,10.762,0.334,3.78358,298,5,
61.6322,4.88037,10.7636,0.334,3.78358,298,5,
61.6322,4.88068,10.7651,0.334,3.78358,298,5,
61.6323,4.88098,10.7651,0.334,3.78358,298,5,
61.6323,4.87671,10.7636,0.334,3.78358,298,5,
61.6323,4.87549,10.7651,0.334,3.78358,298,5,
61.6324,4.8761,10.7666,0.334,3.78358,298,5,
61.6324,4.87549,10.762,0.334,3.78358,298,5,
61.6324,4.8761,10.7666,0.334,3.78358,298,5,
61.6325,4.87518,10.7666,0.334,3.78358,298,5,
61.6325,4.87091,10.7636,0.334,3.78358,298,5,
61.6325,4.87091,10.7636,0.334,3.78358,298,5,
61.6326,4.87152,10.7666,0.334,3.78358,298,5,
61.6326,4.87122,10.7636,0.334,3.78358,298,5,
61.6326,4.87152,10.7636,0.334,3.78358,298,5,
61.6327,4.87091,10.7636,0.334,3.78358,298,5,
61.6327,4.87061,10.7636,0.334,3.78358,298,5,
61.6327,4.86511,10.7651,0.334,3.78358,298,5,
61.6328,4.86633,10.7605,0.334,3.78358,298,5,
61.6328,4.86542,10.7666,0.334,3.78358,298,5,
61.6328,4.86542,10.7666,0.334,3.78358,298,5,
61.6329,4.86542,10.7666,0.334,3.78358,298,5,
61.6329,4.86725,10.7651,0.334,3.78358,298,5,
61.6329,4.86298,10.762,0.334,3.78358,298,5,
61.633,4.86053,10.7666,0.334,3.78358,298,5,
61.633,4.86115,10.7651,0.334,3.78358,298,5,
61.633,4.86145,10.7651,0.334,3.78358,298,5,
61.6331,4.86084,10.762,0.334,3.78358,298,5,
61.6331,4.86084,10.7666,0.334,3.78358,298,5,
61.6331,4.86115,10.7666,0.334,3.78358,298,5,
61.6332,4.86084,10.7651,0.334,3.78358,298,5,
61.6332,4.85657,10.7666,0.334,3.78358,298,5,
61.6332,4.85626,10.7666,0.334,3.78358,298,5,
61.6333,4.85687,10.7636,0.334,3.78358,298,5,
61.6333,4.85687,10.7651,0.334,3.78358,298,5,
61.6333,4.85596,10.7666,0.334,3.78358,298,5,
61.6334,4.85626,10.7605,0.334,3.78358,298,5,
61.6334,4.85596,10.7636,0.334,3.78358,298,5,
61.6334,4.85626,10.7666,0.334,3.78358,298,5,
61.6335,4.85321,10.7636,0.334,3.78358,298,5,
61.6335,4.85138,10.7651,0.334,3.78358,298,5,
61.6335,4.85077,10.7651,0.334,3.78358,298,5,
61.6336,4.85077,10.7651,0.334,3.78358,298,5,
61.6336,4.85107,10.7651,0.334,3.78358,298,5,
61.6336,4.85046,10.762,0.334,3.78358,298,5,
61.6337,4.85168,10.7666,0.334,3.78358,298,5,
61.6337,4.85138,10.7651,0.334,3.78358,298,5,
61.6337,4.85138,10.762,0.334,3.78358,298,5,
61.6338,4.85107,10.762,0.334,3.78358,298,5,
61.6338,4.84619,10.7636,0.334,3.78358,298,5,
61.6338,4.8465,10.7651,0.334,3.78358,298,5,
61.6339,4.8465,10.7605,0.334,3.78358,298,5,
61.6339,4.8465,10.7651,0.334,3.78358,298,5,
61.6339,4.8465,10.7666,0.334,3.78358,298,5,
61.634,4.84589,10.7636,0.334,3.78358,298,5,
61.634,4.8465,10.7636,0.334,3.78358,298,5,
61.634,4.84711,10.7651,0.334,3.78358,298,5,
61.6341,4.84558,10.7651,0.334,3.78358,298,5,
61.6341,4.8468,10.7651,0.334,3.78358,298,5,
61.6341,4.84283,10.7636,0.334,3.78358,298,5,
61.6342,4.84131,10.7681,0.334,3.78358,298,5,
61.6342,4.84161,10.7636,0.334,3.78358,298,5,
61.6342,4.84131,10.7666,0.334,3.78358,298,5,
61.6343,4.84161,10.7636,0.334,3.78358,298,5,
61.6343,4.84161,10.7681,0.334,3.78358,298,5,
61.6343,4.84131,10.762,0.334,3.78358,298,5,
61.6344,4.84192,10.7636,0.334,3.78358,298,5,
61.6344,4.84131,10.7636,0.334,3.78358,298,5,
61.6344,4.84131,10.7651,0.334,3.78358,298,5,
61.6345,4.84161,10.7636,0.334,3.78358,298,5,
61.6345,4.84039,10.7651,0.334,3.78358,298,5,
61.6345,4.83612,10.7651,0.334,3.78358,298,5,
61.6346,4.83643,10.7666,0.334,3.78358,298,5,
61.6346,4.83643,10.7681,0.334,3.78358,298,5,
61.6346,4.83704,10.7666,0.334,3.78358,298,5,
61.6347,4.83704,10.7636,0.334,3.78358,298,5,
61.6347,4.83673,10.7666,0.334,3.78358,298,5,
61.6347,4.83704,10.7666,0.334,3.78358,298,5,
61.6348,4.83704,10.7681,0.334,3.78358,298,5,
61.6348,4.83643,10.7636,0.334,3.78358,298,5,
61.6348,4.83643,10.7666,0.334,3.78358,298,5,
61.6349,4.83673,10.7636,0.334,3.78358,298,5,
61.6349,4.83337,10.7666,0.334,3.78358,298,5,
61.6349,4.83185,10.7636,0.334,3.78358,298,5,
61.635,4.83124,10.7651,0.334,3.78358,298,5,
61.635,4.83185,10.7666,0.334,3.78358,298,5,
61.635,4.83215,10.7605,0.334,3.78358,298,5,
61.6351,4.83185,10.7513,0.334,3.78358,298,5,
61.6351,4.83124,10.7498,0.334,3.78358,298,5,
61.6351,4.83185,10.7529,0.334,3.78358,298,5,
61.6352,4.83124,10.7544,0.334,3.78358,298,5,
61.6352,4.83246,10.7529,0.334,3.78358,298,5,
61.6352,4.83215,10.7544,0.334,3.78358,298,5,
61.6353,4.83215,10.7529,0.334,3.78358,298,5,
61.6353,4.83154,10.7529,0.334,3.78358,298,5,
61.6353,4.82697,10.7498,0.334,3.78358,298,5,
61.6354,4.82697,10.7513,0.334,3.78358,298,5,
61.6354,4.82666,10.7529,0.334,3.78358,298,5,
61.6354,4.82758,10.7544,0.334,3.78358,298,5,
61.6355,4.82758,10.7513,0.334,3.78358,298,5,
61.6355,4.82666,10.7498,0.334,3.78358,298,5,
61.6355,4.82697,10.7544,0.334,3.78358,298,5,
61.6356,4.82697,10.7483,0.334,3.78358,298,5,
61.6356,4.82727,10.7529,0.334,3.78358,298,5,
61.6356,4.82697,10.7529,0.334,3.78358,298,5,
61.6357,4.82758,10.7559,0.334,3.78358,298,5,
61.6357,4.82758,10.7513,0.334,3.78358,298,5,
61.6357,4.82574,10.7544,0.334,3.78358,298,5,
61.6358,4.82208,10.7559,0.334,3.78358,298,5,
61.6358,4.82239,10.7513,0.334,3.78358,298,5,
61.6358,4.82239,10.7529,0.334,3.78358,298,5,
61.6359,4.82208,10.7498,0.334,3.78358,298,5,
61.6359,4.82178,10.7513,0.334,3.78358,298,5,
61.6359,4.82178,10.7529,0.334,3.78358,298,5,
61.636,4.82208,10.7437,0.334,3.78358,298,5,
61.636,4.82208,10.7407,0.334,3.78358,298,5,
61.636,4.82178,10.7437,0.334,3.78358,298,5,
61.6361,4.82178,10.7407,0.334,3.78358,298,5,
61.6361,4.82239,10.7422,0.334,3.78358,298,5,
61.6361,4.82178,10.7391,0.334,3.78358,298,5,
61.6362,4.81873,10.7422,0.334,3.78358,298,5,
61.6362,4.81689,10.7422,0.334,3.78358,298,5,
61.6362,4.8172,10.7422,0.334,3.78358,298,5,
61.6363,4.81689,10.7376,0.334,3.78358,298,5,
61.6363,4.81659,10.7391,0.334,3.78358,298,5,
61.6363,4.8172,10.7376,0.334,3.78358,298,5,
61.6364,4.8172,10.7407,0.334,3.78358,298,5,
61.6364,4.81659,10.7407,0.334,3.78358,298,5,
61.6364,4.8175,10.7407,0.334,3.78358,298,5,
61.6365,4.8175,10.7391,0.334,3.78358,298,5,
61.6365,4.81781,10.7407,0.334,3.78358,298,5,
61.6365,4.81659,10.7407,0.334,3.78358,298,5,
61.6366,4.81415,10.7376,0.334,3.78358,298,5,
61.6366,4.81201,10.7391,0.334,3.78358,298,5,
61.6366,4.81201,10.7407,0.334,3.78358,298,5,
61.6367,4.81201,10.7285,0.334,3.78358,298,5,
61.6367,4.81232,10.7285,0.334,3.78358,298,5,
61.6367,4.81232,10.73,0.334,3.78358,298,5,
61.6368,4.81201,10.7269,0.334,3.78358,298,5,
61.6368,4.81201,10.73,0.334,3.78358,298,5,
61.6368,4.81201,10.7285,0.334,3.78358,298,5,
61.6369,4.81171,10.7269,0.334,3.78358,298,5,
61.6369,4.81201,10.7285,0.334,3.78358,298,5,
61.6369,4.81232,10.7285,0.334,3.78358,298,5,
61.637,4.80865,10.7269,0.334,3.78358,298,5,
61.637,4.80713,10.7269,0.334,3.78358,298,5,
61.637,4.80713,10.7285,0.334,3.78358,298,5,
61.6371,4.80743,10.73,0.334,3.78358,298,5,
61.6371,4.80682,10.7285,0.334,3.78358,298,5,
61.6371,4.80682,10.7285,0.334,3.78358,298,5,
61.6372,4.80713,10.7254,0.334,3.78358,298,5,
61.6372,4.80682,10.7269,0.334,3.78358,298,5,
61.6372,4.80743,10.7254,0.334,3.78358,298,5,
61.6373,4.80774,10.7269,0.334,3.78358,298,5,
61.6373,4.80652,10.7254,0.334,3.78358,298,5,
61.6373,4.80835,10.7132,0.334,3.78358,298,5,
61.6374,4.80652,10.7162,0.334,3.78358,298,5,
61.6374,4.80255,10.7208,0.334,3.78358,298,5,
61.6374,4.80255,10.7162,0.334,3.78358,298,5,
61.6375,4.80286,10.7193,0.334,3.78358,298,5,
61.6375,4.80286,10.7162,0.334,3.78358,298,5,
61.6375,4.80316,10.7147,0.334,3.78358,298,5,
61.6376,4.80286,10.7178,0.334,3.78358,298,5,
61.6376,4.80255,10.7162,0.334,3.78358,298,5,
61.6376,4.80286,10.7162,0.334,3.78358,298,5,
61.6377,4.80255,10.7162,0.334,3.78358,298,5,
61.6377,4.80225,10.7162,0.334,3.78358,298,5,
61.6377,4.80286,10.7162,0.334,3.78358,298,5,
61.6378,4.80255,10.7193,0.334,3.78358,298,5,
61.6378,4.80286,10.7162,0.334,3.78358,298,5,
61.6378,4.79767,10.7132,0.334,3.78358,298,5,
61.6379,4.79675,10.7162,0.334,3.78358,298,5,
61.6379,4.79828,10.7178,0.334,3.78358,298,5,
61.6379,4.79767,10.7178,0.334,3.78358,298,5,
61.638,4.79767,10.7162,0.334,3.78358,298,5,
61.638,4.79706,10.7178,0.334,3.78358,298,5,
61.638,4.79706,10.7178,0.334,3.78358,298,5,
61.6381,4.79767,10.6995,0.334,3.78358,298,5,
61.6381,4.79736,10.701,0.334,3.78358,298,5,
61.6381,4.79706,10.7056,0.334,3.78358,298,5,
61.6382,4.79797,10.704,0.334,3.78358,298,5,
61.6382,4.79767,10.7056,0.334,3.78358,298,5,
61.6382,4.79675,10.704,0.334,3.78358,298,5,
61.6383,4.79706,10.7025,0.334,3.78358,298,5,
61.6383,4.79736,10.7025,0.334,3.78358,298,5,
61.6383,4.79767,10.7025,0.334,3.78358,298,5,
61.6384,4.7937,10.7025,0.334,3.78358,298,5,
61.6384,4.79248,10.704,0.334,3.78358,298,5,
61.6384,4.79279,10.701,0.334,3.78358,298,5,
61.6385,4.79279,10.7056,0.334,3.78358,298,5,
61.6385,4.79187,10.704,0.334,3.78358,298,5,
61.6385,4.79248,10.7056,0.334,3.78358,298,5,
61.6386,4.79248,10.7071,0.334,3.78358,298,5,
61.6386,4.79187,10.7071,0.334,3.78358,298,5,
61.6386,4.79218,10.704,0.334,3.78358,298,5,
61.6387,4.79218,10.704,0.334,3.78358,298,5,
61.6387,4.79218,10.7056,0.334,3.78358,298,5,
61.6387,4.79248,10.7056,0.334,3.78358,298,5,
61.6388,4.79187,10.7056,0.334,3.78358,298,5,
61.6388,4.79218,10.7025,0.334,3.78358,298,5,
61.6388,4.79279,10.704,0.334,3.78358,298,5,
61.6389,4.79218,10.7056,0.334,3.78358,298,5,
61.6389,4.79279,10.7025,0.334,3.78358,298,5,
61.6389,4.79218,10.6979,0.334,3.78358,298,5,
61.639,4.79279,10.6903,0.334,3.78358,298,5,
61.639,4.79279,10.6934,0.334,3.78358,298,5,
61.639,4.79248,10.6918,0.334,3.78358,298,5,
61.6391,4.79309,10.6918,0.334,3.78358,298,5,
61.6391,4.79218,10.6934,0.334,3.78358,298,5,
61.6391,4.79187,10.6903,0.334,3.78358,298,5,
61.6392,4.79309,10.6903,0.334,3.78358,298,5,
61.6392,4.79279,10.6934,0.334,3.78358,298,5,
61.6392,4.79187,10.6918,0.334,3.78358,298,5,
61.6393,4.79187,10.6903,0.334,3.78358,298,5,
61.6393,4.79187,10.6918,0.334,3.78358,298,5,
61.6393,4.78851,10.6918,0.334,3.78358,298,5,
61.6394,4.78668,10.6918,0.334,3.78358,298,5,
61.6394,4.78668,10.6903,0.334,3.78358,298,5,
61.6394,4.78851,10.6903,0.334,3.78358,298,5,
61.6395,4.78729,10.6934,0.334,3.78358,298,5,
61.6395,4.7876,10.6949,0.334,3.78358,298,5,
61.6395,4.78821,10.6903,0.334,3.78358,298,5,
61.6396,4.78729,10.6903,0.334,3.78358,298,5,
61.6396,4.78729,10.6903,0.334,3.78358,298,5,
61.6396,4.78729,10.6934,0.334,3.78358,298,5,
61.6397,4.78729,10.6949,0.334,3.78358,298,5,
61.6397,4.78729,10.6949,0.334,3.78358,298,5,
61.6397,4.7876,10.6934,0.334,3.78358,298,5,
61.6398,4.78729,10.6918,0.334,3.78358,298,5,
61.6398,4.7879,10.6827,0.334,3.78358,298,5,
61.6398,4.7876,10.6781,0.334,3.78358,298,5,
61.6399,4.7879,10.6812,0.334,3.78358,298,5,
61.6399,4.7876,10.6796,0.334,3.78358,298,5,
61.6399,4.78729,10.6781,0.334,3.78358,298,5,
61.64,4.7876,10.6766,0.334,3.78358,298,5,
61.64,4.78729,10.6781,0.334,3.78358,298,5,
61.64,4.7876,10.6796,0.334,3.78358,298,5,
61.6401,4.78729,10.6766,0.334,3.78358,298,5,
61.6401,4.7879,10.6796,0.334,3.78358,298,5,
61.6401,4.78729,10.6781,0.334,3.78358,298,5,
61.6402,4.78729,10.6827,0.334,3.78358,298,5,
61.6402,4.78821,10.6781,0.334,3.78358,298,5,
61.6402,4.78729,10.6766,0.334,3.78358,298,5,
61.6403,4.7876,10.6766,0.334,3.78358,298,5,
61.6403,4.7876,10.6766,0.334,3.78358,298,5,
61.6403,4.7876,10.6812,0.334,3.78358,298,5,
61.6404,4.78821,10.6766,0.334,3.78358,298,5,
61.6404,4.78729,10.675,0.334,3.78358,298,5,
61.6404,4.78821,10.6659,0.334,3.78358,298,5,
61.6405,4.7879,10.6674,0.334,3.78358,298,5,
61.6405,4.7879,10.6659,0.334,3.78358,298,5,
61.6405,4.78729,10.6689,0.334,3.78358,298,5,
61.6406,4.7879,10.6644,0.334,3.78358,298,5,
61.6406,4.7879,10.6644,0.334,3.78358,298,5,
61.6406,4.7879,10.6659,0.334,3.78358,298,5,
61.6407,4.78302,10.6705,0.334,3.78358,298,5,
61.6407,4.78302,10.6659,0.334,3.78358,298,5,
61.6407,4.78271,10.6659,0.334,3.78358,298,5,
61.6408,4.78302,10.6628,0.334,3.78358,298,5,
61.6408,4.78271,10.6674,0.334,3.78358,298,5,
61.6408,4.78271,10.6659,0.334,3.78358,298,5,
61.6409,4.78241,10.6644,0.334,3.78358,298,5,
61.6409,4.78271,10.6689,0.334,3.78358,298,5,
61.6409,4.78302,10.6522,0.334,3.78358,298,5,
61.641,4.78333,10.6522,0.334,3.78358,298,5,
61.641,4.78271,10.6537,0.334,3.78358,298,5,
61.641,4.7818,10.6506,0.334,3.78358,298,5,
61.6411,4.78241,10.6552,0.334,3.78358,298,5,
61.6411,4.78302,10.6537,0.334,3.78358,298,5,
61.6411,4.78363,10.6552,0.334,3.78358,298,5,
61.6412,4.78302,10.6552,0.334,3.78358,298,5,
61.6412,4.78271,10.6567,0.334,3.78358,298,5,
61.6412,4.78271,10.6583,0.334,3.78358,298,5,
61.6413,4.78271,10.6537,0.334,3.78358,298,5,
61.6413,4.78302,10.6552,0.334,3.78358,298,5,
61.6413,4.77783,10.6567,0.334,3.78358,298,5,
61.6414,4.77905,10.6537,0.334,3.78358,298,5,
61.6414,4.77783,10.643,0.334,3.78358,298,5,
61.6414,4.77844,10.64,0.334,3.78358,298,5,
61.6415,4.77783,10.6415,0.334,3.78358,298,5,
61.6415,4.77783,10.64,0.334,3.78358,298,5,
61.6415,4.77814,10.643,0.334,3.78358,298,5,
61.6416,4.77753,10.6445,0.334,3.78358,298,5,
61.6416,4.77783,10.6415,0.334,3.78358,298,5,
61.6416,4.77814,10.643,0.334,3.78358,298,5,
61.6417,4.77844,10.6461,0.334,3.78358,298,5,
61.6417,4.77814,10.64,0.334,3.78358,298,5,
61.6417,4.77814,10.6415,0.334,3.78358,298,5,
61.6418,4.77753,10.6415,0.334,3.78358,298,5,
61.6418,4.77783,10.6415,0.334,3.78358,298,5,
61.6418,4.77753,10.6308,0.334,3.78358,298,5,
61.6419,4.77783,10.6308,0.334,3.78358,298,5,
61.6419,4.77631,10.6293,0.334,3.78358,298,5,
61.6419,4.77295,10.6323,0.334,3.78358,298,5,
61.642,4.77295,10.6308,0.334,3.78358,298,5,
61.642,4.77295,10.6262,0.334,3.78358,298,5,
61.642,4.77295,10.6293,0.334,3.78358,298,5,
61.6421,4.77295,10.6339,0.334,3.78358,298,5,
61.6421,4.77264,10.6323,0.334,3.78358,298,5,
61.6421,4.77264,10.6293,0.334,3.78358,298,5,
61.6422,4.77234,10.6323,0.334,3.78358,298,5,
61.6422,4.77295,10.6323,0.334,3.78358,298,5,
61.6422,4.77203,10.6262,0.334,3.78358,298,5,
61.6423,4.77295,10.6277,0.334,3.78358,298,5,
61.6423,4.77295,10.6186,0.334,3.78358,298,5,
61.6423,4.77264,10.6155,0.334,3.78358,298,5,
61.6424,4.77264,10.6186,0.334,3.78358,298,5,
61.6424,4.77295,10.6201,0.334,3.78358,298,5,
61.6424,4.77264,10.6186,0.334,3.78358,298,5,
61.6425,4.77325,10.6186,0.334,3.78358,298,5,
61.6425,4.77325,10.6201,0.334,3.78358,298,5,
61.6425,4.77325,10.6186,0.334,3.78358,298,5,
61.6426,4.77203,10.6201,0.334,3.78358,298,5,
61.6426,4.77234,10.6201,0.334,3.78358,298,5,
61.6426,4.77295,10.614,0.334,3.78358,298,5,
61.6427,4.77325,10.6171,0.334,3.78358,298,5,
61.6427,4.77295,10.6171,0.334,3.78358,298,5,
61.6427,4.77264,10.6186,0.334,3.78358,298,5,
61.6428,4.76837,10.6018,0.334,3.78358,298,5,
61.6428,4.76807,10.6064,0.334,3.78358,298,5,
61.6428,4.76807,10.6064,0.334,3.78358,298,5,
61.6429,4.76807,10.6049,0.334,3.78358,298,5,
61.6429,4.76746,10.6064,0.334,3.78358,298,5,
61.6429,4.76776,10.6033,0.334,3.78358,298,5,
61.643,4.76837,10.6079,0.334,3.78358,298,5,
61.643,4.76868,10.6079,0.334,3.78358,298,5,
61.643,4.76807,10.6033,0.334,3.78358,298,5,
61.6431,4.76837,10.6064,0.334,3.78358,298,5,
61.6431,4.76837,10.6094,0.334,3.78358,298,5,
61.6431,4.76807,10.6079,0.334,3.78358,298,5,
61.6432,4.76807,10.6018,0.334,3.78358,298,5,
61.6432,4.76898,10.6064,0.334,3.78358,298,5,
61.6432,4.76807,10.6064,0.334,3.78358,298,5,
61.6433,4.76807,10.5911,0.334,3.78358,298,5,
61.6433,4.76837,10.5927,0.334,3.78358,298,5,
61.6433,4.76807,10.5927,0.334,3.78358,298,5,
61.6434,4.76776,10.5927,0.334,3.78358,298,5,
61.6434,4.76807,10.5988,0.334,3.78358,298,5,
61.6434,4.76807,10.5942,0.334,3.78358,298,5,
61.6435,4.76746,10.5957,0.334,3.78358,298,5,
61.6435,4.76837,10.5957,0.334,3.78358,298,5,
61.6435,4.76776,10.5927,0.334,3.78358,298,5,
61.6436,4.76746,10.5911,0.334,3.78358,298,5,
61.6436,4.77264,10.5942,0.334,3.78358,298,5,
61.6436,4.77325,10.5942,0.334,3.78358,298,5,
61.6437,4.77264,10.5927,0.334,3.78358,298,5,
61.6437,4.77264,10.5957,0.334,3.78358,298,5,
61.6437,4.77295,10.5942,0.334,3.78358,298,5,
61.6438,4.77264,10.5774,0.334,3.78358,298,5,
61.6438,4.77295,10.585,0.334,3.78358,298,5,
61.6438,4.77325,10.582,0.334,3.78358,298,5,
61.6439,4.77264,10.5774,0.334,3.78358,298,5,
61.6439,4.77234,10.5804,0.334,3.78358,298,5,
61.6439,4.77295,10.5789,0.334,3.78358,298,5,
61.644,4.77295,10.5774,0.334,3.78358,298,5,
61.644,4.77295,10.5789,0.334,3.78358,298,5,
61.644,4.77295,10.5774,0.334,3.78358,298,5,
61.6441,4.77295,10.582,0.334,3.78358,298,5,
61.6441,4.77295,10.582,0.334,3.78358,298,5,
61.6441,4.77264,10.5789,0.334,3.78358,298,5,
61.6442,4.77295,10.5789,0.334,3.78358,298,5,
61.6442,4.77325,10.585,0.334,3.78358,298,5,
61.6442,4.77325,10.5743,0.334,3.78358,298,5,
61.6443,4.77325,10.5682,0.334,3.78358,298,5,
61.6443,4.77325,10.5698,0.334,3.78358,298,5,
61.6443,4.77753,10.5682,0.334,3.78358,298,5,
61.6444,4.77783,10.5698,0.334,3.78358,298,5,
61.6444,4.77783,10.5698,0.334,3.78358,298,5,
61.6444,4.77753,10.5682,0.334,3.78358,298,5,
61.6445,4.77753,10.5682,0.334,3.78358,298,5,
61.6445,4.77753,10.5667,0.334,3.78358,298,5,
61.6445,4.77783,10.5682,0.334,3.78358,298,5,
61.6446,4.77814,10.5682,0.334,3.78358,298,5,
61.6446,4.77814,10.5698,0.334,3.78358,298,5,
61.6446,4.77783,10.5682,0.334,3.78358,298,5,
61.6447,4.77814,10.5698,0.334,3.78358,298,5,
61.6447,4.77722,10.5698,0.334,3.78358,298,5,
61.6447,4.77783,10.5591,0.334,3.78358,298,5,
61.6448,4.77936,10.5576,0.334,3.78358,298,5,
61.6448,4.78302,10.553,0.334,3.78358,298,5,
61.6448,4.7821,10.5591,0.334,3.78358,298,5,
61.6449,4.78271,10.556,0.334,3.78358,298,5,
61.6449,4.78241,10.5545,0.334,3.78358,298,5,
61.6449,4.78271,10.5515,0.334,3.78358,298,5,
61.645,4.78271,10.5591,0.334,3.78358,298,5,
61.645,4.78271,10.5576,0.334,3.78358,298,5,
61.645,4.78333,10.5545,0.334,3.78358,298,5,
61.6451,4.78241,10.5545,0.334,3.78358,298,5,
61.6451,4.78271,10.5576,0.334,3.78358,298,5,
61.6451,4.78607,10.5591,0.334,3.78358,298,5,
61.6452,4.7879,10.5576,0.334,3.78358,298,5,
61.6452,4.7876,10.5545,0.334,3.78358,298,5,
61.6452,4.78699,10.5408,0.334,3.78358,298,5,
61.6453,4.78699,10.5423,0.334,3.78358,298,5,
61.6453,4.7876,10.5454,0.334,3.78358,298,5,
61.6453,4.7876,10.5438,0.334,3.78358,298,5,
61.6454,4.78821,10.5423,0.334,3.78358,298,5,
61.6454,4.7876,10.5423,0.334,3.78358,298,5,
61.6454,4.7876,10.5423,0.334,3.78358,298,5,
61.6455,4.79248,10.5438,0.334,3.78358,298,5,
61.6455,4.79218,10.5454,0.334,3.78358,298,5,
61.6455,4.79218,10.5423,0.334,3.78358,298,5,
61.6456,4.79309,10.5469,0.334,3.78358,298,5,
61.6456,4.79218,10.5423,0.334,3.78358,298,5,
61.6456,4.79279,10.5408,0.334,3.78358,298,5,
61.6457,4.79248,10.5423,0.334,3.78358,298,5,
61.6457,4.79279,10.5301,0.334,3.78358,298,5,
61.6457,4.7934,10.5316,0.334,3.78358,298,5,
61.6458,4.79767,10.527,0.334,3.78358,298,5,
61.6458,4.79736,10.5331,0.334,3.78358,298,5,
61.6458,4.79797,10.5316,0.334,3.78358,298,5,
61.6459,4.79675,10.5316,0.334,3.78358,298,5,
61.6459,4.79736,10.5347,0.334,3.78358,298,5,
61.6459,4.79675,10.5347,0.334,3.78358,298,5,
61.646,4.79736,10.5316,0.334,3.78358,298,5,
61.646,4.79858,10.5316,0.334,3.78358,298,5,
61.646,4.80194,10.5331,0.334,3.78358,298,5,
61.6461,4.80225,10.5331,0.334,3.78358,298,5,
61.6461,4.80225,10.5331,0.334,3.78358,298,5,
61.6461,4.80194,10.5316,0.334,3.78358,298,5,
61.6462,4.80194,10.5225,0.334,3.78358,298,5,
61.6462,4.80194,10.5164,0.334,3.78358,298,5,
61.6462,4.80225,10.5225,0.334,3.78358,298,5,
61.6463,4.80591,10.5209,0.334,3.78358,298,5,
61.6463,4.80774,10.5179,0.334,3.78358,298,5,
61.6463,4.80743,10.5194,0.334,3.78358,298,5,
61.6464,4.80743,10.5209,0.334,3.78358,298,5,
61.6464,4.80713,10.5225,0.334,3.78358,298,5,
61.6464,4.80743,10.5179,0.334,3.78358,298,5,
61.6465,4.80713,10.5194,0.334,3.78358,298,5,
61.6465,4.80835,10.5179,0.334,3.78358,298,5,
61.6465,4.81201,10.5194,0.334,3.78358,298,5,
61.6466,4.81232,10.5179,0.334,3.78358,298,5,
61.6466,4.81232,10.5057,0.334,3.78358,298,5,
61.6466,4.81201,10.5072,0.334,3.78358,298,5,
61.6467,4.81232,10.5042,0.334,3.78358,298,5,
61.6467,4.81262,10.5072,0.334,3.78358,298,5,
61.6467,4.81262,10.5103,0.334,3.78358,298,5,
61.6468,4.8175,10.5057,0.334,3.78358,298,5,
61.6468,4.8172,10.5072,0.334,3.78358,298,5,
61.6468,4.8175,10.5103,0.334,3.78358,298,5,
61.6469,4.81689,10.5057,0.334,3.78358,298,5,
61.6469,4.8175,10.5087,0.334,3.78358,298,5,
61.6469,4.8175,10.5057,0.334,3.78358,298,5,
61.647,4.82086,10.5087,0.334,3.78358,298,5,
61.647,4.82208,10.5087,0.334,3.78358,298,5,
61.647,4.82208,10.4965,0.334,3.78358,298,5,
61.6471,4.82147,10.4919,0.334,3.78358,298,5,
61.6471,4.82208,10.495,0.334,3.78358,298,5,
61.6471,4.82178,10.4965,0.334,3.78358,298,5,
61.6472,4.82178,10.4965,0.334,3.78358,298,5,
61.6472,4.82697,10.495,0.334,3.78358,298,5,
61.6472,4.82727,10.4935,0.334,3.78358,298,5,
61.6473,4.82697,10.4935,0.334,3.78358,298,5,
61.6473,4.82697,10.4919,0.334,3.78358,298,5,
61.6473,4.82666,10.4919,0.334,3.78358,298,5,
61.6474,4.82635,10.4965,0.334,3.78358,298,5,
61.6474,4.82758,10.4919,0.334,3.78358,298,5,
61.6474,4.83215,10.4935,0.334,3.78358,298,5,
61.6475,4.83185,10.4797,0.334,3.78358,298,5,
61.6475,4.83246,10.4813,0.334,3.78358,298,5,
61.6475,4.83185,10.4797,0.334,3.78358,298,5,
61.6476,4.83185,10.4797,0.334,3.78358,298,5,
61.6476,4.83246,10.4828,0.334,3.78358,298,5,
61.6476,4.83643,10.4797,0.334,3.78358,298,5,
61.6477,4.83734,10.4843,0.334,3.78358,298,5,
61.6477,4.83643,10.4828,0.334,3.78358,298,5,
61.6477,4.83643,10.4813,0.334,3.78358,298,5,
61.6478,4.83704,10.4828,0.334,3.78358,298,5,
61.6478,4.83643,10.4828,0.334,3.78358,298,5,
61.6478,4.84192,10.4813,0.334,3.78358,298,5,
61.6479,4.84161,10.4828,0.334,3.78358,298,5,
61.6479,4.84192,10.4721,0.334,3.78358,298,5,
61.6479,4.84161,10.4691,0.334,3.78358,298,5,
61.648,4.84131,10.4691,0.334,3.78358,298,5,
61.648,4.84222,10.4706,0.334,3.78358,298,5,
61.648,4.84589,10.4736,0.334,3.78358,298,5,
61.6481,4.8465,10.4691,0.334,3.78358,298,5,
61.6481,4.8468,10.4706,0.334,3.78358,298,5,
61.6481,4.8465,10.4706,0.334,3.78358,298,5,
61.6482,4.84619,10.4706,0.334,3.78358,298,5,
61.6482,4.8468,10.4706,0.334,3.78358,298,5,
61.6482,4.85077,10.4706,0.334,3.78358,298,5,
61.6483,4.85107,10.4706,0.334,3.78358,298,5,
61.6483,4.85107,10.4691,0.334,3.78358,298,5,
61.6483,4.85138,10.4584,0.334,3.78358,298,5,
61.6484,4.85199,10.4614,0.334,3.78358,298,5,
61.6484,4.85199,10.4584,0.334,3.78358,298,5,
61.6484,4.85565,10.4614,0.334,3.78358,298,5,
61.6485,4.85626,10.4568,0.334,3.78358,298,5,
61.6485,4.85626,10.4568,0.334,3.78358,298,5,
61.6485,4.85687,10.4568,0.334,3.78358,298,5,
61.6486,4.85626,10.4553,0.334,3.78358,298,5,
61.6486,4.86115,10.4599,0.334,3.78358,298,5,
61.6486,4.86084,10.4599,0.334,3.78358,298,5,
61.6487,4.86115,10.4599,0.334,3.78358,298,5,
61.6487,4.86115,10.4584,0.334,3.78358,298,5,
61.6487,4.86176,10.4492,0.334,3.78358,298,5,
61.6488,4.86481,10.4446,0.334,3.78358,298,5,
61.6488,4.86633,10.4462,0.334,3.78358,298,5,
61.6488,4.86603,10.4446,0.334,3.78358,298,5,
61.6489,4.86603,10.4462,0.334,3.78358,298,5,
61.6489,4.86633,10.4462,0.334,3.78358,298,5,
61.6489,4.87091,10.4446,0.334,3.78358,298,5,
61.649,4.87091,10.4431,0.334,3.78358,298,5,
61.649,4.87091,10.4446,0.334,3.78358,298,5,
61.649,4.87122,10.4477,0.334,3.78358,298,5,
61.6491,4.87091,10.4462,0.334,3.78358,298,5,
61.6491,4.8761,10.4446,0.334,3.78358,298,5,
61.6491,4.8761,10.4477,0.334,3.78358,298,5,
61.6492,4.87579,10.4401,0.334,3.78358,298,5,
61.6492,4.8764,10.434,0.334,3.78358,298,5,
61.6492,4.87671,10.4309,0.334,3.78358,298,5,
61.6493,4.88068,10.434,0.334,3.78358,298,5,
61.6493,4.88098,10.4324,0.334,3.78358,298,5,
61.6493,4.88037,10.434,0.334,3.78358,298,5,
61.6494,4.88037,10.4355,0.334,3.78358,298,5,
61.6494,4.88464,10.4324,0.334,3.78358,298,5,
61.6494,4.88525,10.437,0.334,3.78358,298,5,
61.6495,4.88556,10.4279,0.334,3.78358,298,5,
61.6495,4.88525,10.4355,0.334,3.78358,298,5,
61.6495,4.88953,10.434,0.334,3.78358,298,5,
61.6496,4.89044,10.4324,0.334,3.78358,298,5,
61.6496,4.89075,10.4248,0.334,3.78358,298,5,
61.6496,4.89105,10.4218,0.334,3.78358,298,5,
61.6497,4.89197,10.4233,0.334,3.78358,298,5,
61.6497,4.89624,10.4248,0.334,3.78358,298,5,
61.6497,4.89532,10.4233,0.334,3.78358,298,5,
61.6498,4.89624,10.4233,0.334,3.78358,298,5,
61.6498,4.89532,10.4187,0.334,3.78358,298,5,
61.6498,4.90021,10.4202,0.334,3.78358,298,5,
61.6499,4.90021,10.4202,0.334,3.78358,298,5,
61.6499,4.8999,10.4218,0.334,3.78358,298,5,
61.6499,4.8999,10.4187,0.334,3.78358,298,5,
61.65,4.90509,10.4202,0.334,3.78358,298,5,
61.65,4.9054,10.4218,0.334,3.78358,298,5,
61.65,4.90509,10.4218,0.334,3.78358,298,5,
61.6501,4.9054,10.4065,0.334,3.78358,298,5,
61.6501,4.90997,10.408,0.334,3.78358,298,5,
61.6501,4.90967,10.4141,0.334,3.78358,298,5,
61.6502,4.90997,10.4095,0.334,3.78358,298,5,
61.6502,4.91089,10.408,0.334,3.78358,298,5,
61.6502,4.91486,10.408,0.334,3.78358,298,5,
61.6503,4.91516,10.4111,0.334,3.78358,298,5,
61.6503,4.91516,10.4095,0.334,3.78358,298,5,
61.6503,4.91608,10.4095,0.334,3.78358,298,5,
61.6504,4.91974,10.408,0.334,3.78358,298,5,
61.6504,4.92004,10.4126,0.334,3.78358,298,5,
61.6504,4.91974,10.4111,0.334,3.78358,298,5,
61.6505,4.92371,10.4126,0.334,3.78358,298,5,
61.6505,4.92493,10.3958,0.334,3.78358,298,5,
61.6505,4.92432,10.3958,0.334,3.78358,298,5,
61.6506,4.92523,10.3973,0.334,3.78358,298,5,
61.6506,4.92889,10.3958,0.334,3.78358,298,5,
61.6506,4.9292,10.3989,0.334,3.78358,298,5,
61.6507,4.9292,10.3958,0.334,3.78358,298,5,
61.6507,4.9292,10.3943,0.334,3.78358,298,5,
61.6507,4.93011,10.3973,0.334,3.78358,298,5,
61.6508,4.93408,10.3973,0.334,3.78358,298,5,
61.6508,4.93439,10.3973,0.334,3.78358,298,5,
61.6508,4.93408,10.3973,0.334,3.78358,298,5,
61.6509,4.93958,10.3989,0.334,3.78358,298,5,
61.6509,4.93927,10.3897,0.334,3.78358,298,5,
61.6509,4.93958,10.3836,0.334,3.78358,298,5,
61.651,4.93958,10.3806,0.334,3.78358,298,5,
61.651,4.94446,10.3821,0.334,3.78358,298,5,
61.651,4.94507,10.3851,0.334,3.78358,298,5,
61.6511,4.94385,10.3836,0.334,3.78358,298,5,
61.6511,4.94781,10.3836,0.334,3.78358,298,5,
61.6511,4.94965,10.3806,0.334,3.78358,298,5,
61.6512,4.94904,10.3836,0.334,3.78358,298,5,
61.6512,4.94965,10.3882,0.334,3.78358,298,5,
61.6512,4.95422,10.3867,0.334,3.78358,298,5,
61.6513,4.95422,10.3821,0.334,3.78358,298,5,
61.6513,4.95453,10.3745,0.334,3.78358,298,5,
61.6513,4.95789,10.3714,0.334,3.78358,298,5,
61.6514,4.95972,10.3745,0.334,3.78358,298,5,
61.6514,4.95911,10.3683,0.334,3.78358,298,5,
61.6514,4.96002,10.3729,0.334,3.78358,298,5,
61.6515,4.96368,10.3745,0.334,3.78358,298,5,
61.6515,4.96368,10.3729,0.334,3.78358,298,5,
61.6515,4.96399,10.3729,0.334,3.78358,298,5,
61.6516,4.96887,10.376,0.334,3.78358,298,5,
61.6516,4.96887,10.3714,0.334,3.78358,298,5,
61.6516,4.96857,10.3683,0.334,3.78358,298,5,
61.6517,4.97284,10.3607,0,3.78358,298,5,
61.6517,4.97406,10.3592,0,3.78358,298,5,
61.6517,4.97406,10.3592,0,3.78358,298,5,
61.6518,4.97528,10.3622,0,3.78358,298,5,
61.6518,4.97864,10.3592,0,3.78358,298,5,
61.6518,4.97894,10.3622,0,3.78358,298,5,
61.6519,4.97833,10.3592,0,3.78358,298,5,
61.6519,4.98383,10.3622,0,3.78358,298,5,
61.6519,4.98383,10.3622,0,3.78358,298,5,
61.652,4.98413,10.3607,0,3.78358,298,5,
61.652,4.9881,10.3561,0,3.78358,298,5,
61.652,4.98871,10.35,0,3.78358,298,5,
61.6521,4.98871,10.3455,0,3.78358,298,5,
61.6521,4.99207,10.3455,0,3.78358,298,5,
61.6521,4.99329,10.35,0,3.78358,298,5,
61.6522,4.99329,10.347,0,3.78358,298,5,
61.6522,4.99451,10.3439,0,3.78358,298,5,
61.6522,4.99847,10.35,0,3.78358,298,5,
61.6523,4.99878,10.3455,0,3.78358,298,5,
61.6523,4.99847,10.3485,0,3.78358,298,5,
61.6523,5.00305,10.347,0,3.78358,298,5,
61.6524,5.00397,10.3378,0,3.78358,298,5,
61.6524,5.00336,10.3348,0,3.78358,298,5,
61.6524,5.00793,10.3333,0,3.78358,298,5,
61.6525,5.00854,10.3348,0,3.78358,298,5,
61.6525,5.00854,10.3378,0,3.78358,298,5,
61.6525,5.01282,10.3363,0,3.78358,298,5,
61.6526,5.01373,10.3348,0,3.78358,298,5,
61.6526,5.01343,10.3348,0,3.78358,298,5,
61.6526,5.01678,10.3378,0,3.78358,298,5,
61.6527,5.01862,10.3317,0,3.78358,299,5,
61.6527,5.01831,10.3363,0,3.78358,299,5,
61.6527,5.02167,10.321,0,3.78358,299,5,
61.6528,5.02289,10.3226,0,3.78358,299,5,
61.6528,5.0235,10.3226,0,3.78358,299,5,
61.6528,5.02411,10.321,0,3.78358,299,5,
61.6529,5.02808,10.3241,0,3.78358,299,5,
61.6529,5.02716,10.3226,0,3.78358,299,5,
61.6529,5.0293,10.321,0,3.78358,299,5,
61.653,5.03265,10.321,0,3.78358,299,5,
61.653,5.03204,10.3226,0,3.78358,299,5,
61.653,5.03265,10.321,0,3.78358,299,5,
61.6531,5.03845,10.3241,0,3.78358,299,5,
61.6531,5.03754,10.3104,0,3.78358,299,5,
61.6531,5.03784,10.3027,0,3.78358,299,5,
61.6532,5.04303,10.3119,0,3.78358,299,5,
61.6532,5.04211,10.3073,0,3.78358,299,5,
61.6532,5.04211,10.3088,0,3.78358,299,5,
61.6533,5.0473,10.3088,0,3.78358,299,5,
61.6533,5.04822,10.3104,0,3.78358,299,5,
61.6533,5.0473,10.3104,0,3.78358,299,5,
61.6534,5.05219,10.3119,0,3.78358,299,5,
61.6534,5.05219,10.3165,0,3.78358,299,5,
61.6534,5.05188,10.3119,0,3.78358,299,5,
61.6535,5.05554,10.3134,0,3.78358,299,5,
61.6535,5.05737,10.3012,0,3.78358,299,5,
61.6535,5.05737,10.2997,0,3.78358,299,5,
61.6536,5.05798,10.2966,0,3.78358,299,5,
61.6536,5.06226,10.2951,0,3.78358,299,5,
61.6536,5.06195,10.2921,0,3.78358,299,5,
61.6537,5.06287,10.2997,0,3.78358,299,5,
61.6537,5.06683,10.2982,0,3.78358,299,5,
61.6537,5.06683,10.2997,0,3.78358,299,5,
61.6538,5.06683,10.3012,0,3.78358,299,5,
61.6538,5.07172,10.2997,0,3.78358,299,5,
61.6538,5.07172,10.2982,0,3.78358,299,5,
61.6539,5.07141,10.2997,0,3.78358,299,5,
61.6539,5.0766,10.286,0,3.78358,299,5,
61.6539,5.07782,10.2844,0,3.78358,299,5,
61.654,5.0769,10.2875,0,3.78358,299,5,
61.654,5.07996,10.2875,0,3.78358,299,5,
61.654,5.08148,10.2875,0,3.78358,299,5,
61.6541,5.08575,10.289,0,3.78358,299,5,
61.6541,5.08636,10.2844,0,3.78358,299,5,
61.6541,5.08636,10.2844,0,3.78358,299,5,
61.6542,5.08606,10.2844,0,3.78358,299,5,
61.6542,5.09125,10.2905,0,3.78358,299,5,
61.6542,5.09125,10.2875,0,3.78358,299,5,
61.6543,5.09064,10.286,0,3.78358,299,5,
61.6543,5.09583,10.2844,0,3.78358,299,5,
61.6543,5.09613,10.2722,0,3.78358,299,5,
61.6544,5.09552,10.2753,0,3.78358,299,5,
61.6544,5.09674,10.2753,0,3.78358,299,5,
61.6544,5.10101,10.2753,0,3.78358,299,5,
61.6545,5.10071,10.2737,0,3.78358,299,5,
61.6545,5.10101,10.2753,0,3.78358,299,5,
61.6545,5.10559,10.2722,0,3.78358,299,5,
61.6546,5.10498,10.2768,0,3.78358,299,5,
61.6546,5.10529,10.2737,0,3.78358,299,5,
61.6546,5.1059,10.2753,0,3.78358,299,5,
61.6547,5.11047,10.2768,0,3.78358,299,5,
61.6547,5.11108,10.2722,0,3.78358,299,5,
61.6547,5.11078,10.2646,0,3.78358,299,5,
61.6548,5.1123,10.2631,0,3.78358,299,5,
61.6548,5.11475,10.2585,0,3.78358,299,5,
61.6548,5.11597,10.26,0,3.78358,299,5,
61.6549,5.11505,10.26,0,3.78358,299,5,
61.6549,5.12054,10.2646,0,3.78358,299,5,
61.6549,5.12054,10.2615,0,3.78358,299,5,
61.655,5.12085,10.26,0,3.78358,299,5,
61.655,5.12054,10.2646,0,3.78358,299,5,
61.655,5.12573,10.2631,0,3.78358,299,5,
61.6551,5.12512,10.2646,0,3.78358,299,5,
61.6551,5.12543,10.26,0,3.78358,299,5,
61.6551,5.12634,10.2615,0,3.78358,299,5,
61.6552,5.13062,10.2493,0,3.78358,299,5,
61.6552,5.13,10.2509,0,3.78358,299,5,
61.6552,5.13031,10.2478,0,3.78358,299,5,
61.6553,5.13214,10.2509,0,3.78358,299,5,
61.6553,5.1355,10.2493,0,3.78358,299,5,
61.6553,5.13489,10.2493,0,3.78358,299,5,
61.6554,5.1355,10.2478,0,3.78358,299,5,
61.6554,5.13489,10.2478,0,3.78358,299,5,
61.6554,5.13458,10.2509,0,3.78358,299,5,
61.6555,5.13489,10.2509,0,3.78358,299,5,
61.6555,5.13519,10.2509,0,3.78358,299,5,
61.6555,5.13519,10.2478,0,3.78358,299,5,
61.6556,5.13428,10.2402,0,3.78358,299,5,
61.6556,5.13458,10.2356,0,3.78358,299,5,
61.6556,5.1355,10.2402,0,3.78358,299,5,
61.6557,5.1358,10.2371,0,3.78358,299,5,
61.6557,5.1355,10.2371,2.394,3.78358,299,5,
61.6557,5.13397,10.2386,2.394,3.78358,299,5,
61.6558,5.1355,10.2371,2.394,3.78358,299,5,
61.6558,5.13519,10.2371,2.394,3.78358,299,5,
61.6558,5.1355,10.2402,2.394,3.78358,299,5,
61.6559,5.14923,10.2356,2.394,3.78358,299,5,
61.6559,5.15472,10.2371,2.394,3.78358,299,5,
61.6559,5.15503,10.2341,2.394,3.78358,299,5,
61.656,5.15472,10.2386,2.394,3.78358,299,5,
61.656,5.15839,10.2219,2.394,3.78358,299,5,
61.656,5.15961,10.2249,2.394,3.78358,299,5,
61.6561,5.15961,10.2264,2.394,3.78358,299,5,
61.6561,5.16235,10.2219,2.394,3.78358,299,5,
61.6561,5.16449,10.2234,2.394,3.78358,299,5,
61.6562,5.16479,10.2249,2.394,3.78358,299,5,
61.6562,5.16449,10.2264,2.394,3.78358,299,5,
61.6562,5.16418,10.228,2.394,3.78358,299,5,
61.6563,5.16846,10.2234,2.394,3.78358,299,5,
61.6563,5.16998,10.2234,2.394,3.78358,299,5,
61.6563,5.16937,10.228,2.394,3.78358,299,5,
61.6564,5.16937,10.2249,2.394,3.78358,299,5,
61.6564,5.16907,10.2127,2.394,3.78358,299,5,
61.6564,5.16937,10.2112,2.394,3.78358,299,5,
61.6565,5.17426,10.2142,2.394,3.78358,299,5,
61.6565,5.17456,10.2112,2.394,3.78358,299,5,
61.6565,5.17426,10.2127,2.394,3.78358,299,5,
61.6566,5.17395,10.2142,2.394,3.78358,299,5,
61.6566,5.17426,10.2127,2.394,3.78358,299,5,
61.6566,5.17395,10.2142,2.394,3.78358,299,5,
61.6567,5.17578,10.2112,2.394,3.78358,299,5,
61.6567,5.17944,10.2127,2.394,3.78358,299,5,
61.6567,5.17914,10.2142,2.394,3.78358,299,5,
61.6568,5.17883,10.2142,2.394,3.78358,299,5,
61.6568,5.17914,10.2142,2.394,3.78358,299,5,
61.6568,5.17914,10.2036,2.394,3.78358,299,5,
61.6569,5.17883,10.2036,2.394,3.78358,299,5,
61.6569,5.17883,10.202,2.394,3.78358,299,5,
61.6569,5.17914,10.202,2.394,3.78358,299,5,
61.657,5.17975,10.199,2.394,3.78358,299,5,
61.657,5.18372,10.2005,2.394,3.78358,299,5,
61.657,5.18372,10.199,2.394,3.78358,299,5,
61.6571,5.18433,10.2005,2.394,3.78358,299,5,
61.6571,5.18372,10.2005,2.394,3.78358,299,5,
61.6571,5.18799,10.2005,2.394,3.78358,299,5,
61.6572,5.18921,10.2005,2.394,3.78358,299,5,
61.6572,5.18921,10.2005,2.394,3.78358,299,5,
61.6572,5.1889,10.2036,2.394,3.78358,299,5,
61.6573,5.18982,10.1913,2.394,3.78358,299,5,
61.6573,5.18921,10.1883,2.394,3.78358,299,5,
61.6573,5.18951,10.1883,2.394,3.78358,299,5,
61.6574,5.18951,10.1898,2.394,3.78358,299,5,
61.6574,5.19348,10.1898,2.394,3.78358,299,5,
61.6574,5.1944,10.1898,2.394,3.78358,299,5,
61.6575,5.19348,10.1898,2.394,3.78358,299,5,
61.6575,5.19318,10.1868,2.394,3.78358,299,5,
61.6575,5.19379,10.1913,2.394,3.78358,299,5,
61.6576,5.19379,10.1868,2.394,3.78358,299,5,
61.6576,5.19348,10.1913,2.394,3.78358,299,5,
61.6576,5.19379,10.1883,2.394,3.78358,299,5,
61.6577,5.19409,10.1883,2.394,3.78358,299,5,
61.6577,5.19562,10.1837,2.394,3.78358,299,5,
61.6577,5.19897,10.1776,2.394,3.78358,299,5,
61.6578,5.19897,10.1791,2.394,3.78358,299,5,
61.6578,5.19867,10.1776,2.394,3.78358,299,5,
61.6578,5.19867,10.1761,2.394,3.78358,299,5,
61.6579,5.19897,10.1776,2.394,3.78358,299,5,
61.6579,5.19897,10.1807,2.394,3.78358,299,5,
61.6579,5.19836,10.1776,2.394,3.78358,299,5,
61.658,5.19867,10.1791,2.394,3.78358,299,5,
61.658,5.19897,10.173,2.394,3.78358,299,5,
61.658,5.19958,10.1776,2.394,3.78358,299,5,
61.6581,5.19836,10.1791,2.394,3.78358,299,5,
61.6581,5.19897,10.1746,2.394,3.78358,299,5,
61.6581,5.19867,10.1761,2.394,3.78358,299,5,
61.6582,5.20355,10.1639,2.394,3.78358,299,5,
61.6582,5.20325,10.1669,2.394,3.78358,299,5,
61.6582,5.20386,10.1639,2.394,3.78358,299,5,
61.6583,5.20325,10.1608,2.394,3.78358,299,5,
61.6583,5.20386,10.1654,2.394,3.78358,299,5,
61.6583,5.20386,10.1639,2.394,3.78358,299,5,
61.6584,5.20386,10.1639,2.394,3.78358,299,5,
61.6584,5.20355,10.1624,2.394,3.78358,299,5,
61.6584,5.20416,10.1639,2.394,3.78358,299,5,
61.6585,5.20386,10.1654,2.394,3.78358,299,5,
61.6585,5.20386,10.1639,2.394,3.78358,299,5,
61.6585,5.20416,10.1639,2.394,3.78358,299,5,
61.6586,5.20386,10.1639,2.394,3.78358,299,5,
61.6586,5.20416,10.1639,2.394,3.78358,299,5,
61.6586,5.20447,10.1532,2.394,3.78358,299,5,
61.6587,5.20355,10.1517,2.394,3.78358,299,5,
61.6587,5.20447,10.1517,2.394,3.78358,299,5,
61.6587,5.20355,10.1532,2.394,3.78358,299,5,
61.6588,5.20355,10.1517,2.394,3.78358,299,5,
61.6588,5.20386,10.1532,2.394,3.78358,299,5,
61.6588,5.20355,10.1532,2.394,3.78358,299,5,
61.6589,5.20386,10.1547,2.394,3.78358,299,5,
61.6589,5.20447,10.1532,2.394,3.78358,299,5,
61.6589,5.20386,10.1517,2.394,3.78358,299,5,
61.659,5.20386,10.1517,2.394,3.78358,299,5,
61.659,5.20508,10.1563,2.394,3.78358,299,5,
61.659,5.20386,10.1532,2.394,3.78358,299,5,
61.6591,5.20355,10.1532,2.394,3.78358,299,5,
61.6591,5.20386,10.1395,2.394,3.78358,299,5,
61.6591,5.20386,10.1364,2.394,3.78358,299,5,
61.6592,5.20355,10.1379,2.394,3.78358,299,5,
61.6592,5.20386,10.144,2.394,3.78358,299,5,
61.6592,5.20355,10.1425,2.394,3.78358,299,5,
61.6593,5.20416,10.1395,2.394,3.78358,299,5,
61.6593,5.20447,10.1395,2.394,3.78358,299,5,
61.6593,5.20386,10.1379,2.394,3.78358,299,5,
61.6594,5.20355,10.1379,2.394,3.78358,299,5,
61.6594,5.20355,10.141,2.394,3.78358,299,5,
61.6594,5.20386,10.141,2.394,3.78358,299,5,
61.6595,5.20386,10.1395,2.394,3.78358,299,5,
61.6595,5.20355,10.1379,2.394,3.78358,299,5,
61.6595,5.20447,10.1395,2.394,3.78358,299,5,
61.6596,5.20416,10.1303,2.394,3.78358,299,5,
61.6596,5.20325,10.1288,2.394,3.78358,299,5,
61.6596,5.20447,10.1257,2.394,3.78358,299,5,
61.6597,5.20386,10.1257,2.394,3.78358,299,5,
61.6597,5.20325,10.1257,2.394,3.78358,299,5,
61.6597,5.20325,10.1257,2.394,3.78358,299,5,
61.6598,5.20111,10.1257,2.394,3.78358,299,5,
61.6598,5.19897,10.1273,2.394,3.78358,299,5,
61.6598,5.19958,10.1288,2.394,3.78358,299,5,
61.6599,5.19867,10.1273,2.394,3.78358,299,5,
61.6599,5.19867,10.1273,2.394,3.78358,299,5,
61.6599,5.19836,10.1242,2.394,3.78358,299,5,
61.66,5.19836,10.1273,2.394,3.78358,299,5,
61.66,5.19897,10.1273,2.394,3.78358,299,5,
61.66,5.19897,10.1196,2.394,3.78358,299,5,
61.6601,5.19867,10.1151,2.394,3.78358,299,5,
61.6601,5.19867,10.1151,2.394,3.78358,299,5,
61.6601,5.19867,10.1166,2.394,3.78358,299,5,
61.6602,5.19836,10.1135,2.394,3.78358,299,5,
61.6602,5.19562,10.1151,2.394,3.78358,299,5,
61.6602,5.19348,10.1135,2.394,3.78358,299,5,
61.6603,5.19409,10.1181,2.394,3.78358,299,5,
61.6603,5.19379,10.1135,2.394,3.78358,299,5,
61.6603,5.19379,10.1151,2.394,3.78358,299,5,
61.6604,5.1944,10.1135,2.394,3.78358,299,5,
61.6604,5.19409,10.1166,2.394,3.78358,299,5,
61.6604,5.19379,10.1181,2.394,3.78358,299,5,
61.6605,5.1944,10.1181,2.394,3.78358,299,5,
61.6605,5.19379,10.1028,2.394,3.78358,299,5,
61.6605,5.18921,10.1044,2.394,3.78358,299,5,
61.6606,5.18829,10.1059,2.394,3.78358,299,5,
61.6606,5.18921,10.1059,2.394,3.78358,299,5,
61.6606,5.18921,10.1028,2.394,3.78358,299,5,
61.6607,5.1889,10.1059,2.394,3.78358,299,5,
61.6607,5.1889,10.1028,2.394,3.78358,299,5,
61.6607,5.1889,10.1028,2.394,3.78358,299,5,
61.6608,5.18921,10.1028,2.394,3.78358,299,5,
61.6608,5.18433,10.1059,2.394,3.78358,299,5,
61.6608,5.18402,10.1044,2.394,3.78358,299,5,
61.6609,5.18402,10.1028,2.394,3.78358,299,5,
61.6609,5.18463,10.1013,2.394,3.78358,299,5,
61.6609,5.18433,10.0998,2.394,3.78358,299,5,
61.661,5.18433,10.0906,2.394,3.78358,299,5,
61.661,5.18463,10.0891,2.394,3.78358,299,5,
61.661,5.17944,10.0891,2.394,3.78358,299,5,
61.6611,5.17944,10.0922,2.394,3.78358,299,5,
61.6611,5.18036,10.0922,2.394,3.78358,299,5,
61.6611,5.17944,10.0922,2.394,3.78358,299,5,
61.6612,5.17944,10.0891,2.394,3.78358,299,5,
61.6612,5.18036,10.0906,2.394,3.78358,299,5,
61.6612,5.17914,10.0937,2.394,3.78358,299,5,
61.6613,5.17517,10.0891,2.394,3.78358,299,5,
61.6613,5.17487,10.0906,2.394,3.78358,299,5,
61.6613,5.17456,10.0891,2.394,3.78358,299,5,
61.6614,5.17487,10.0906,2.394,3.78358,299,5,
61.6614,5.17487,10.0937,2.394,3.78358,299,5,
61.6614,5.17365,10.0815,2.394,3.78358,299,5,
61.6615,5.16937,10.0784,2.394,3.78358,299,5,
61.6615,5.16907,10.0769,2.394,3.78358,299,5,
61.6615,5.16937,10.0769,2.394,3.78358,299,5,
61.6616,5.16907,10.0784,2.394,3.78358,299,5,
61.6616,5.16907,10.08,2.394,3.78358,299,5,
61.6616,5.16418,10.0784,2.394,3.78358,299,5,
61.6617,5.16449,10.0769,2.394,3.78358,299,5,
61.6617,5.16388,10.0754,2.394,3.78358,299,5,
61.6617,5.16479,10.08,2.394,3.78358,299,5,
61.6618,5.16449,10.08,2.394,3.78358,299,5,
61.6618,5.16388,10.0769,2.394,3.78358,299,5,
61.6618,5.1593,10.0769,2.394,3.78358,299,5,
61.6619,5.159,10.0769,2.394,3.78358,299,5,
61.6619,5.159,10.0693,2.394,3.78358,299,5,
61.6619,5.15869,10.0677,2.394,3.78358,299,5,
61.662,5.16022,10.0632,2.394,3.78358,299,5,
61.662,5.15503,10.0693,2.394,3.78358,299,5,
61.662,5.15533,10.0662,2.394,3.78358,299,5,
61.6621,5.15442,10.0662,2.394,3.78358,299,5,
61.6621,5.15411,10.0662,2.394,3.78358,299,5,
61.6621,5.15533,10.0677,2.394,3.78358,299,5,
61.6622,5.15015,10.0647,2.394,3.78358,299,5,
61.6622,5.15015,10.0647,2.394,3.78358,299,5,
61.6622,5.15015,10.0632,2.394,3.78358,299,5,
61.6623,5.14984,10.0647,2.394,3.78358,299,5,
61.6623,5.15015,10.0601,2.394,3.78358,299,5,
61.6623,5.14496,10.051,2.394,3.78358,299,5,
61.6624,5.14526,10.054,2.394,3.78358,299,5,
61.6624,5.14496,10.0525,2.394,3.78358,299,5,
61.6624,5.14496,10.0525,2.394,3.78358,299,5,
61.6625,5.14374,10.0525,2.394,3.78358,299,5,
61.6625,5.13977,10.0525,2.394,3.78358,299,5,
61.6625,5.13977,10.054,2.394,3.78358,299,5,
61.6626,5.13947,10.0525,2.394,3.78358,299,5,
61.6626,5.14099,10.0555,2.394,3.78358,299,5,
61.6626,5.13702,10.0555,2.394,3.78358,299,5,
61.6627,5.13519,10.054,2.394,3.78358,299,5,
61.6627,5.1355,10.0479,2.394,3.78358,299,5,
61.6627,5.1355,10.0418,2.394,3.78358,299,5,
61.6628,5.13489,10.0418,2.394,3.78358,299,5,
61.6628,5.13062,10.0418,2.394,3.78358,299,5,
61.6628,5.13062,10.0433,2.394,3.78358,299,5,
61.6629,5.13031,10.0418,2.394,3.78358,299,5,
61.6629,5.13031,10.0418,2.394,3.78358,299,5,
61.6629,5.12634,10.0418,2.394,3.78358,299,5,
61.663,5.12573,10.0403,2.394,3.78358,299,5,
61.663,5.12512,10.0418,2.394,3.78358,299,5,
61.663,5.12634,10.0403,2.394,3.78358,299,5,
61.6631,5.12543,10.0418,2.394,3.78358,299,5,
61.6631,5.12085,10.0357,2.394,3.78358,299,5,
61.6631,5.12024,10.0311,2.394,3.78358,299,5,
61.6632,5.12085,10.0311,2.394,3.78358,299,5,
61.6632,5.12085,10.0311,2.394,3.78358,299,5,
61.6632,5.11749,10.0311,2.394,3.78358,299,5,
61.6633,5.11536,10.0281,2.394,3.78358,299,5,
61.6633,5.11536,10.0311,2.394,3.78358,299,5,
61.6633,5.11536,10.0311,2.394,3.78358,299,5,
61.6634,5.11444,10.0296,2.394,3.78358,299,5,
61.6634,5.11078,10.0296,2.394,3.78358,299,5,
61.6634,5.11108,10.0311,2.394,3.78358,299,5,
61.6635,5.11017,10.0311,2.394,3.78358,299,5,
61.6635,5.11047,10.0311,2.394,3.78358,299,5,
61.6635,5.1059,10.0204,2.394,3.78358,299,5,
61.6636,5.10559,10.0159,2.394,3.78358,299,5,
61.6636,5.1059,10.0204,2.394,3.78358,299,5,
61.6636,5.10681,10.0159,2.394,3.78358,299,5,
61.6637,5.10284,10.0174,2.394,3.78358,299,5,
61.6637,5.10071,10.0159,2.394,3.78358,299,5,
61.6637,5.10132,10.0174,2.394,3.78358,299,5,
61.6638,5.10132,10.0159,2.394,3.78358,299,5,
61.6638,5.1004,10.0159,2.394,3.78358,299,5,
61.6638,5.09583,10.0159,2.394,3.78358,299,5,
61.6639,5.09583,10.0174,2.394,3.78358,299,5,
61.6639,5.09613,10.0174,2.394,3.78358,299,5,
61.6639,5.09552,10.0174,2.394,3.78358,299,5,
61.664,5.09155,10.022,2.394,3.78358,299,5,
61.664,5.09125,10.0067,2.394,3.78358,299,5,
61.664,5.09125,10.0052,2.394,3.78358,299,5,
61.6641,5.09064,10.0052,2.394,3.78358,299,5,
61.6641,5.08728,10.0067,2.394,3.78358,299,5,
61.6641,5.08606,10.0021,2.394,3.78358,299,5,
61.6642,5.08636,10.0052,2.394,3.78358,299,5,
61.6642,5.08606,10.0067,2.394,3.78358,299,5,
61.6642,5.08575,10.0067,2.394,3.78358,299,5,
61.6643,5.0827,10.0052,2.394,3.78358,299,5,
61.6643,5.08179,10.0052,2.394,3.78358,299,5,
61.6643,5.08118,10.0037,2.394,3.78358,299,5,
61.6644,5.08087,10.0082,2.394,3.78358,299,5,
61.6644,5.07721,10.0037,2.394,3.78358,299,5,
61.6644,5.0769,10.0037,2.394,3.78358,299,5,
61.6645,5.0766,9.99451,2.394,3.78358,299,5,
61.6645,5.07721,9.99298,2.394,3.78358,299,5,
61.6645,5.07172,9.99298,2.394,3.78358,299,5,
61.6646,5.07233,9.99451,2.394,3.78358,299,5,
61.6646,5.07172,9.99146,2.394,3.78358,299,5,
61.6646,5.07233,9.99298,2.394,3.78358,299,5,
61.6647,5.07141,9.99603,2.394,3.78358,299,5,
61.6647,5.06714,9.99603,2.394,3.78358,299,5,
61.6647,5.06653,9.99451,2.394,3.78358,299,5,
61.6648,5.06744,9.99451,2.394,3.78358,299,5,
61.6648,5.06683,9.99146,2.394,3.78358,299,5,
61.6648,5.06226,9.99298,2.394,3.78358,299,5,
61.6649,5.06317,9.99451,2.394,3.78358,299,5,
61.6649,5.06226,9.99756,2.394,3.78358,299,5,
61.6649,5.06287,9.99298,2.394,3.78358,299,5,
61.665,5.0589,9.98535,2.394,3.78358,299,5,
61.665,5.05737,9.98077,2.394,3.78358,299,5,
61.665,5.05707,9.98077,2.394,3.78358,299,5,
61.6651,5.05707,9.9823,2.394,3.78358,299,5,
61.6651,5.05737,9.97772,2.394,3.78358,299,5,
61.6651,5.0531,9.98077,2.394,3.78358,299,5,
61.6652,5.05249,9.98077,2.394,3.78358,299,5,
61.6652,5.0528,9.9823,2.394,3.78358,299,5,
61.6652,5.05157,9.97772,2.394,3.78358,299,5,
61.6653,5.05188,9.97925,2.394,3.78358,299,5,
61.6653,5.0473,9.98077,2.394,3.78358,299,5,
61.6653,5.0473,9.97925,2.394,3.78358,299,5,
61.6654,5.04761,9.98077,2.394,3.78358,299,5,
