2100-SECPT.acq
2 msec/sample
6 channels
RSP, X, RSPEC-R
Volts
EDA, Y, PPGED-R
microsiemens
ECG R-R
Seconds
Respiration Rate
BPM
C7 - EDR
Peaks
C14 - Control
Volts
sec,CH1,CH14,CH40,CH42,CH47,CH54,
,27609,27609,27609,27609,27609,27609,
10580.8,5.00854,3.10516,2.878,11.4373,461,5,
10580.8,5.01312,3.10669,2.878,11.4373,461,5,
10580.8,5.01831,3.10364,2.878,11.4373,461,5,
10580.8,5.02319,3.10059,2.878,11.4373,461,5,
10580.8,5.03113,3.09906,2.878,11.4373,461,5,
10580.8,5.03601,3.10364,2.878,11.4373,461,5,
10580.8,5.04272,3.10211,2.878,11.4373,461,5,
10580.8,5.0473,3.10516,2.878,11.4373,461,5,
10580.8,5.0531,3.10516,2.878,11.4373,461,5,
10580.8,5.05768,3.09906,2.878,11.4373,461,5,
10580.8,5.06348,3.10364,2.878,11.4373,461,5,
10580.8,5.07111,3.09906,2.878,11.4373,461,5,
10580.8,5.07568,3.10669,2.878,11.4373,461,5,
10580.8,5.08057,3.10364,2.878,11.4373,461,5,
10580.8,5.08636,3.10516,2.878,11.4373,461,5,
10580.8,5.09094,3.10669,2.878,11.4373,461,5,
10580.8,5.09705,3.10364,2.878,11.4373,461,5,
10580.8,5.10132,3.10364,2.878,11.4373,461,5,
10580.8,5.1059,3.10364,2.878,4.56274,461,5,
10580.8,5.11169,3.10364,2.878,4.56274,461,5,
10580.8,5.11536,3.10059,2.878,4.56274,461,5,
10580.8,5.1239,3.10364,2.878,4.56274,461,5,
10580.8,5.12878,3.10669,2.878,4.56274,461,5,
10580.8,5.13367,3.10669,2.878,4.56274,461,5,
10580.8,5.13855,3.10364,2.878,4.56274,461,5,
10580.8,5.14526,3.10211,2.878,4.56274,461,5,
10580.8,5.15015,3.10822,2.878,4.56274,461,5,
10580.8,5.15472,3.10516,2.878,4.56274,461,5,
10580.8,5.15961,3.10516,2.878,4.56274,461,5,
10580.8,5.16449,3.10211,2.878,4.56274,461,5,
10580.8,5.16968,3.10669,2.878,4.56274,461,5,
10580.8,5.17456,3.10516,2.878,4.56274,461,5,
10580.8,5.17975,3.10516,2.878,4.56274,461,5,
10580.8,5.18341,3.10364,2.878,4.56274,461,5,
10580.8,5.1889,3.10516,2.878,4.56274,461,5,
10580.8,5.19348,3.10211,2.878,4.56274,461,5,
10580.8,5.19897,3.10059,2.878,4.56274,461,5,
10580.8,5.20355,3.10516,2.878,4.56274,461,5,
10580.8,5.20874,3.10364,2.878,4.56274,461,5,
10580.9,5.21393,3.09906,2.878,4.56274,461,5,
10580.9,5.21851,3.10211,2.878,4.56274,461,5,
10580.9,5.22339,3.10364,2.878,4.56274,461,5,
10580.9,5.22766,3.10516,2.878,4.56274,461,5,
10580.9,5.23132,3.10364,2.878,4.56274,461,5,
10580.9,5.23651,3.10516,2.878,4.56274,461,5,
10580.9,5.23895,3.10211,2.878,4.56274,461,5,
10580.9,5.24353,3.10516,2.878,4.56274,461,5,
10580.9,5.24902,3.10364,2.878,4.56274,461,5,
10580.9,5.2533,3.10516,2.878,4.56274,461,5,
10580.9,5.25818,3.10211,2.878,4.56274,461,5,
10580.9,5.26398,3.10059,2.878,4.56274,461,5,
10580.9,5.26794,3.10516,2.878,4.56274,461,5,
10580.9,5.27283,3.10516,2.878,4.56274,461,5,
10580.9,5.27588,3.10059,2.878,4.56274,461,5,
10580.9,5.27832,3.10516,2.878,4.56274,461,5,
10580.9,5.28259,3.10364,2.878,4.56274,461,5,
10580.9,5.28809,3.10211,2.878,4.56274,461,5,
10580.9,5.29266,3.10822,2.878,4.56274,461,5,
10580.9,5.29785,3.10516,2.878,4.56274,461,5,
10580.9,5.3009,3.10669,2.878,4.56274,461,5,
10580.9,5.30304,3.10516,2.878,4.56274,461,5,
10580.9,5.30762,3.10211,2.878,4.56274,461,5,
10580.9,5.3125,3.10669,2.878,4.56274,461,5,
10580.9,5.31616,3.10364,2.878,4.56274,461,5,
10580.9,5.31769,3.10364,2.878,4.56274,461,5,
10580.9,5.32166,3.10059,2.878,4.56274,461,5,
10580.9,5.32715,3.10059,2.878,4.56274,461,5,
10580.9,5.33142,3.10516,2.878,4.56274,461,5,
10580.9,5.33203,3.10516,2.878,4.56274,461,5,
10580.9,5.33722,3.10516,2.878,4.56274,461,5,
10580.9,5.34088,3.10364,2.878,4.56274,461,5,
10580.9,5.34424,3.10364,2.878,4.56274,461,5,
10580.9,5.34698,3.10516,2.878,4.56274,461,5,
10580.9,5.35156,3.10364,2.878,4.56274,461,5,
10580.9,5.35583,3.10669,2.878,4.56274,461,5,
10580.9,5.35675,3.10822,2.878,4.56274,461,5,
10580.9,5.36011,3.10516,2.878,4.56274,461,5,
10580.9,5.3656,3.10516,2.878,4.56274,461,5,
10580.9,5.36652,3.10669,2.878,4.56274,461,5,
10580.9,5.37018,3.10516,2.878,4.56274,461,5,
10580.9,5.37384,3.10516,2.878,4.56274,461,5,
10580.9,5.37628,3.10516,2.878,4.56274,461,5,
10580.9,5.38025,3.10364,2.878,4.56274,461,5,
10580.9,5.38055,3.10516,2.878,4.56274,461,5,
10580.9,5.38574,3.10364,2.878,4.56274,461,5,
10580.9,5.38849,3.10364,2.878,4.56274,461,5,
10580.9,5.38971,3.10211,1.546,4.56274,461,5,
10580.9,5.3949,3.10211,1.546,4.56274,461,5,
10580.9,5.39551,3.10669,1.546,4.56274,461,5,
10581,5.40009,3.10364,1.546,4.56274,461,5,
10581,5.401,3.10364,1.546,4.56274,461,5,
10581,5.40527,3.10516,1.546,4.56274,461,5,
10581,5.40558,3.10516,1.546,4.56274,461,5,
10581,5.41046,3.10211,1.546,4.56274,461,5,
10581,5.40955,3.10364,1.546,4.56274,461,5,
10581,5.41504,3.10516,1.546,4.56274,461,5,
10581,5.41534,3.10364,1.546,4.56274,461,5,
10581,5.42084,3.10516,1.546,4.56274,461,5,
10581,5.42023,3.10364,1.546,4.56274,461,5,
10581,5.42419,3.10364,1.546,4.56274,461,5,
10581,5.4248,3.10516,1.546,4.56274,461,5,
10581,5.42725,3.10516,1.546,4.56274,461,5,
10581,5.42999,3.09906,1.546,4.56274,461,5,
10581,5.42969,3.10211,1.546,4.56274,461,5,
10581,5.43427,3.10669,1.546,4.56274,461,5,
10581,5.43579,3.10364,1.546,4.56274,461,5,
10581,5.43732,3.10516,1.546,4.56274,461,5,
10581,5.43976,3.10211,1.546,4.56274,461,5,
10581,5.43976,3.10059,1.546,4.56274,461,5,
10581,5.44464,3.10516,1.546,4.56274,461,5,
10581,5.44495,3.10669,1.546,4.56274,461,5,
10581,5.44495,3.10822,1.546,4.56274,461,5,
10581,5.44922,3.10822,1.546,4.56274,461,5,
10581,5.44861,3.10669,1.546,4.56274,461,5,
10581,5.44952,3.10516,1.546,4.56274,461,5,
10581,5.4538,3.10059,1.546,4.56274,461,5,
10581,5.45441,3.10364,1.546,4.56274,461,5,
10581,5.45502,3.10516,1.546,4.56274,461,5,
10581,5.45715,3.10669,1.546,4.56274,461,5,
10581,5.45959,3.10364,1.546,4.56274,461,5,
10581,5.45959,3.10516,1.546,4.56274,461,5,
10581,5.45959,3.10669,1.546,4.56274,461,5,
10581,5.46326,3.10669,1.546,4.56274,461,5,
10581,5.46417,3.10211,1.546,4.56274,461,5,
10581,5.46417,3.10364,1.546,4.56274,461,5,
10581,5.46509,3.10211,1.546,4.56274,461,5,
10581,5.46844,3.10364,1.546,4.56274,461,5,
10581,5.46906,3.10059,1.546,4.56274,461,5,
10581,5.46997,3.10211,1.546,4.56274,461,5,
10581,5.46875,3.10364,1.546,4.56274,461,5,
10581,5.46936,3.10516,1.546,4.56274,461,5,
10581,5.47424,3.10516,1.546,4.56274,461,5,
10581,5.47394,3.10364,1.546,4.56274,461,5,
10581,5.47424,3.10516,1.546,4.56274,461,5,
10581,5.47394,3.10364,1.546,4.56274,461,5,
10581,5.47455,3.10516,1.546,4.56274,461,5,
10581,5.47668,3.10364,1.546,4.56274,461,5,
10581,5.47913,3.10516,1.546,4.56274,461,5,
10581,5.47913,3.10516,1.546,4.56274,461,5,
10581,5.47943,3.10211,1.546,4.56274,461,5,
10581.1,5.47943,3.10211,1.546,4.56274,461,5,
10581.1,5.47852,3.10669,1.546,4.56274,461,5,
10581.1,5.47882,3.10364,1.546,4.56274,461,5,
10581.1,5.47791,3.10211,1.546,4.56274,461,5,
10581.1,5.48309,3.10516,1.546,4.56274,461,5,
10581.1,5.4834,3.10516,1.546,4.56274,461,5,
10581.1,5.48279,3.10364,1.546,4.56274,461,5,
10581.1,5.48309,3.10211,1.546,4.56274,461,5,
10581.1,5.48309,3.10822,1.546,4.56274,461,5,
10581.1,5.4837,3.10516,1.546,4.56274,461,5,
10581.1,5.48401,3.10516,1.546,4.56274,461,5,
10581.1,5.4834,3.10516,1.546,4.56274,461,5,
10581.1,5.4837,3.10211,1.546,4.56274,461,5,
10581.1,5.4834,3.10211,1.546,4.56274,461,5,
10581.1,5.48401,3.10516,1.546,4.56274,461,5,
10581.1,5.4837,3.10364,1.546,4.56274,461,5,
10581.1,5.4837,3.10516,1.546,4.56274,461,5,
10581.1,5.4837,3.10211,1.546,4.56274,461,5,
10581.1,5.4837,3.10211,1.546,4.56274,461,5,
10581.1,5.48431,3.10669,1.546,4.56274,461,5,
10581.1,5.4837,3.10364,1.546,4.56274,461,5,
10581.1,5.48431,3.10516,1.546,4.56274,461,5,
10581.1,5.48401,3.10364,1.546,4.56274,461,5,
10581.1,5.48431,3.10211,1.546,4.56274,461,5,
10581.1,5.48309,3.10516,1.546,4.56274,461,5,
10581.1,5.4837,3.10364,1.546,4.56274,461,5,
10581.1,5.48431,3.10516,1.546,4.56274,461,5,
10581.1,5.48401,3.10364,1.546,4.56274,461,5,
10581.1,5.4834,3.10669,1.546,4.56274,461,5,
10581.1,5.48401,3.10516,1.546,4.56274,461,5,
10581.1,5.48401,3.10516,1.546,4.56274,461,5,
10581.1,5.4837,3.10059,1.546,4.56274,461,5,
10581.1,5.48401,3.10211,1.546,4.56274,461,5,
10581.1,5.48401,3.10211,1.546,4.56274,461,5,
10581.1,5.47913,3.10364,1.546,4.56274,461,5,
10581.1,5.47882,3.10669,1.546,4.56274,461,5,
10581.1,5.47882,3.10364,1.546,4.56274,461,5,
10581.1,5.47852,3.10211,1.546,4.56274,461,5,
10581.1,5.47882,3.10516,1.546,4.56274,461,5,
10581.1,5.47852,3.10516,1.546,4.56274,461,5,
10581.1,5.47852,3.10211,1.546,4.56274,461,5,
10581.1,5.47913,3.10211,1.546,4.56274,461,5,
10581.1,5.47394,3.10516,1.546,4.56274,461,5,
10581.1,5.47455,3.10364,1.546,4.56274,461,5,
10581.1,5.47394,3.10211,1.546,4.56274,461,5,
10581.1,5.47394,3.10669,1.546,4.56274,461,5,
10581.1,5.47424,3.10364,1.546,4.56274,461,5,
10581.1,5.47394,3.10669,1.546,4.56274,461,5,
10581.1,5.46967,3.10211,1.546,4.56274,461,5,
10581.1,5.46967,3.10364,1.546,4.56274,461,5,
10581.2,5.46936,3.10364,1.546,4.56274,461,5,
10581.2,5.46906,3.10364,1.546,4.56274,461,5,
10581.2,5.46936,3.10516,1.546,4.56274,461,5,
10581.2,5.46631,3.10364,1.546,4.56274,461,5,
10581.2,5.46478,3.10059,1.546,4.56274,461,5,
10581.2,5.46417,3.10516,1.546,4.56274,461,5,
10581.2,5.46387,3.10516,1.546,4.56274,461,5,
10581.2,5.46417,3.10059,1.546,4.56274,461,5,
10581.2,5.46051,3.10364,1.546,4.56274,461,5,
10581.2,5.45898,3.10211,1.546,4.56274,461,5,
10581.2,5.45959,3.10516,1.546,4.56274,461,5,
10581.2,5.45898,3.10364,1.546,4.56274,461,5,
10581.2,5.45654,3.10516,1.546,4.56274,461,5,
10581.2,5.45441,3.10364,1.546,4.56274,461,5,
10581.2,5.45471,3.10364,1.546,4.56274,461,5,
10581.2,5.45471,3.10516,1.546,4.56274,461,5,
10581.2,5.45166,3.10516,1.546,4.56274,461,5,
10581.2,5.44983,3.10211,1.546,4.56274,461,5,
10581.2,5.44922,3.10211,1.546,4.56274,461,5,
10581.2,5.44891,3.10669,1.546,4.56274,461,5,
10581.2,5.44556,3.10211,1.546,4.56274,461,5,
10581.2,5.44556,3.10822,1.546,4.56274,461,5,
10581.2,5.44495,3.10364,1.546,4.56274,461,5,
10581.2,5.44189,3.10364,1.546,4.56274,461,5,
10581.2,5.44037,3.10516,1.546,4.56274,461,5,
10581.2,5.43945,3.10211,1.546,4.56274,461,5,
10581.2,5.43732,3.10364,1.546,4.56274,461,5,
10581.2,5.43518,3.10516,1.546,4.56274,461,5,
10581.2,5.43549,3.10364,1.546,4.56274,461,5,
10581.2,5.43274,3.10516,1.546,4.56274,461,5,
10581.2,5.4306,3.10364,1.546,4.56274,461,5,
10581.2,5.42999,3.10516,1.546,4.56274,461,5,
10581.2,5.42572,3.10364,1.546,4.56274,461,5,
10581.2,5.4248,3.10516,1.546,4.56274,461,5,
10581.2,5.42542,3.10364,1.546,4.56274,461,5,
10581.2,5.42084,3.10516,1.546,4.56274,461,5,
10581.2,5.42023,3.10211,1.546,4.56274,461,5,
10581.2,5.41718,3.10211,1.546,4.56274,461,5,
10581.2,5.41534,3.10364,1.546,4.56274,461,5,
10581.2,5.41565,3.10516,1.546,4.56274,461,5,
10581.2,5.41046,3.10516,1.546,4.56274,461,5,
10581.2,5.41046,3.10516,1.546,4.56274,461,5,
10581.2,5.40619,3.10364,1.546,4.56274,461,5,
10581.2,5.40558,3.10669,1.546,4.56274,461,5,
10581.2,5.40283,3.10364,1.546,4.56274,461,5,
10581.2,5.401,3.10211,1.546,4.56274,461,5,
10581.2,5.401,3.10669,1.546,4.56274,461,5,
10581.2,5.39612,3.10516,1.546,4.56274,461,5,
10581.2,5.39581,3.10211,1.546,4.56274,461,5,
10581.2,5.39154,3.10516,1.546,4.56274,461,5,
10581.3,5.39062,3.10516,1.546,4.56274,461,5,
10581.3,5.38635,3.10364,1.546,4.56274,461,5,
10581.3,5.38605,3.10669,1.546,4.56274,461,5,
10581.3,5.38147,3.10516,1.546,4.56274,461,5,
10581.3,5.38055,3.10211,1.546,4.56274,461,5,
10581.3,5.37598,3.10516,1.546,4.56274,461,5,
10581.3,5.37628,3.10059,1.546,4.56274,461,5,
10581.3,5.3714,3.10364,1.546,4.56274,461,5,
10581.3,5.36896,3.10516,1.546,4.56274,461,5,
10581.3,5.36621,3.10059,1.546,4.56274,461,5,
10581.3,5.36224,3.10822,1.546,4.56274,461,5,
10581.3,5.36072,3.10669,1.546,4.56274,461,5,
10581.3,5.35675,3.10059,1.546,4.56274,461,5,
10581.3,5.35675,3.10669,1.546,4.56274,461,5,
10581.3,5.35156,3.10364,1.546,4.56274,461,5,
10581.3,5.34882,3.10516,1.546,4.56274,461,5,
10581.3,5.34637,3.10669,1.546,4.56274,461,5,
10581.3,5.3418,3.10364,1.546,4.56274,461,5,
10581.3,5.34119,3.10516,1.546,4.56274,461,5,
10581.3,5.33691,3.10211,1.546,4.56274,461,5,
10581.3,5.33478,3.10211,1.546,4.56274,461,5,
10581.3,5.33203,3.10364,1.546,4.56274,461,5,
10581.3,5.32745,3.10364,1.546,4.56274,461,5,
10581.3,5.32684,3.10364,1.546,4.56274,461,5,
10581.3,5.32196,3.10364,1.546,4.56274,461,5,
10581.3,5.31769,3.10364,1.546,4.56274,461,5,
10581.3,5.31769,3.10364,1.546,4.56274,461,5,
10581.3,5.31281,3.10516,1.546,4.56274,461,5,
10581.3,5.30823,3.10211,1.546,4.56274,461,5,
10581.3,5.30762,3.10669,1.546,4.56274,461,5,
10581.3,5.30273,3.10516,1.546,4.56274,461,5,
10581.3,5.29846,3.10364,1.546,4.56274,461,5,
10581.3,5.29816,3.10211,1.546,4.56274,461,5,
10581.3,5.29297,3.10211,1.546,4.56274,461,5,
10581.3,5.289,3.10364,1.546,4.56274,461,5,
10581.3,5.28748,3.10364,1.546,4.56274,461,5,
10581.3,5.2832,3.10059,1.546,4.56274,461,5,
10581.3,5.27771,3.10516,1.546,4.56274,461,5,
10581.3,5.27557,3.10516,1.546,4.56274,461,5,
10581.3,5.27344,3.10516,1.546,4.56274,461,5,
10581.3,5.26794,3.10364,1.546,4.56274,461,5,
10581.3,5.26367,3.10364,1.546,4.56274,461,5,
10581.3,5.26367,3.10364,1.546,4.56274,461,5,
10581.3,5.25757,3.10364,1.546,4.56274,461,5,
10581.3,5.2536,3.10364,1.546,4.56274,461,5,
10581.3,5.24902,3.10211,1.546,4.56274,461,5,
10581.3,5.24902,3.10669,1.546,4.56274,461,5,
10581.3,5.24323,3.10669,1.546,4.56274,461,5,
10581.3,5.23926,3.10516,1.546,4.56274,461,5,
10581.4,5.23712,3.10364,1.546,4.56274,461,5,
10581.4,5.23315,3.10059,1.546,4.56274,461,5,
10581.4,5.22949,3.10059,1.546,4.56274,461,5,
10581.4,5.22461,3.10364,1.546,4.56274,461,5,
10581.4,5.21973,3.10669,1.546,4.56274,461,5,
10581.4,5.21912,3.10516,1.546,4.56274,461,5,
10581.4,5.21423,3.10364,1.546,4.56274,461,5,
10581.4,5.20966,3.10516,1.546,4.56274,461,5,
10581.4,5.20477,3.10364,1.546,4.56274,461,5,
10581.4,5.20233,3.10516,1.546,4.56274,461,5,
10581.4,5.19958,3.10669,1.546,4.56274,461,5,
10581.4,5.19501,3.10516,1.546,4.56274,461,5,
10581.4,5.18982,3.10516,1.546,4.56274,461,5,
10581.4,5.18585,3.10364,1.546,4.56274,461,5,
10581.4,5.18158,3.10669,1.546,4.56274,461,5,
10581.4,5.18005,3.10364,1.546,4.56274,461,5,
10581.4,5.17517,3.10669,1.546,4.56274,461,5,
10581.4,5.17029,3.10364,1.546,4.56274,461,5,
10581.4,5.16632,3.10364,1.546,4.56274,461,5,
10581.4,5.16266,3.10516,1.546,4.56274,461,5,
10581.4,5.16022,3.10364,1.546,4.56274,461,5,
10581.4,5.15533,3.10669,1.546,4.56274,461,5,
10581.4,5.15137,3.10669,1.546,4.56274,461,5,
10581.4,5.14648,3.10516,1.546,4.56274,461,5,
10581.4,5.14282,3.10822,1.546,4.56274,461,5,
10581.4,5.14069,3.10211,1.546,4.56274,461,5,
10581.4,5.1355,3.10516,1.546,4.56274,461,5,
10581.4,5.13153,3.10211,1.546,4.56274,461,5,
10581.4,5.12634,3.10364,1.546,4.56274,461,5,
10581.4,5.12299,3.10364,1.546,4.56274,461,5,
10581.4,5.12085,3.10669,1.546,4.56274,461,5,
10581.4,5.11658,3.10669,1.546,4.56274,461,5,
10581.4,5.11108,3.10364,1.546,4.56274,461,5,
10581.4,5.10742,3.10516,1.546,4.56274,461,5,
10581.4,5.10193,3.10059,1.546,4.56274,461,5,
10581.4,5.09949,3.10516,1.546,4.56274,461,5,
10581.4,5.09674,3.10364,1.546,4.56274,461,5,
10581.4,5.09216,3.10364,1.546,4.56274,461,5,
10581.4,5.08698,3.10211,1.546,4.56274,461,5,
10581.4,5.08301,3.10516,1.546,4.56274,461,5,
10581.4,5.07843,3.10211,1.546,4.56274,461,5,
10581.4,5.07446,3.10364,1.546,4.56274,461,5,
10581.4,5.07294,3.10364,1.546,4.56274,461,5,
10581.4,5.06744,3.10364,1.546,4.56274,461,5,
10581.4,5.06348,3.10364,1.546,4.56274,461,5,
10581.4,5.05768,3.10211,1.546,4.56274,461,5,
10581.4,5.05585,3.10516,1.546,4.56274,461,5,
10581.4,5.0528,3.10516,1.546,4.56274,461,5,
10581.4,5.0473,3.10364,1.546,4.56274,461,5,
10581.4,5.04303,3.10822,1.546,4.56274,461,5,
10581.5,5.03845,3.10364,1.546,4.56274,461,5,
10581.5,5.03418,3.10364,1.546,4.56274,461,5,
10581.5,5.03082,3.10211,1.546,4.56274,461,5,
10581.5,5.02838,3.10822,1.546,4.56274,461,5,
10581.5,5.02441,3.10516,1.546,4.56274,461,5,
10581.5,5.01831,3.10364,1.546,4.56274,461,5,
10581.5,5.01434,3.10516,1.546,4.56274,461,5,
10581.5,5.01129,3.10516,1.546,4.56274,461,5,
10581.5,5.0061,3.10364,1.546,4.56274,461,5,
10581.5,5.00397,3.10364,1.546,4.56274,461,5,
10581.5,4.99939,3.10516,1.546,4.56274,461,5,
10581.5,4.9942,3.10364,1.546,4.56274,461,5,
10581.5,4.99023,3.10364,1.546,4.56274,461,5,
10581.5,4.98688,3.10211,1.546,4.56274,461,5,
10581.5,4.98474,3.10669,1.546,4.56274,461,5,
10581.5,4.97986,3.10516,1.546,4.56274,461,5,
10581.5,4.97559,3.10516,1.546,4.56274,461,5,
10581.5,4.9707,3.10516,1.546,4.56274,461,5,
10581.5,4.96765,3.10516,1.546,4.56274,461,5,
10581.5,4.96552,3.10516,1.546,4.56274,461,5,
10581.5,4.95941,3.10669,1.546,4.56274,461,5,
10581.5,4.95453,3.10516,1.546,4.56274,461,5,
10581.5,4.95117,3.10516,1.546,4.56274,461,5,
10581.5,4.94751,3.10516,1.546,4.56274,461,5,
10581.5,4.94537,3.10669,1.546,4.56274,461,5,
10581.5,4.93988,3.10516,1.546,4.56274,461,5,
10581.5,4.93561,3.10364,1.546,4.56274,461,5,
10581.5,4.93073,3.10669,1.546,4.56274,461,5,
10581.5,4.92767,3.10364,1.546,4.56274,461,5,
10581.5,4.92554,3.10516,1.546,4.56274,461,5,
10581.5,4.92157,3.10211,1.546,4.56274,461,5,
10581.5,4.91547,3.10822,1.546,4.56274,461,5,
10581.5,4.91119,3.10516,1.546,4.56274,461,5,
10581.5,4.90845,3.10059,1.546,4.56274,461,5,
10581.5,4.90601,3.10364,1.546,4.56274,461,5,
10581.5,4.90143,3.10516,1.546,4.56274,461,5,
10581.5,4.89655,3.10516,1.546,4.56274,461,5,
10581.5,4.8938,3.10364,1.546,4.56274,461,5,
10581.5,4.89105,3.10364,1.546,4.56274,461,5,
10581.5,4.88647,3.10364,1.546,4.56274,461,5,
10581.5,4.88129,3.10364,1.546,4.56274,461,5,
10581.5,4.87701,3.10516,1.546,4.56274,461,5,
10581.5,4.87671,3.10364,1.546,4.56274,461,5,
10581.5,4.87183,3.10059,1.546,4.56274,461,5,
10581.5,4.86633,3.10211,1.546,4.56274,461,5,
10581.5,4.86176,3.10822,1.546,4.56274,461,5,
10581.5,4.86145,3.10364,1.546,4.56274,461,5,
10581.5,4.85718,3.10669,1.546,4.56274,461,5,
10581.5,4.85229,3.10516,1.546,4.56274,461,5,
10581.5,4.84863,3.10516,1.546,4.56274,461,5,
10581.5,4.8468,3.10669,1.546,4.56274,461,5,
10581.6,4.84253,3.10822,1.546,4.56274,461,5,
10581.6,4.83795,3.10516,1.546,4.56274,461,5,
10581.6,4.83459,3.10211,1.546,4.56274,461,5,
10581.6,4.83215,3.10516,1.546,4.56274,461,5,
10581.6,4.82697,3.10516,1.546,4.56274,461,5,
10581.6,4.82483,3.10516,1.546,4.56274,461,5,
10581.6,4.82269,3.10211,1.546,4.56274,461,5,
10581.6,4.8172,3.10364,1.546,4.56274,461,5,
10581.6,4.81354,3.10211,1.546,4.56274,461,5,
10581.6,4.81262,3.10516,1.546,4.56274,461,5,
10581.6,4.80774,3.10669,1.546,4.56274,461,5,
10581.6,4.80316,3.10822,1.546,4.56274,461,5,
10581.6,4.80011,3.10364,1.546,4.56274,461,5,
10581.6,4.79797,3.10364,1.546,4.56274,461,5,
10581.6,4.79248,3.10669,1.546,4.56274,461,5,
10581.6,4.78973,3.10211,1.546,4.56274,461,5,
10581.6,4.78821,3.10364,1.546,4.56274,461,5,
10581.6,4.78302,3.10516,1.546,4.56274,461,5,
10581.6,4.78088,3.10516,1.546,4.56274,461,5,
10581.6,4.77844,3.10059,1.546,4.56274,461,5,
10581.6,4.77356,3.10669,1.546,4.56274,461,5,
10581.6,4.7702,3.10364,1.546,4.56274,461,5,
10581.6,4.76837,3.09906,1.546,4.56274,461,5,
10581.6,4.76349,3.10364,1.546,4.56274,461,5,
10581.6,4.76379,3.10211,1.546,4.56274,461,5,
10581.6,4.7583,3.10516,1.546,4.56274,461,5,
10581.6,4.75403,3.10669,1.546,4.56274,461,5,
10581.6,4.75372,3.10669,1.546,4.56274,461,5,
10581.6,4.74884,3.10516,1.546,4.56274,461,5,
10581.6,4.74731,3.10669,1.546,4.56274,461,5,
10581.6,4.74396,3.10516,1.546,4.56274,461,5,
10581.6,4.73969,3.10211,1.546,4.56274,461,5,
10581.6,4.73969,3.10516,1.546,4.56274,461,5,
10581.6,4.73419,3.10516,1.546,4.56274,461,5,
10581.6,4.72961,3.10516,1.546,4.56274,461,5,
10581.6,4.72961,3.10059,1.546,4.56274,461,5,
10581.6,4.72443,3.10364,1.546,4.56274,461,5,
10581.6,4.72198,3.10211,1.546,4.56274,461,5,
10581.6,4.71985,3.10516,1.546,4.56274,461,5,
10581.6,4.71558,3.10364,1.546,4.56274,461,5,
10581.6,4.71497,3.10364,1.546,4.56274,461,5,
10581.6,4.70978,3.10211,1.546,4.56274,461,5,
10581.6,4.71069,3.10059,1.546,4.56274,461,5,
10581.6,4.7052,3.10211,1.546,4.56274,461,5,
10581.6,4.70032,3.10059,1.546,4.56274,461,5,
10581.6,4.70001,3.10516,1.546,4.56274,461,5,
10581.6,4.69482,3.10364,1.546,4.56274,461,5,
10581.6,4.69513,3.10211,1.546,4.56274,461,5,
10581.6,4.68964,3.10364,1.546,4.56274,461,5,
10581.6,4.68933,3.10516,1.546,4.56274,461,5,
10581.7,4.68567,3.10516,1.546,4.56274,461,5,
10581.7,4.68323,3.10364,1.546,4.56274,461,5,
10581.7,4.68018,3.10669,1.546,4.56274,461,5,
10581.7,4.67499,3.10669,1.546,4.56274,461,5,
10581.7,4.6759,3.10516,1.546,4.56274,461,5,
10581.7,4.67041,3.10364,1.546,4.56274,461,5,
10581.7,4.67072,3.10516,1.546,4.56274,461,5,
10581.7,4.66614,3.10974,1.546,4.56274,461,5,
10581.7,4.66583,3.10364,1.546,4.56274,461,5,
10581.7,4.66095,3.10364,1.546,4.56274,461,5,
10581.7,4.66064,3.10364,1.546,4.56274,461,5,
10581.7,4.65607,3.10516,1.546,4.56274,461,5,
10581.7,4.65607,3.10211,1.546,4.56274,461,5,
10581.7,4.65057,3.10516,1.546,4.56274,461,5,
10581.7,4.65149,3.10211,1.546,4.56274,461,5,
10581.7,4.646,3.10669,1.546,4.56274,461,5,
10581.7,4.6463,3.10364,1.546,4.56274,461,5,
10581.7,4.64172,3.10516,1.546,4.56274,461,5,
10581.7,4.64081,3.10364,1.546,4.56274,461,5,
10581.7,4.63562,3.10364,1.546,4.56274,461,5,
10581.7,4.63623,3.10516,1.546,4.56274,461,5,
10581.7,4.63165,3.10364,1.546,4.56274,461,5,
10581.7,4.63104,3.10516,1.546,4.56274,461,5,
10581.7,4.62646,3.10211,1.546,4.56274,461,5,
10581.7,4.62646,3.10059,1.546,4.56274,461,5,
10581.7,4.62189,3.10211,1.546,4.56274,461,5,
10581.7,4.62189,3.10669,1.546,4.56274,461,5,
10581.7,4.61639,3.10669,1.546,4.56274,461,5,
10581.7,4.61578,3.10669,1.546,4.56274,461,5,
10581.7,4.61426,3.10211,1.546,4.56274,461,5,
10581.7,4.61151,3.10364,1.546,4.56274,461,5,
10581.7,4.61182,3.10516,1.546,4.56274,461,5,
10581.7,4.60693,3.10669,1.546,4.56274,461,5,
10581.7,4.60693,3.10364,1.546,4.56274,461,5,
10581.7,4.60266,3.10516,1.546,4.56274,461,5,
10581.7,4.60114,3.10669,1.546,4.56274,461,5,
10581.7,4.59778,3.10516,1.546,4.56274,461,5,
10581.7,4.59686,3.10211,1.546,4.56274,461,5,
10581.7,4.59747,3.10364,1.546,4.56274,461,5,
10581.7,4.59167,3.10516,1.546,4.56274,461,5,
10581.7,4.59198,3.10516,1.546,4.56274,461,5,
10581.7,4.58771,3.10516,1.546,4.56274,461,5,
10581.7,4.58771,3.10516,1.546,4.56274,461,5,
10581.7,4.58771,3.10669,1.546,4.56274,461,5,
10581.7,4.58221,3.10669,1.546,4.56274,461,5,
10581.7,4.58191,3.10364,1.546,4.56274,461,5,
10581.7,4.57733,3.10364,1.546,4.56274,461,5,
10581.7,4.57764,3.10211,1.546,4.56274,461,5,
10581.7,4.57733,3.10211,1.546,4.56274,461,5,
10581.8,4.57245,3.10669,1.546,4.56274,461,5,
10581.8,4.57275,3.10516,1.546,4.56274,461,5,
10581.8,4.57367,3.10516,1.546,4.56274,461,5,
10581.8,4.56818,3.10364,1.546,4.56274,461,5,
10581.8,4.56757,3.10516,1.546,4.56274,461,5,
10581.8,4.56757,3.10516,1.546,4.56274,461,5,
10581.8,4.56329,3.10669,1.546,4.56274,461,5,
10581.8,4.56238,3.10364,1.546,4.56274,461,5,
10581.8,4.56299,3.10516,1.546,4.56274,461,5,
10581.8,4.55841,3.10364,1.546,4.56274,461,5,
10581.8,4.5578,3.10516,1.546,4.56274,461,5,
10581.8,4.5575,3.10669,1.546,4.56274,461,5,
10581.8,4.55322,3.10364,1.546,4.56274,461,5,
10581.8,4.55322,3.10364,1.546,4.56274,461,5,
10581.8,4.55261,3.10822,1.546,4.56274,461,5,
10581.8,4.54895,3.10364,1.546,4.56274,461,5,
10581.8,4.54803,3.10516,1.546,4.56274,461,5,
10581.8,4.54742,3.10516,1.546,4.56274,461,5,
10581.8,4.54865,3.10669,1.546,4.56274,461,5,
10581.8,4.54346,3.10364,1.546,4.56274,461,5,
10581.8,4.54315,3.10669,1.546,4.56274,461,5,
10581.8,4.54376,3.09906,1.546,4.56274,461,5,
10581.8,4.5401,3.10364,1.546,4.56274,461,5,
10581.8,4.53827,3.10364,1.546,4.56274,461,5,
10581.8,4.53827,3.10211,1.546,4.56274,461,5,
10581.8,4.53857,3.10516,1.546,4.56274,461,5,
10581.8,4.53888,3.10211,1.546,4.56274,461,5,
10581.8,4.53339,3.10669,1.546,4.56274,461,5,
10581.8,4.53369,3.10364,1.546,4.56274,461,5,
10581.8,4.53308,3.10211,1.546,4.56274,461,5,
10581.8,4.53339,3.10669,1.546,4.56274,461,5,
10581.8,4.53094,3.10516,1.546,4.56274,461,5,
10581.8,4.5285,3.10364,1.546,4.56274,461,5,
10581.8,4.5282,3.10364,1.546,4.56274,461,5,
10581.8,4.5282,3.10211,1.546,4.56274,461,5,
10581.8,4.5285,3.10516,1.546,4.56274,461,5,
10581.8,4.5285,3.10211,1.546,4.56274,461,5,
10581.8,4.52362,3.10364,1.546,4.56274,461,5,
10581.8,4.52362,3.10211,1.546,4.56274,461,5,
10581.8,4.52301,3.10364,1.546,4.56274,461,5,
10581.8,4.52332,3.10516,1.546,4.56274,461,5,
10581.8,4.52423,3.10364,1.546,4.56274,461,5,
10581.8,4.52362,3.10364,1.546,4.56274,461,5,
10581.8,4.52393,3.10516,1.546,4.56274,461,5,
10581.8,4.51904,3.10059,1.546,4.56274,461,5,
10581.8,4.51843,3.10364,1.546,4.56274,461,5,
10581.8,4.51904,3.10822,1.546,4.56274,461,5,
10581.8,4.51813,3.10211,1.546,4.56274,461,5,
10581.8,4.51874,3.10822,1.546,4.56274,461,5,
10581.8,4.51874,3.10364,1.546,4.56274,461,5,
10581.9,4.51874,3.10059,1.546,4.56274,461,5,
10581.9,4.51904,3.10364,1.546,4.56274,461,5,
10581.9,4.51904,3.10364,1.546,4.56274,461,5,
10581.9,4.51477,3.10822,1.546,4.56274,461,5,
10581.9,4.51477,3.10516,1.546,4.56274,461,5,
10581.9,4.51416,3.10669,1.546,4.56274,461,5,
10581.9,4.51416,3.10669,1.546,4.56274,461,5,
10581.9,4.51416,3.10364,1.546,4.56274,461,5,
10581.9,4.51385,3.10516,1.546,4.56274,461,5,
10581.9,4.51416,3.10364,1.546,4.56274,461,5,
10581.9,4.51385,3.10364,1.546,4.56274,461,5,
10581.9,4.51385,3.10364,1.546,4.56274,461,5,
10581.9,4.51355,3.10364,1.546,4.56274,461,5,
10581.9,4.51355,3.10669,1.546,4.56274,461,5,
10581.9,4.51294,3.10364,1.546,4.56274,461,5,
10581.9,4.51477,3.10211,1.546,4.56274,461,5,
10581.9,4.51355,3.10516,1.546,4.56274,461,5,
10581.9,4.51447,3.10364,1.546,4.56274,461,5,
10581.9,4.51355,3.10364,1.546,4.56274,461,5,
10581.9,4.51355,3.10364,1.546,4.56274,461,5,
10581.9,4.51416,3.10364,1.546,4.56274,461,5,
10581.9,4.51385,3.10669,1.546,4.56274,461,5,
10581.9,4.51355,3.10516,1.546,4.56274,461,5,
10581.9,4.51416,3.10669,1.546,4.56274,461,5,
10581.9,4.51385,3.10516,1.546,4.56274,461,5,
10581.9,4.51355,3.10516,1.546,4.56274,461,5,
10581.9,4.51416,3.10516,1.546,4.56274,461,5,
10581.9,4.51385,3.10669,1.546,4.56274,461,5,
10581.9,4.51355,3.10516,1.546,4.56274,461,5,
10581.9,4.51355,3.10059,1.546,4.56274,461,5,
10581.9,4.51691,3.10516,1.546,4.56274,461,5,
10581.9,4.51843,3.10516,1.546,4.56274,461,5,
10581.9,4.51874,3.10669,1.546,4.56274,461,5,
10581.9,4.51874,3.10516,1.546,4.56274,461,5,
10581.9,4.51935,3.10516,1.546,4.56274,461,5,
10581.9,4.51843,3.10516,1.546,4.56274,461,5,
10581.9,4.51813,3.10211,1.546,4.56274,461,5,
10581.9,4.51874,3.10364,1.546,4.56274,461,5,
10581.9,4.51904,3.10516,1.546,4.56274,461,5,
10581.9,4.52271,3.10669,1.546,4.56274,461,5,
10581.9,4.52362,3.10516,1.546,4.56274,461,5,
10581.9,4.52393,3.10516,1.546,4.56274,461,5,
10581.9,4.52362,3.10669,1.546,4.56274,461,5,
10581.9,4.52332,3.10364,1.546,4.56274,461,5,
10581.9,4.52393,3.10516,1.546,4.56274,461,5,
10581.9,4.5282,3.10211,1.546,4.56274,461,5,
10581.9,4.5285,3.10516,1.546,4.56274,461,5,
10581.9,4.52789,3.10364,1.546,4.56274,461,5,
10581.9,4.52881,3.10364,1.546,4.56274,461,5,
10581.9,4.5285,3.10364,1.546,4.56274,461,5,
10582,4.53278,3.10822,1.546,4.56274,461,5,
10582,4.53339,3.10364,1.546,4.56274,461,5,
10582,4.53308,3.10516,1.546,4.56274,461,5,
10582,4.53339,3.10211,1.546,4.56274,461,5,
10582,4.53796,3.10516,1.546,4.56274,461,5,
10582,4.53857,3.10516,1.546,4.56274,461,5,
10582,4.53796,3.09906,1.546,4.56274,461,5,
10582,4.54285,3.10211,1.546,4.56274,461,5,
10582,4.54315,3.10364,1.546,4.56274,461,5,
10582,4.54315,3.10516,1.546,4.56274,461,5,
10582,4.54559,3.10516,1.546,4.56274,461,5,
10582,4.54773,3.10364,1.546,4.56274,461,5,
10582,4.54773,3.10364,1.546,4.56274,461,5,
10582,4.55048,3.09906,1.546,4.56274,461,5,
10582,4.55292,3.10669,1.546,4.56274,461,5,
10582,4.55353,3.10211,1.546,4.56274,461,5,
10582,4.5575,3.10211,1.546,4.56274,461,5,
10582,4.55811,3.10211,1.546,4.56274,461,5,
10582,4.55811,3.10516,1.546,4.56274,461,5,
10582,4.5636,3.10364,1.546,4.56274,461,5,
10582,4.56299,3.10516,1.546,4.56274,461,5,
10582,4.56696,3.10516,1.546,4.56274,461,5,
10582,4.56757,3.10516,1.546,4.56274,461,5,
10582,4.57062,3.10364,1.546,4.56274,461,5,
10582,4.57214,3.10364,1.546,4.56274,461,5,
10582,4.57245,3.10364,1.546,4.56274,461,5,
10582,4.57794,3.10516,1.546,4.56274,461,5,
10582,4.57733,3.10516,1.546,4.56274,461,5,
10582,4.58191,3.10516,1.546,4.56274,461,5,
10582,4.58252,3.10516,1.546,4.56274,461,5,
10582,4.5874,3.10211,1.546,4.56274,461,5,
10582,4.58771,3.10211,1.546,4.56274,461,5,
10582,4.59198,3.10669,1.546,4.56274,461,5,
10582,4.59259,3.10364,1.546,4.56274,461,5,
10582,4.59656,3.10516,1.546,4.56274,461,5,
10582,4.59686,3.10364,1.546,4.56274,461,5,
10582,4.60205,3.10364,1.546,4.56274,461,5,
10582,4.60205,3.10669,1.546,4.56274,461,5,
10582,4.60693,3.10211,1.546,4.56274,461,5,
10582,4.61029,3.10364,1.546,4.56274,461,5,
10582,4.61182,3.10669,1.546,4.56274,461,5,
10582,4.61578,3.10364,1.546,4.56274,461,5,
10582,4.6167,3.10364,1.546,4.56274,461,5,
10582,4.62189,3.10669,1.546,4.56274,461,5,
10582,4.62158,3.10669,1.546,4.56274,461,5,
10582,4.62677,3.10516,1.546,4.56274,461,5,
10582,4.63074,3.10364,1.546,4.56274,461,5,
10582,4.63135,3.10364,1.546,4.56274,461,5,
10582,4.63593,3.10669,1.546,4.56274,461,5,
10582,4.63959,3.10364,1.546,4.56274,461,5,
10582,4.64203,3.10059,1.546,4.56274,461,5,
10582.1,4.646,3.10516,1.546,4.56274,461,5,
10582.1,4.64661,3.10669,1.546,4.56274,461,5,
10582.1,4.65149,3.10516,1.546,4.56274,461,5,
10582.1,4.65576,3.10516,1.546,4.56274,461,5,
10582.1,4.65607,3.10059,1.546,4.56274,461,5,
10582.1,4.66095,3.10211,1.546,4.56274,461,5,
10582.1,4.66553,3.10516,1.546,4.56274,461,5,
10582.1,4.66827,3.10516,1.546,4.56274,461,5,
10582.1,4.6701,3.10211,1.546,4.56274,461,5,
10582.1,4.67529,3.10516,1.546,4.56274,461,5,
10582.1,4.67957,3.10516,1.546,4.56274,461,5,
10582.1,4.68018,3.10211,1.546,4.56274,461,5,
10582.1,4.68536,3.10516,1.546,4.56274,461,5,
10582.1,4.69025,3.10364,1.546,4.56274,461,5,
10582.1,4.69269,3.10669,1.546,4.56274,461,5,
10582.1,4.69482,3.10364,1.546,4.56274,461,5,
10582.1,4.70032,3.10822,1.546,4.56274,461,5,
10582.1,4.7049,3.10364,1.546,4.56274,461,5,
10582.1,4.70947,3.10669,1.546,4.56274,461,5,
10582.1,4.71008,3.10211,1.546,4.56274,461,5,
10582.1,4.71405,3.10516,1.546,4.56274,461,5,
10582.1,4.71954,3.10364,1.546,4.56274,461,5,
10582.1,4.72443,3.10669,1.546,4.56274,461,5,
10582.1,4.72717,3.10822,1.546,4.56274,461,5,
10582.1,4.729,3.10211,1.546,4.56274,461,5,
10582.1,4.7345,3.10211,1.546,4.56274,461,5,
10582.1,4.73877,3.10364,1.546,4.56274,461,5,
10582.1,4.74426,3.10516,1.546,4.56274,461,5,
10582.1,4.74823,3.10669,1.546,4.56274,461,5,
10582.1,4.75128,3.10211,1.546,4.56274,461,5,
10582.1,4.75433,3.10364,1.546,4.56274,461,5,
10582.1,4.75891,3.10364,1.546,4.56274,461,5,
10582.1,4.76349,3.10516,1.546,4.56274,461,5,
10582.1,4.76868,3.10516,1.546,4.56274,461,5,
10582.1,4.77264,3.10364,1.546,4.56274,461,5,
10582.1,4.77661,3.10211,1.546,4.56274,461,5,
10582.1,4.78058,3.10211,1.546,4.56274,461,5,
10582.1,4.78302,3.10211,1.546,4.56274,461,5,
10582.1,4.78821,3.10669,1.546,4.56274,461,5,
10582.1,4.7934,3.10516,1.546,4.56274,461,5,
10582.1,4.79797,3.10364,1.546,4.56274,461,5,
10582.1,4.80255,3.10364,1.546,4.56274,461,5,
10582.1,4.80682,3.10516,1.546,4.56274,461,5,
10582.1,4.81201,3.10364,1.546,4.56274,461,5,
10582.1,4.81506,3.10516,1.546,4.56274,461,5,
10582.1,4.82056,3.10516,1.546,4.56274,461,5,
10582.1,4.823,3.10516,1.546,4.56274,461,5,
10582.1,4.82788,3.10516,1.546,4.56274,461,5,
10582.1,4.83276,3.10364,1.546,4.56274,461,5,
10582.1,4.83765,3.10059,1.546,4.56274,461,5,
10582.2,4.84253,3.10516,1.546,4.56274,461,5,
10582.2,4.84711,3.10059,1.546,4.56274,461,5,
10582.2,4.85168,3.10516,1.546,4.56274,461,5,
10582.2,4.85596,3.10669,1.546,4.56274,461,5,
10582.2,4.86084,3.10364,1.546,4.56274,461,5,
10582.2,4.86389,3.10364,1.546,4.56274,461,5,
10582.2,4.86969,3.10516,1.546,4.56274,461,5,
10582.2,4.87366,3.10364,1.546,4.56274,461,5,
10582.2,4.8761,3.10822,1.546,4.56274,461,5,
10582.2,4.88129,3.10364,1.546,4.56274,461,5,
10582.2,4.88617,3.10211,1.546,4.56274,461,5,
10582.2,4.89044,3.10211,1.546,4.56274,461,5,
10582.2,4.89594,3.10059,1.546,4.56274,461,5,
10582.2,4.90051,3.10364,1.546,4.56274,461,5,
10582.2,4.9057,3.10364,1.546,4.56274,461,5,
10582.2,4.91119,3.10364,1.546,4.56274,461,5,
10582.2,4.91608,3.10059,1.546,4.56274,461,5,
10582.2,4.92065,3.10211,1.546,4.56274,461,5,
10582.2,4.92554,3.10211,1.546,4.56274,461,5,
10582.2,4.93073,3.10822,1.546,4.56274,461,5,
10582.2,4.935,3.10516,1.546,4.56274,461,5,
10582.2,4.94019,3.10822,1.546,4.56274,461,5,
10582.2,4.94476,3.10516,1.546,4.56274,461,5,
10582.2,4.94751,3.10669,1.546,4.56274,461,5,
10582.2,4.95331,3.10516,1.546,4.56274,461,5,
10582.2,4.95819,3.10059,1.546,4.56274,461,5,
10582.2,4.96307,3.10211,1.546,4.56274,461,5,
10582.2,4.96857,3.10059,1.546,4.56274,461,5,
10582.2,4.97253,3.10364,1.546,4.56274,461,5,
10582.2,4.97772,3.10516,1.546,4.56274,461,5,
10582.2,4.9823,3.10516,1.546,4.56274,461,5,
10582.2,4.98718,3.10669,1.546,4.56274,461,5,
10582.2,4.98932,3.10516,1.546,4.56274,461,5,
10582.2,4.99512,3.10364,1.546,4.56274,461,5,
10582.2,4.99878,3.10516,1.546,4.56274,461,5,
10582.2,5.00427,3.10669,1.546,4.56274,461,5,
10582.2,5.00885,3.10516,1.546,4.56274,461,5,
10582.2,5.01373,3.10669,1.546,4.56274,461,5,
10582.2,5.01801,3.10669,1.546,4.56274,461,5,
10582.2,5.02319,3.10364,1.546,4.56274,461,5,
10582.2,5.02808,3.10974,1.546,4.56274,461,5,
10582.2,5.03265,3.10364,1.546,4.56274,461,5,
10582.2,5.03815,3.10516,1.546,4.56274,461,5,
10582.2,5.04303,3.10516,1.546,4.56274,461,5,
10582.2,5.04761,3.10059,1.546,4.56274,461,5,
10582.2,5.05341,3.10516,1.546,4.56274,461,5,
10582.2,5.05737,3.10516,1.546,4.56274,461,5,
10582.2,5.06256,3.10516,1.546,4.56274,461,5,
10582.2,5.06744,3.10364,1.546,4.56274,461,5,
10582.2,5.07233,3.10364,1.546,4.56274,461,5,
10582.3,5.07751,3.10059,1.546,4.56274,461,5,
10582.3,5.08179,3.10516,1.546,4.56274,461,5,
10582.3,5.08636,3.10669,1.546,4.56274,461,5,
10582.3,5.09094,3.10211,1.546,4.56274,461,5,
10582.3,5.09644,3.10211,1.546,4.56274,461,5,
10582.3,5.10101,3.10364,1.546,4.56274,461,5,
10582.3,5.1059,3.10364,1.546,4.56274,461,5,
10582.3,5.112,3.10211,1.546,4.56274,461,5,
10582.3,5.11627,3.10364,1.546,4.56274,461,5,
10582.3,5.12146,3.10364,1.546,4.56274,461,5,
10582.3,5.12512,3.10364,1.546,4.56274,461,5,
10582.3,5.13092,3.10364,1.546,4.56274,461,5,
10582.3,5.13489,3.10516,1.546,4.56274,461,5,
10582.3,5.14069,3.10516,1.546,4.56274,461,5,
10582.3,5.14496,3.10516,1.546,4.56274,461,5,
10582.3,5.15015,3.10364,1.546,4.56274,461,5,
10582.3,5.15503,3.10669,1.546,4.56274,461,5,
10582.3,5.15961,3.10516,1.546,4.56274,461,5,
10582.3,5.16388,3.10364,1.546,4.56274,461,5,
10582.3,5.16937,3.10364,1.546,4.56274,461,5,
10582.3,5.17548,3.10516,1.546,4.56274,461,5,
10582.3,5.17761,3.10669,1.546,4.56274,461,5,
10582.3,5.18219,3.10364,1.546,4.56274,461,5,
10582.3,5.18768,3.10516,1.546,4.56274,461,5,
10582.3,5.19226,3.10364,1.546,4.56274,461,5,
10582.3,5.19745,3.10516,1.546,4.56274,461,5,
10582.3,5.20111,3.10211,1.546,4.56274,461,5,
10582.3,5.20477,3.10059,1.546,4.56274,461,5,
10582.3,5.20905,3.10516,1.546,4.56274,461,5,
10582.3,5.21393,3.10364,1.546,4.56274,461,5,
10582.3,5.21942,3.10364,1.546,4.56274,461,5,
10582.3,5.22369,3.10059,1.546,4.56274,461,5,
10582.3,5.22888,3.10059,1.546,4.56274,461,5,
10582.3,5.23407,3.10669,1.546,4.56274,461,5,
10582.3,5.23834,3.10364,1.546,4.56274,461,5,
10582.3,5.24414,3.10516,1.546,4.56274,461,5,
10582.3,5.24841,3.10516,1.546,4.56274,461,5,
10582.3,5.25299,3.10822,1.546,4.56274,461,5,
10582.3,5.25787,3.10211,1.546,4.56274,461,5,
10582.3,5.26276,3.10211,1.546,4.56274,461,5,
10582.3,5.26611,3.10669,1.546,4.56274,461,5,
10582.3,5.27039,3.10364,1.546,4.56274,461,5,
10582.3,5.27557,3.10516,1.546,4.56274,461,5,
10582.3,5.27802,3.10669,1.546,4.56274,461,5,
10582.3,5.2832,3.10364,1.546,4.56274,461,5,
10582.3,5.28839,3.10364,1.546,4.56274,461,5,
10582.3,5.29297,3.10516,1.546,4.56274,461,5,
10582.3,5.29755,3.10822,1.546,4.56274,461,5,
10582.3,5.30334,3.10364,1.546,4.56274,461,5,
10582.4,5.30762,3.10516,1.546,4.56274,461,5,
10582.4,5.31219,3.10364,1.546,4.56274,461,5,
10582.4,5.31525,3.10211,1.546,4.56274,461,5,
10582.4,5.31952,3.10364,1.546,4.56274,461,5,
10582.4,5.32196,3.10364,1.546,4.56274,461,5,
10582.4,5.32776,3.10364,1.546,4.56274,461,5,
10582.4,5.33203,3.10211,1.546,4.56274,461,5,
10582.4,5.33661,3.10516,1.546,4.56274,461,5,
10582.4,5.34119,3.10364,1.546,4.56274,461,5,
10582.4,5.34576,3.10669,1.546,4.56274,461,5,
10582.4,5.34943,3.10211,1.546,4.56274,461,5,
10582.4,5.35156,3.10211,1.546,4.56274,461,5,
10582.4,5.35736,3.10669,1.546,4.56274,461,5,
10582.4,5.36133,3.10516,1.546,4.56274,461,5,
10582.4,5.36652,3.10669,1.546,4.56274,461,5,
10582.4,5.37109,3.10364,1.546,4.56274,461,5,
10582.4,5.37384,3.10669,1.546,4.56274,461,5,
10582.4,5.37659,3.10364,1.546,4.56274,461,5,
10582.4,5.38086,3.10516,1.546,4.56274,461,5,
10582.4,5.38605,3.10516,1.546,4.56274,461,5,
10582.4,5.39062,3.10364,1.546,4.56274,461,5,
10582.4,5.39551,3.10364,1.546,4.56274,461,5,
10582.4,5.39825,3.10364,1.546,4.56274,461,5,
10582.4,5.401,3.10364,1.546,4.56274,461,5,
10582.4,5.40527,3.10211,1.546,4.56274,461,5,
10582.4,5.41046,3.10516,1.546,4.56274,461,5,
10582.4,5.41565,3.10059,1.546,4.56274,461,5,
10582.4,5.41504,3.10516,1.546,4.56274,461,5,
10582.4,5.42023,3.10364,1.546,4.56274,461,5,
10582.4,5.4248,3.10516,1.546,4.56274,461,5,
10582.4,5.42969,3.10516,1.546,4.56274,461,5,
10582.4,5.43182,3.10516,1.546,4.56274,461,5,
10582.4,5.43579,3.10516,1.546,4.56274,461,5,
10582.4,5.43976,3.10364,1.546,4.56274,461,5,
10582.4,5.44495,3.10364,1.546,4.56274,461,5,
10582.4,5.44739,3.10364,1.546,4.56274,461,5,
10582.4,5.45013,3.10364,1.546,4.56274,461,5,
10582.4,5.4541,3.10364,1.546,4.56274,461,5,
10582.4,5.45929,3.10516,1.546,4.56274,461,5,
10582.4,5.46234,3.10516,1.546,4.56274,461,5,
10582.4,5.46417,3.10516,1.546,4.56274,461,5,
10582.4,5.46936,3.10364,1.546,4.56274,461,5,
10582.4,5.47211,3.10364,1.546,4.56274,461,5,
10582.4,5.47394,3.10364,1.546,4.56274,461,5,
10582.4,5.47974,3.10516,1.546,4.56274,461,5,
10582.4,5.48248,3.10822,1.546,4.56274,461,5,
10582.4,5.4834,3.10516,1.546,4.56274,461,5,
10582.4,5.48889,3.10211,1.546,4.56274,461,5,
10582.4,5.49225,3.10211,1.546,4.56274,461,5,
10582.4,5.49377,3.10516,1.546,4.56274,461,5,
10582.5,5.49866,3.10516,1.546,4.56274,461,5,
10582.5,5.50262,3.10669,1.546,4.56274,461,5,
10582.5,5.50323,3.10669,1.546,4.56274,461,5,
10582.5,5.50812,3.10364,1.546,4.56274,461,5,
10582.5,5.51361,3.10364,1.546,4.56274,461,5,
10582.5,5.51208,3.10364,1.546,4.56274,461,5,
10582.5,5.51819,3.10364,1.546,4.56274,461,5,
10582.5,5.52277,3.10516,1.546,4.56274,461,5,
10582.5,5.52307,3.10669,1.546,4.56274,461,5,
10582.5,5.52734,3.10364,1.546,4.56274,461,5,
10582.5,5.5307,3.10516,1.546,4.56274,461,5,
10582.5,5.53345,3.10516,1.546,4.56274,461,5,
10582.5,5.5368,3.10364,1.546,4.56274,461,5,
10582.5,5.53802,3.10516,1.546,4.56274,461,5,
10582.5,5.54169,3.10211,1.546,4.56274,461,5,
10582.5,5.54199,3.10516,1.546,4.56274,461,5,
10582.5,5.54779,3.10516,1.546,4.56274,461,5,
10582.5,5.55084,3.10516,1.546,4.56274,461,5,
10582.5,5.55206,3.10822,1.546,4.56274,461,5,
10582.5,5.55664,3.10364,1.546,4.56274,461,5,
10582.5,5.55695,3.10364,1.546,4.56274,461,5,
10582.5,5.56152,3.10669,1.546,4.56274,461,5,
10582.5,5.56274,3.10211,1.546,4.56274,461,5,
10582.5,5.56641,3.10516,1.546,4.56274,461,5,
10582.5,5.56671,3.10364,1.546,4.56274,461,5,
10582.5,5.5719,3.10364,1.546,4.56274,461,5,
10582.5,5.5719,3.10211,1.546,4.56274,461,5,
10582.5,5.57617,3.10211,1.546,4.56274,461,5,
10582.5,5.57678,3.10059,1.546,4.56274,461,5,
10582.5,5.58228,3.10364,1.546,4.56274,461,5,
10582.5,5.58228,3.10364,1.546,4.56274,461,5,
10582.5,5.58685,3.10516,1.546,4.56274,461,5,
10582.5,5.58746,3.10364,1.546,4.56274,461,5,
10582.5,5.59143,3.10211,1.546,4.56274,461,5,
10582.5,5.59204,3.10669,1.546,4.56274,461,5,
10582.5,5.59662,3.10516,1.546,4.56274,461,5,
10582.5,5.59662,3.10364,1.546,4.56274,461,5,
10582.5,5.6015,3.10211,1.546,4.56274,461,5,
10582.5,5.6012,3.10059,1.546,4.56274,461,5,
10582.5,5.60425,3.10364,1.546,4.56274,461,5,
10582.5,5.60669,3.10516,1.546,4.56274,461,5,
10582.5,5.60669,3.10669,1.546,4.56274,461,5,
10582.5,5.61127,3.10364,1.546,4.56274,461,5,
10582.5,5.61188,3.10364,1.546,4.56274,461,5,
10582.5,5.61676,3.10974,1.546,4.56274,461,5,
10582.5,5.61615,3.10364,1.546,4.56274,461,5,
10582.5,5.61859,3.10364,1.546,4.56274,461,5,
10582.5,5.62134,3.10516,1.546,4.56274,461,5,
10582.5,5.62103,3.10059,1.546,4.56274,461,5,
10582.5,5.62653,3.10364,1.546,4.56274,461,5,
10582.5,5.62592,3.10669,1.546,4.56274,461,5,
10582.6,5.62836,3.10516,1.546,4.56274,461,5,
10582.6,5.63019,3.10516,1.546,4.56274,461,5,
10582.6,5.63049,3.10669,1.546,4.56274,461,5,
10582.6,5.63507,3.10059,1.546,4.56274,461,5,
10582.6,5.63538,3.10364,1.546,4.56274,461,5,
10582.6,5.63538,3.10364,1.546,4.56274,461,5,
10582.6,5.64026,3.10211,1.546,4.56274,461,5,
10582.6,5.64026,3.10211,1.546,4.56274,461,5,
10582.6,5.64056,3.10364,1.546,4.56274,461,5,
10582.6,5.64514,3.10516,1.546,4.56274,461,5,
10582.6,5.64545,3.10364,1.546,4.56274,461,5,
10582.6,5.64484,3.10516,1.546,4.56274,461,5,
10582.6,5.64972,3.10669,1.546,4.56274,461,5,
10582.6,5.65033,3.10364,1.546,4.56274,461,5,
10582.6,5.65033,3.10059,1.546,4.56274,461,5,
10582.6,5.65308,3.10211,1.546,4.56274,461,5,
10582.6,5.6546,3.10364,1.546,4.56274,461,5,
10582.6,5.65491,3.10516,1.546,4.56274,461,5,
10582.6,5.6546,3.10516,1.546,4.56274,461,5,
10582.6,5.65948,3.10516,1.546,4.56274,461,5,
10582.6,5.6604,3.10364,1.546,4.56274,461,5,
10582.6,5.6601,3.10364,1.546,4.56274,461,5,
10582.6,5.65948,3.10516,1.546,4.56274,461,5,
10582.6,5.66498,3.10669,1.546,4.56274,461,5,
10582.6,5.66437,3.10974,1.546,4.56274,461,5,
10582.6,5.66467,3.10516,1.546,4.56274,461,5,
10582.6,5.66467,3.10364,1.546,4.56274,461,5,
10582.6,5.66986,3.10669,1.546,4.56274,461,5,
10582.6,5.66956,3.10364,1.546,4.56274,461,5,
10582.6,5.67047,3.10364,1.546,4.56274,461,5,
10582.6,5.66986,3.10516,1.546,4.56274,461,5,
10582.6,5.66986,3.10364,1.546,4.56274,461,5,
10582.6,5.67413,3.10516,1.546,4.56274,461,5,
10582.6,5.67535,3.10516,1.546,4.56274,461,5,
10582.6,5.67535,3.10364,1.546,4.56274,461,5,
10582.6,5.67505,3.10516,1.546,4.56274,461,5,
10582.6,5.67444,3.10516,1.546,4.56274,461,5,
10582.6,5.67749,3.10364,1.546,4.56274,461,5,
10582.6,5.67963,3.10516,1.546,4.56274,461,5,
10582.6,5.68024,3.10516,1.546,4.56274,461,5,
10582.6,5.67932,3.10211,1.546,4.56274,461,5,
10582.6,5.67963,3.10211,1.546,4.56274,461,5,
10582.6,5.67993,3.10516,1.546,4.56274,461,5,
10582.6,5.67993,3.10516,1.546,4.56274,461,5,
10582.6,5.68024,3.10059,1.546,4.56274,461,5,
10582.6,5.68451,3.10669,1.546,4.56274,461,5,
10582.6,5.68481,3.10364,1.546,4.56274,461,5,
10582.6,5.68481,3.10822,1.546,4.56274,461,5,
10582.6,5.68481,3.10822,1.546,4.56274,461,5,
10582.6,5.6839,3.10516,1.546,4.56274,461,5,
10582.7,5.68512,3.10364,1.546,4.56274,461,5,
10582.7,5.68451,3.10669,1.546,4.56274,461,5,
10582.7,5.6842,3.10669,1.546,4.56274,461,5,
10582.7,5.68451,3.10364,1.546,4.56274,461,5,
10582.7,5.68512,3.10211,1.546,4.56274,461,5,
10582.7,5.6842,3.10364,1.546,4.56274,461,5,
10582.7,5.6842,3.10516,1.546,4.56274,461,5,
10582.7,5.68481,3.10516,1.546,4.56274,461,5,
10582.7,5.68481,3.10516,1.546,4.56274,461,5,
10582.7,5.6842,3.10211,1.546,4.56274,461,5,
10582.7,5.6839,3.10364,1.546,4.56274,461,5,
10582.7,5.68451,3.10516,1.546,4.56274,461,5,
10582.7,5.68451,3.10211,1.546,4.56274,461,5,
10582.7,5.68481,3.10211,1.546,4.56274,461,5,
10582.7,5.68481,3.10516,1.546,4.56274,461,5,
10582.7,5.68451,3.10516,1.546,4.56274,461,5,
10582.7,5.6842,3.10669,1.546,4.56274,461,5,
10582.7,5.6839,3.10364,1.546,4.56274,461,5,
10582.7,5.68512,3.10364,1.546,4.56274,461,5,
10582.7,5.68451,3.10669,1.546,4.56274,461,5,
10582.7,5.68451,3.10516,1.546,4.56274,461,5,
10582.7,5.68512,3.10669,1.546,4.56274,461,5,
10582.7,5.68451,3.10364,1.546,4.56274,461,5,
10582.7,5.6842,3.10364,1.546,4.56274,461,5,
10582.7,5.68481,3.10516,1.546,4.56274,461,5,
10582.7,5.68481,3.10669,1.546,4.56274,461,5,
10582.7,5.68451,3.10211,1.546,4.56274,461,5,
10582.7,5.68451,3.10516,1.546,4.56274,461,5,
10582.7,5.67993,3.10364,1.546,4.56274,461,5,
10582.7,5.67963,3.10669,1.546,4.56274,461,5,
10582.7,5.67993,3.10669,1.546,4.56274,461,5,
10582.7,5.67993,3.10211,1.546,4.56274,461,5,
10582.7,5.67993,3.10211,1.546,4.56274,461,5,
10582.7,5.67963,3.10211,1.546,4.56274,461,5,
10582.7,5.67963,3.10211,1.546,4.56274,461,5,
10582.7,5.67505,3.10211,1.546,4.56274,461,5,
10582.7,5.67444,3.09601,1.546,4.56274,461,5,
10582.7,5.67474,3.09143,1.546,4.56274,461,5,
10582.7,5.67505,3.09296,1.546,4.56274,461,5,
10582.7,5.67474,3.09296,1.546,4.56274,461,5,
10582.7,5.67474,3.09143,1.546,4.56274,461,5,
10582.7,5.66895,3.09296,1.546,4.56274,461,5,
10582.7,5.67047,3.09143,1.546,4.56274,461,5,
10582.7,5.66925,3.09143,1.546,4.56274,461,5,
10582.7,5.66925,3.08838,1.546,4.56274,461,5,
10582.7,5.66986,3.08533,1.546,4.56274,461,5,
10582.7,5.66528,3.09296,1.546,4.56274,461,5,
10582.7,5.66498,3.08838,1.546,4.56274,461,5,
10582.7,5.66528,3.09296,1.546,4.56274,461,5,
10582.8,5.66437,3.08991,1.546,4.56274,461,5,
10582.8,5.66071,3.08991,1.546,4.56274,461,5,
10582.8,5.66071,3.09296,1.546,4.56274,461,5,
10582.8,5.6604,3.09143,1.546,4.56274,461,5,
10582.8,5.65979,3.08991,1.546,4.56274,461,5,
10582.8,5.65552,3.09143,1.546,4.56274,461,5,
10582.8,5.65521,3.09296,1.546,4.56274,461,5,
10582.8,5.65521,3.09143,1.546,4.56274,461,5,
10582.8,5.65582,3.08838,1.546,4.56274,461,5,
10582.8,5.65125,3.09143,1.546,4.56274,461,5,
10582.8,5.65094,3.09448,1.546,4.56274,461,5,
10582.8,5.65094,3.09296,1.546,4.56274,461,5,
10582.8,5.64697,3.09448,1.546,4.56274,461,5,
10582.8,5.64575,3.09143,1.546,4.56274,461,5,
10582.8,5.64575,3.09448,1.546,4.56274,461,5,
10582.8,5.64545,3.08991,1.546,4.56274,461,5,
10582.8,5.64087,3.09143,1.546,4.56274,461,5,
10582.8,5.64087,3.09296,1.546,4.56274,461,5,
10582.8,5.64056,3.08991,1.546,4.56274,461,5,
10582.8,5.63629,3.08991,1.546,4.56274,461,5,
10582.8,5.63568,3.09296,1.546,4.56274,461,5,
10582.8,5.63568,3.08991,1.546,4.56274,461,5,
10582.8,5.63263,3.09143,1.546,4.56274,461,5,
10582.8,5.63019,3.09296,1.546,4.56274,461,5,
10582.8,5.63019,3.09448,1.546,4.56274,461,5,
10582.8,5.6311,3.09143,1.546,4.56274,461,5,
10582.8,5.62531,3.08991,1.546,4.56274,461,5,
10582.8,5.62561,3.08991,1.546,4.56274,461,5,
10582.8,5.62592,3.08991,1.546,4.56274,461,5,
10582.8,5.62103,3.09296,1.546,4.56274,461,5,
10582.8,5.62134,3.09143,1.546,4.56274,461,5,
10582.8,5.62103,3.09296,1.546,4.56274,461,5,
10582.8,5.61646,3.09296,1.546,4.56274,461,5,
10582.8,5.61615,3.08991,1.546,4.56274,461,5,
10582.8,5.61401,3.09448,1.546,4.56274,461,5,
10582.8,5.61096,3.09143,1.546,4.56274,461,5,
10582.8,5.61127,3.08991,1.546,4.56274,461,5,
10582.8,5.6073,3.09143,1.546,4.56274,461,5,
10582.8,5.60699,3.09296,1.546,4.56274,461,5,
10582.8,5.60577,3.09143,1.546,4.56274,461,5,
10582.8,5.6015,3.09143,1.546,4.56274,461,5,
10582.8,5.6012,3.09143,1.546,4.56274,461,5,
10582.8,5.6012,3.09143,1.546,4.56274,461,5,
10582.8,5.59601,3.09143,1.546,4.56274,461,5,
10582.8,5.59662,3.09296,1.546,4.56274,461,5,
10582.8,5.59296,3.09296,1.546,4.56274,461,5,
10582.8,5.59174,3.08991,1.546,4.56274,461,5,
10582.8,5.59143,3.09296,1.546,4.56274,461,5,
10582.8,5.58624,3.08991,1.546,4.56274,461,5,
10582.8,5.58716,3.09296,1.546,4.56274,461,5,
10582.9,5.58228,3.08991,1.546,4.56274,461,5,
10582.9,5.58136,3.09143,1.546,4.56274,461,5,
10582.9,5.58228,3.08991,1.546,4.56274,461,5,
10582.9,5.57678,3.08991,1.546,4.56274,461,5,
10582.9,5.57648,3.08991,1.546,4.56274,461,5,
10582.9,5.57281,3.08991,1.546,4.56274,461,5,
10582.9,5.57159,3.09448,1.546,4.56274,461,5,
10582.9,5.56915,3.09296,1.546,4.56274,461,5,
10582.9,5.56763,3.09296,1.546,4.56274,461,5,
10582.9,5.56702,3.09296,1.546,4.56274,461,5,
10582.9,5.56213,3.09296,1.546,4.56274,461,5,
10582.9,5.56244,3.09296,1.546,4.56274,461,5,
10582.9,5.55786,3.09296,1.546,4.56274,461,5,
10582.9,5.55786,3.09296,1.546,4.56274,461,5,
10582.9,5.55359,3.09296,1.546,4.56274,461,5,
10582.9,5.55237,3.09448,1.546,4.56274,461,5,
10582.9,5.54993,3.08838,1.546,4.56274,461,5,
10582.9,5.54718,3.09143,1.546,4.56274,461,5,
10582.9,5.54749,3.09296,1.546,4.56274,461,5,
10582.9,5.5423,3.09296,1.546,4.56274,461,5,
10582.9,5.54291,3.09296,1.546,4.56274,461,5,
10582.9,5.53772,3.09143,1.546,4.56274,461,5,
10582.9,5.53772,3.09296,1.546,4.56274,461,5,
10582.9,5.53345,3.09296,1.546,4.56274,461,5,
10582.9,5.53253,3.09448,1.546,4.56274,461,5,
10582.9,5.53009,3.09448,1.546,4.56274,461,5,
10582.9,5.52704,3.09296,1.546,4.56274,461,5,
10582.9,5.52551,3.09296,1.546,4.56274,461,5,
10582.9,5.52307,3.08991,1.546,4.56274,461,5,
10582.9,5.52399,3.08991,0,4.56274,461,5,
10582.9,5.51849,3.09296,0,4.56274,461,5,
10582.9,5.51849,3.08991,0,4.56274,461,5,
10582.9,5.51331,3.09143,0,4.56274,461,5,
10582.9,5.513,3.09448,0,4.56274,461,5,
10582.9,5.50812,3.08991,0,4.56274,461,5,
10582.9,5.50842,3.09143,0,4.56274,461,5,
10582.9,5.50354,3.09296,0,4.56274,461,5,
10582.9,5.50415,3.09143,0,4.56274,461,5,
10582.9,5.49957,3.09448,0,4.56274,461,5,
10582.9,5.49866,3.09296,0,4.56274,461,5,
10582.9,5.49438,3.09296,0,4.56274,461,5,
10582.9,5.49316,3.09143,0,4.56274,461,5,
10582.9,5.49072,3.09296,0,4.56274,461,5,
10582.9,5.48889,3.09143,0,4.56274,461,5,
10582.9,5.48676,3.09448,0,4.56274,461,5,
10582.9,5.4837,3.09296,0,4.56274,461,5,
10582.9,5.48096,3.09296,0,4.56274,461,5,
10582.9,5.47852,3.09601,0,4.56274,461,5,
10582.9,5.47882,3.09143,0,4.56274,461,5,
10582.9,5.47485,3.09296,0,4.56274,461,5,
10583,5.47363,3.09143,0,4.56274,461,5,
10583,5.46906,3.09448,0,4.56274,461,5,
10583,5.46906,3.09296,0,4.56274,461,5,
10583,5.46387,3.09143,0,4.56274,461,5,
10583,5.46387,3.09296,0,4.56274,461,5,
10583,5.4599,3.09143,0,4.56274,461,5,
10583,5.45929,3.09143,0,4.56274,461,5,
10583,5.4541,3.09143,0,4.56274,461,5,
10583,5.45502,3.09143,0,4.56274,461,5,
10583,5.44952,3.09143,0,4.56274,461,5,
10583,5.44983,3.09296,0,4.56274,461,5,
10583,5.44495,3.09143,0,4.56274,461,5,
10583,5.44464,3.09143,0,4.56274,461,5,
10583,5.44006,3.09601,0,4.56274,461,5,
10583,5.44067,3.09448,0,4.56274,461,5,
10583,5.43488,3.09143,0,4.56274,461,5,
10583,5.43488,3.09143,0,4.56274,461,5,
10583,5.4306,3.09448,0,4.56274,461,5,
10583,5.42969,3.09143,0,4.56274,461,5,
10583,5.42633,3.08991,0,4.56274,461,5,
10583,5.42511,3.09448,0,4.56274,461,5,
10583,5.42114,3.09296,0,4.56274,461,5,
10583,5.42053,3.09143,0,4.56274,461,5,
10583,5.41534,3.09296,0,4.56274,461,5,
10583,5.41504,3.09296,0,4.56274,461,5,
10583,5.41138,3.09143,0,4.56274,461,5,
10583,5.40985,3.09601,0,4.56274,461,5,
10583,5.40588,3.09448,0,4.56274,461,5,
10583,5.40558,3.09601,0,4.56274,461,5,
10583,5.40161,3.09143,0,4.56274,461,5,
10583,5.4007,3.09143,0,4.56274,461,5,
10583,5.39551,3.09296,0,4.56274,461,5,
10583,5.39551,3.09143,0,4.56274,461,5,
10583,5.39185,3.09296,0,4.56274,461,5,
10583,5.39062,3.09143,0,4.56274,461,5,
10583,5.38635,3.09601,0,4.56274,461,5,
10583,5.38513,3.09143,0,4.56274,461,5,
10583,5.38147,3.09448,0,4.56274,461,5,
10583,5.38025,3.09143,0,4.56274,461,5,
10583,5.37689,3.09448,0,4.56274,461,5,
10583,5.37598,3.09448,0,4.56274,461,5,
10583,5.3714,3.09296,0,4.56274,461,5,
10583,5.3714,3.09143,0,4.56274,461,5,
10583,5.36652,3.09296,0,4.56274,461,5,
10583,5.36652,3.09143,0,4.56274,461,5,
10583,5.36163,3.09143,0,4.56274,461,5,
10583,5.36072,3.09143,0,4.56274,461,5,
10583,5.35645,3.09296,0,4.56274,461,5,
10583,5.35614,3.09296,0,4.56274,461,5,
10583,5.35187,3.09143,0,4.56274,461,5,
10583,5.35126,3.09143,0,4.56274,461,5,
10583.1,5.34668,3.09143,0,4.56274,461,5,
10583.1,5.34668,3.09296,0,4.56274,461,5,
10583.1,5.34149,3.09143,0,4.56274,461,5,
10583.1,5.34241,3.09448,0,4.56274,461,5,
10583.1,5.3363,3.09143,0,4.56274,461,5,
10583.1,5.33691,3.09143,0,4.56274,461,5,
10583.1,5.33173,3.09143,0,4.56274,461,5,
10583.1,5.33112,3.09296,0,4.56274,461,5,
10583.1,5.32745,3.08991,0,4.56274,461,5,
10583.1,5.32745,3.09143,0,4.56274,461,5,
10583.1,5.32227,3.09143,0,4.56274,461,5,
10583.1,5.32135,3.09143,0,4.56274,461,5,
10583.1,5.31708,3.08991,0,4.56274,461,5,
10583.1,5.31708,3.08991,0,4.56274,461,5,
10583.1,5.31158,3.09296,0,4.56274,461,5,
10583.1,5.31189,3.09143,0,4.56274,461,5,
10583.1,5.30823,3.09448,0,4.56274,461,5,
10583.1,5.30731,3.09448,0,4.56274,461,5,
10583.1,5.30273,3.08991,0,4.56274,461,5,
10583.1,5.30304,3.09296,0,4.56274,461,5,
10583.1,5.29816,3.09143,0,4.56274,461,5,
10583.1,5.29816,3.09296,0,4.56274,461,5,
10583.1,5.29266,3.09143,0,4.56274,461,5,
10583.1,5.29266,3.09448,0,4.56274,461,5,
10583.1,5.2887,3.08838,0,4.56274,461,5,
10583.1,5.28717,3.09143,0,4.56274,461,5,
10583.1,5.28534,3.08991,0,4.56274,461,5,
10583.1,5.28259,3.08991,0,4.56274,461,5,
10583.1,5.28076,3.09296,0,4.56274,461,5,
10583.1,5.27832,3.09143,0,4.56274,461,5,
10583.1,5.27588,3.08991,0,4.56274,461,5,
10583.1,5.27283,3.09143,0,4.56274,461,5,
10583.1,5.27283,3.09296,0,4.56274,461,5,
10583.1,5.26794,3.09143,0,4.56274,461,5,
10583.1,5.26794,3.08991,0,4.56274,461,5,
10583.1,5.26276,3.08991,0,4.56274,461,5,
10583.1,5.26306,3.08991,0,4.56274,461,5,
10583.1,5.25879,3.09143,0,4.56274,461,5,
10583.1,5.25818,3.08991,0,4.56274,461,5,
10583.1,5.2533,3.08838,0,4.56274,461,5,
10583.1,5.25421,3.09448,0,4.56274,461,5,
10583.1,5.24933,3.08991,0,4.56274,461,5,
10583.1,5.24902,3.08991,0,4.56274,461,5,
10583.1,5.24567,3.09143,0,4.56274,461,5,
10583.1,5.24323,3.09296,0,4.56274,461,5,
10583.1,5.24048,3.09296,0,4.56274,461,5,
10583.1,5.23804,3.08838,0,4.56274,461,5,
10583.1,5.23895,3.09143,0,4.56274,461,5,
10583.1,5.23376,3.08838,0,4.56274,461,5,
10583.1,5.23376,3.09143,0,4.56274,461,5,
10583.2,5.22919,3.09296,0,4.56274,461,5,
10583.2,5.22858,3.09143,0,4.56274,461,5,
10583.2,5.22461,3.09296,0,4.56274,461,5,
10583.2,5.22369,3.09143,0,4.56274,461,5,
10583.2,5.22125,3.09296,0,4.56274,461,5,
10583.2,5.21881,3.09296,0,4.56274,461,5,
10583.2,5.22003,3.09296,0,4.56274,461,5,
10583.2,5.21393,3.09296,0,4.56274,461,5,
10583.2,5.21484,3.08991,0,4.56274,461,5,
10583.2,5.20935,3.09448,0,4.56274,461,5,
10583.2,5.20905,3.09143,0,4.56274,461,5,
10583.2,5.20508,3.09143,0,4.56274,461,5,
10583.2,5.20416,3.09296,0,4.56274,461,5,
10583.2,5.20447,3.08991,0,4.56274,461,5,
10583.2,5.19928,3.09296,0,4.56274,461,5,
10583.2,5.19958,3.08991,0,4.56274,461,5,
10583.2,5.1944,3.09143,0,4.56274,461,5,
10583.2,5.1944,3.09448,0,4.56274,461,5,
10583.2,5.19165,3.08991,0,4.56274,461,5,
10583.2,5.18982,3.08991,0,4.56274,461,5,
10583.2,5.18951,3.09296,0,4.56274,461,5,
10583.2,5.18463,3.09448,0,4.56274,461,5,
10583.2,5.18433,3.09296,0,4.56274,461,5,
10583.2,5.18036,3.08838,0,4.56274,461,5,
10583.2,5.17944,3.08991,0,4.56274,461,5,
10583.2,5.177,3.09296,0,4.56274,461,5,
10583.2,5.17548,3.09296,0,4.56274,461,5,
10583.2,5.17487,3.09143,0,4.56274,461,5,
10583.2,5.16998,3.09448,0,4.56274,461,5,
10583.2,5.17059,3.09143,0,4.56274,461,5,
10583.2,5.16785,3.09143,0,4.56274,461,5,
10583.2,5.16541,3.09143,0,4.56274,461,5,
10583.2,5.16541,3.09296,0,4.56274,461,5,
10583.2,5.15991,3.09143,0,4.56274,461,5,
10583.2,5.15991,3.08991,0,4.56274,461,5,
10583.2,5.15656,3.08991,0,4.56274,461,5,
10583.2,5.15564,3.09448,0,4.56274,461,5,
10583.2,5.15533,3.09296,0,4.56274,461,5,
10583.2,5.15137,3.09296,0,4.56274,461,5,
10583.2,5.15045,3.09296,0,4.56274,461,5,
10583.2,5.14832,3.08991,0,4.56274,461,5,
10583.2,5.14496,3.09296,0,4.56274,461,5,
10583.2,5.14557,3.08991,0,4.56274,461,5,
10583.2,5.1413,3.09296,0,4.56274,461,5,
10583.2,5.14099,3.08991,0,4.56274,461,5,
10583.2,5.14099,3.08991,0,4.56274,461,5,
10583.2,5.13641,3.08991,0,4.56274,461,5,
10583.2,5.1355,3.08991,0,4.56274,461,5,
10583.2,5.13184,3.09296,0,4.56274,461,5,
10583.2,5.13123,3.08991,0,4.56274,461,5,
10583.3,5.13123,3.09143,0,4.56274,461,5,
10583.3,5.12573,3.09143,0,4.56274,461,5,
10583.3,5.12634,3.09143,0,4.56274,461,5,
10583.3,5.12634,3.08991,0,4.56274,461,5,
10583.3,5.12177,3.09143,0,4.56274,461,5,
10583.3,5.12177,3.09143,0,4.56274,461,5,
10583.3,5.11871,3.09296,0,4.56274,461,5,
10583.3,5.11627,3.09296,0,4.56274,461,5,
10583.3,5.11597,3.09143,0,4.56274,461,5,
10583.3,5.11169,3.09143,0,4.56274,461,5,
10583.3,5.11139,3.09448,0,4.56274,461,5,
10583.3,5.11108,3.08991,0,4.56274,461,5,
10583.3,5.10742,3.09143,0,4.56274,461,5,
10583.3,5.1059,3.09143,0,4.56274,461,5,
10583.3,5.10651,3.09296,0,4.56274,461,5,
10583.3,5.10284,3.09296,0,4.56274,461,5,
10583.3,5.10132,3.09296,0,4.56274,461,5,
10583.3,5.10132,3.09448,0,4.56274,461,5,
10583.3,5.09644,3.09448,0,4.56274,461,5,
10583.3,5.09674,3.09448,0,4.56274,461,5,
10583.3,5.09705,3.09296,0,4.56274,461,5,
10583.3,5.09399,3.09296,0,4.56274,461,5,
10583.3,5.09155,3.09143,0,4.56274,461,5,
10583.3,5.09155,3.08838,0,4.56274,461,5,
10583.3,5.09155,3.08991,0,4.56274,461,5,
10583.3,5.08667,3.08991,0,4.56274,461,5,
10583.3,5.08636,3.09448,0,4.56274,461,5,
10583.3,5.08667,3.09143,0,4.56274,461,5,
10583.3,5.08209,3.09296,0,4.56274,461,5,
10583.3,5.08148,3.09448,0,4.56274,461,5,
10583.3,5.08209,3.09296,0,4.56274,461,5,
10583.3,5.08118,3.09296,0,4.56274,461,5,
10583.3,5.07751,3.09143,0,4.56274,461,5,
10583.3,5.07721,3.08991,0,4.56274,461,5,
10583.3,5.07721,3.09296,0,4.56274,461,5,
10583.3,5.07446,3.08838,0,4.56274,461,5,
10583.3,5.07324,3.09143,0,4.56274,461,5,
10583.3,5.07233,3.09448,0,4.56274,461,5,
10583.3,5.07233,3.08991,0,4.56274,461,5,
10583.3,5.07019,3.09601,0,4.56274,461,5,
10583.3,5.06714,3.09143,0,4.56274,461,5,
10583.3,5.06805,3.09448,0,4.56274,461,5,
10583.3,5.06866,3.09143,0,4.56274,461,5,
10583.3,5.06744,3.09448,0,4.56274,461,5,
10583.3,5.06256,3.09296,0,4.56274,461,5,
10583.3,5.06348,3.09143,0,4.56274,461,5,
10583.3,5.06287,3.09448,0,4.56274,461,5,
10583.3,5.06256,3.09143,0,4.56274,461,5,
10583.3,5.0589,3.09143,0,4.56274,461,5,
10583.4,5.05798,3.09296,0,4.56274,461,5,
10583.4,5.05798,3.09296,0,4.56274,461,5,
10583.4,5.05798,3.10364,0,4.56274,461,5,
10583.4,5.05707,3.10364,0,4.56274,461,5,
10583.4,5.05371,3.10211,0,4.56274,461,5,
10583.4,5.05341,3.10669,0,4.56274,461,5,
10583.4,5.05341,3.10669,0,4.56274,461,5,
10583.4,5.05341,3.10364,0,4.56274,461,5,
10583.4,5.05402,3.10669,0,4.56274,461,5,
10583.4,5.05432,3.10211,0,4.56274,461,5,
10583.4,5.04944,3.10364,0,4.56274,461,5,
10583.4,5.04791,3.10364,0,4.56274,461,5,
10583.4,5.04883,3.10364,0,4.56274,461,5,
10583.4,5.04822,3.10669,0,4.56274,461,5,
10583.4,5.04913,3.10516,0,4.56274,461,5,
10583.4,5.04822,3.10364,0,4.56274,461,5,
10583.4,5.04395,3.10364,0,4.56274,461,5,
10583.4,5.04333,3.10974,0,4.56274,461,5,
10583.4,5.04272,3.10059,0,4.56274,461,5,
10583.4,5.04333,3.10669,0,4.56274,461,5,
10583.4,5.04303,3.10516,0,4.56274,461,5,
10583.4,5.04303,3.09906,0,4.56274,461,5,
10583.4,5.04272,3.10364,0,4.56274,461,5,
10583.4,5.04242,3.10364,0,4.56274,461,5,
10583.4,5.04059,3.10364,0,4.56274,461,5,
10583.4,5.03784,3.10516,0,4.56274,461,5,
10583.4,5.03754,3.10364,0,4.56274,461,5,
10583.4,5.03784,3.10822,0,4.56274,461,5,
10583.4,5.03815,3.10669,0,4.56274,461,5,
10583.4,5.03754,3.10669,0,4.56274,461,5,
10583.4,5.03845,3.10516,0,4.56274,461,5,
10583.4,5.03845,3.10669,2.752,4.56274,461,5,
10583.4,5.03784,3.10364,2.752,4.56274,461,5,
10583.4,5.03784,3.10516,2.752,4.56274,461,5,
10583.4,5.03815,3.10516,2.752,4.56274,461,5,
10583.4,5.03815,3.10669,2.752,4.56274,461,5,
10583.4,5.03815,3.10364,2.752,4.56274,461,5,
10583.4,5.03876,3.10364,2.752,4.56274,461,5,
10583.4,5.03845,3.10211,2.752,4.56274,461,5,
10583.4,5.03784,3.10516,2.752,4.56274,461,5,
10583.4,5.03754,3.10516,2.752,4.56274,461,5,
10583.4,5.03876,3.10669,2.752,4.56274,461,5,
10583.4,5.03754,3.10211,2.752,4.56274,461,5,
10583.4,5.03784,3.10364,2.752,4.56274,461,5,
10583.4,5.03845,3.10516,2.752,4.56274,461,5,
10583.4,5.03784,3.10211,2.752,4.56274,461,5,
10583.4,5.03815,3.10516,2.752,4.56274,461,5,
10583.4,5.03815,3.10822,2.752,4.56274,461,5,
10583.4,5.03815,3.10516,2.752,4.56274,461,5,
10583.4,5.03784,3.10059,2.752,4.56274,461,5,
10583.5,5.03815,3.10211,2.752,4.56274,461,5,
10583.5,5.03906,3.10516,2.752,4.56274,461,5,
10583.5,5.03815,3.10669,2.752,4.56274,461,5,
10583.5,5.03815,3.10364,2.752,4.56274,461,5,
10583.5,5.03784,3.10364,2.752,4.56274,461,5,
10583.5,5.03784,3.10516,2.752,4.56274,461,5,
10583.5,5.03784,3.10669,2.752,4.56274,461,5,
10583.5,5.03815,3.10364,2.752,4.56274,461,5,
10583.5,5.03845,3.10669,2.752,4.56274,461,5,
10583.5,5.04089,3.10211,2.752,4.56274,461,5,
10583.5,5.04272,3.10516,2.752,4.56274,461,5,
10583.5,5.04272,3.10364,2.752,4.56274,461,5,
10583.5,5.04211,3.10364,2.752,4.56274,461,5,
10583.5,5.04333,3.10364,2.752,4.56274,461,5,
10583.5,5.04333,3.10211,2.752,4.56274,461,5,
10583.5,5.04303,3.10669,2.752,4.56274,461,5,
10583.5,5.04333,3.10364,2.752,4.56274,461,5,
10583.5,5.04272,3.10364,2.752,4.56274,461,5,
10583.5,5.04822,3.10364,2.752,4.56274,461,5,
10583.5,5.04761,3.10516,2.752,4.56274,461,5,
10583.5,5.04822,3.10364,2.752,4.56274,461,5,
10583.5,5.04761,3.10059,2.752,4.56274,461,5,
10583.5,5.04761,3.10059,2.752,4.56274,461,5,
10583.5,5.04761,3.10364,2.752,4.56274,461,5,
10583.5,5.05219,3.10364,2.752,4.56274,461,5,
10583.5,5.0531,3.10364,2.752,4.56274,461,5,
10583.5,5.0531,3.10364,2.752,4.56274,461,5,
10583.5,5.0531,3.10364,2.752,4.56274,461,5,
10583.5,5.0528,3.10364,2.752,4.56274,461,5,
10583.5,5.05585,3.10364,2.752,4.56274,461,5,
10583.5,5.05768,3.10669,2.752,4.56274,461,5,
10583.5,5.05798,3.10211,2.752,4.56274,461,5,
10583.5,5.05768,3.10211,2.752,4.56274,461,5,
10583.5,5.05859,3.10364,2.752,4.56274,461,5,
10583.5,5.06195,3.10364,2.752,4.56274,461,5,
10583.5,5.06287,3.10059,2.752,4.56274,461,5,
10583.5,5.06287,3.10211,2.752,4.56274,461,5,
10583.5,5.06287,3.10211,2.752,4.56274,461,5,
10583.5,5.06561,3.10516,2.752,4.56274,461,5,
10583.5,5.06744,3.10516,2.752,4.56274,461,5,
10583.5,5.06805,3.10364,2.752,4.56274,461,5,
10583.5,5.06744,3.10669,2.752,4.56274,461,5,
10583.5,5.0705,3.10516,2.752,4.56274,461,5,
10583.5,5.07294,3.10364,2.752,4.56274,461,5,
10583.5,5.07324,3.10516,2.752,4.56274,461,5,
10583.5,5.07263,3.10364,2.752,4.56274,461,5,
10583.5,5.07751,3.10364,2.752,4.56274,461,5,
10583.5,5.07721,3.10822,2.752,4.56274,461,5,
10583.5,5.07812,3.10516,2.752,4.56274,461,5,
10583.5,5.07965,3.10669,2.752,4.56274,461,5,
10583.5,5.0827,3.10822,2.752,4.56274,461,5,
10583.6,5.08179,3.10669,2.752,4.56274,461,5,
10583.6,5.08148,3.10364,2.752,4.56274,461,5,
10583.6,5.08636,3.10364,2.752,4.56274,461,5,
10583.6,5.08759,3.10822,2.752,4.56274,461,5,
10583.6,5.08759,3.10669,2.752,4.56274,461,5,
10583.6,5.09186,3.10364,2.752,4.56274,461,5,
10583.6,5.09186,3.10364,2.752,4.56274,461,5,
10583.6,5.09125,3.10059,2.752,4.56274,461,5,
10583.6,5.09644,3.10364,2.752,4.56274,461,5,
10583.6,5.09644,3.10669,2.752,4.56274,461,5,
10583.6,5.1001,3.10669,2.752,4.56274,461,5,
10583.6,5.10162,3.10669,2.752,4.56274,461,5,
10583.6,5.10101,3.10516,2.752,4.56274,461,5,
10583.6,5.1062,3.10364,2.752,4.56274,461,5,
10583.6,5.10681,3.10669,2.752,4.56274,461,5,
10583.6,5.10651,3.10211,2.752,4.56274,461,5,
10583.6,5.11078,3.10516,2.752,4.56274,461,5,
10583.6,5.11139,3.10974,2.752,4.56274,461,5,
10583.6,5.11475,3.10669,2.752,4.56274,461,5,
10583.6,5.11597,3.10516,2.752,4.56274,461,5,
10583.6,5.11627,3.10516,2.752,4.56274,461,5,
10583.6,5.12177,3.10669,2.752,4.56274,461,5,
10583.6,5.12207,3.10211,2.752,4.56274,461,5,
10583.6,5.1239,3.09906,2.752,4.56274,461,5,
10583.6,5.12634,3.10211,2.752,4.56274,461,5,
10583.6,5.12665,3.10516,2.752,4.56274,461,5,
10583.6,5.13123,3.10059,2.752,4.56274,461,5,
10583.6,5.13153,3.10059,2.752,4.56274,461,5,
10583.6,5.13611,3.10516,2.752,4.56274,461,5,
10583.6,5.13611,3.10364,2.752,4.56274,461,5,
10583.6,5.14038,3.10516,2.752,4.56274,461,5,
10583.6,5.14069,3.10516,2.752,4.56274,461,5,
10583.6,5.14313,3.10364,2.752,4.56274,461,5,
10583.6,5.14557,3.10364,2.752,4.56274,461,5,
10583.6,5.14862,3.10516,2.752,4.56274,461,5,
10583.6,5.15076,3.10516,2.752,4.56274,461,5,
10583.6,5.15045,3.10516,2.752,4.56274,461,5,
10583.6,5.15533,3.10516,2.752,4.56274,461,5,
10583.6,5.15564,3.10364,2.752,4.56274,461,5,
10583.6,5.15961,3.10516,2.752,4.56274,461,5,
10583.6,5.16052,3.10516,2.752,4.56274,461,5,
10583.6,5.16541,3.10669,2.752,4.56274,461,5,
10583.6,5.16541,3.10059,2.752,4.56274,461,5,
10583.6,5.16968,3.10059,2.752,4.56274,461,5,
10583.6,5.17273,3.10364,2.752,4.56274,461,5,
10583.6,5.17517,3.10516,2.752,4.56274,461,5,
10583.6,5.17761,3.10364,2.752,4.56274,461,5,
10583.6,5.17975,3.10364,2.752,4.56274,461,5,
10583.6,5.18433,3.10364,2.752,4.56274,461,5,
10583.6,5.18463,3.10364,2.752,4.56274,461,5,
10583.7,5.1889,3.10516,2.752,4.56274,461,5,
10583.7,5.19043,3.10364,2.752,4.56274,461,5,
10583.7,5.19409,3.10211,2.752,4.56274,461,5,
10583.7,5.19379,3.10516,2.752,4.56274,461,5,
10583.7,5.2002,3.10669,2.752,4.56274,461,5,
10583.7,5.20172,3.10211,2.752,4.56274,461,5,
10583.7,5.20386,3.10364,2.752,4.56274,461,5,
10583.7,5.20874,3.10364,2.752,4.56274,461,5,
10583.7,5.20905,3.10364,2.752,4.56274,461,5,
10583.7,5.21423,3.10364,2.752,4.56274,461,5,
10583.7,5.21484,3.10364,2.752,4.56274,461,5,
10583.7,5.21881,3.10211,2.752,4.56274,461,5,
10583.7,5.22186,3.10364,2.752,4.56274,461,5,
10583.7,5.22369,3.10516,2.752,4.56274,461,5,
10583.7,5.22919,3.10516,2.752,4.56274,461,5,
10583.7,5.22827,3.10211,2.752,4.56274,461,5,
10583.7,5.23346,3.10211,2.752,4.56274,461,5,
10583.7,5.23682,3.10516,2.752,4.56274,461,5,
10583.7,5.23865,3.10516,2.752,4.56274,461,5,
10583.7,5.24292,3.10364,2.752,4.56274,461,5,
10583.7,5.24353,3.10822,2.752,4.56274,461,5,
10583.7,5.24872,3.10669,2.752,4.56274,461,5,
10583.7,5.2533,3.10364,2.752,4.56274,461,5,
10583.7,5.2533,3.10059,2.752,4.56274,461,5,
10583.7,5.25818,3.10516,2.752,4.56274,461,5,
10583.7,5.26093,3.10516,2.752,4.56274,461,5,
10583.7,5.26337,3.10364,2.752,4.56274,461,5,
10583.7,5.26764,3.10211,2.752,4.56274,461,5,
10583.7,5.27069,3.10516,2.752,4.56274,461,5,
10583.7,5.27344,3.10364,2.752,4.56274,461,5,
10583.7,5.27771,3.10364,2.752,4.56274,461,5,
10583.7,5.2774,3.10364,2.752,4.56274,461,5,
10583.7,5.28259,3.10364,2.752,4.56274,461,5,
10583.7,5.28687,3.10669,2.752,4.56274,461,5,
10583.7,5.28778,3.10516,2.752,4.56274,461,5,
10583.7,5.29266,3.10364,2.752,4.56274,461,5,
10583.7,5.29694,3.10211,2.752,4.56274,461,5,
10583.7,5.29755,3.10364,2.752,4.56274,461,5,
10583.7,5.30243,3.10364,2.752,4.56274,461,5,
10583.7,5.3064,3.10516,2.752,4.56274,461,5,
10583.7,5.30701,3.10669,2.752,4.56274,461,5,
10583.7,5.31219,3.10516,2.752,4.56274,461,5,
10583.7,5.31616,3.10516,2.752,4.56274,461,5,
10583.7,5.31708,3.10211,2.752,4.56274,461,5,
10583.7,5.32227,3.10364,2.752,4.56274,461,5,
10583.7,5.32654,3.10059,2.752,4.56274,461,5,
10583.7,5.32623,3.10516,2.752,4.56274,461,5,
10583.7,5.33203,3.10516,2.752,4.56274,461,5,
10583.7,5.3363,3.10059,2.752,4.56274,461,5,
10583.8,5.33691,3.10059,2.752,4.56274,461,5,
10583.8,5.34119,3.11585,2.752,4.56274,461,5,
10583.8,5.34546,3.11585,2.752,4.56274,461,5,
10583.8,5.34607,3.11585,2.752,4.56274,461,5,
10583.8,5.35156,3.11737,2.752,4.56274,461,5,
10583.8,5.35522,3.11432,2.752,4.56274,461,5,
10583.8,5.35675,3.11737,2.752,4.56274,461,5,
10583.8,5.36072,3.11585,2.752,4.56274,461,5,
10583.8,5.3653,3.11737,2.752,4.56274,461,5,
10583.8,5.36652,3.12042,2.752,4.56274,461,5,
10583.8,5.3717,3.11585,2.752,4.56274,461,5,
10583.8,5.37567,3.11585,2.752,4.56274,461,5,
10583.8,5.37567,3.11737,2.752,4.56274,461,5,
10583.8,5.37994,3.10822,2.752,4.56274,461,5,
10583.8,5.38483,3.12042,2.752,4.56274,461,5,
10583.8,5.38635,3.11279,2.752,4.56274,461,5,
10583.8,5.39062,3.11585,2.752,4.56274,461,5,
10583.8,5.3949,3.11737,2.752,4.56274,461,5,
10583.8,5.39612,3.1189,2.752,4.56274,461,5,
10583.8,5.401,3.11279,2.752,4.56274,461,5,
10583.8,5.40497,3.11432,2.752,4.56274,461,5,
10583.8,5.4068,3.11585,2.752,4.56274,461,5,
10583.8,5.41016,3.11737,2.752,4.56274,461,5,
10583.8,5.41351,3.1189,2.752,4.56274,461,5,
10583.8,5.41504,3.11737,2.752,4.56274,461,5,
10583.8,5.41992,3.11432,2.752,4.56274,461,5,
10583.8,5.42206,3.11737,2.752,4.56274,461,5,
10583.8,5.42603,3.11432,2.752,4.56274,461,5,
10583.8,5.42969,3.11737,2.752,4.56274,461,5,
10583.8,5.43243,3.11737,2.752,4.56274,461,5,
10583.8,5.43488,3.11279,2.752,4.56274,461,5,
10583.8,5.43976,3.11585,2.752,4.56274,461,5,
10583.8,5.44281,3.11585,2.752,4.56274,461,5,
10583.8,5.44556,3.11585,2.752,4.56274,461,5,
10583.8,5.45013,3.11737,2.752,4.56274,461,5,
10583.8,5.45258,3.11585,2.752,4.56274,461,5,
10583.8,5.45502,3.11127,2.752,4.56274,461,5,
10583.8,5.45959,3.11585,2.752,4.56274,461,5,
10583.8,5.46204,3.11737,2.752,4.56274,461,5,
10583.8,5.46478,3.11737,2.752,4.56274,461,5,
10583.8,5.46936,3.11432,2.752,4.56274,461,5,
10583.8,5.46906,3.11737,2.752,4.56274,461,5,
10583.8,5.47424,3.11737,2.752,4.56274,461,5,
10583.8,5.47852,3.11432,2.752,4.56274,461,5,
10583.8,5.47913,3.11585,2.752,4.56274,461,5,
10583.8,5.48401,3.11279,2.752,4.56274,461,5,
10583.8,5.48767,3.11585,2.752,4.56274,461,5,
10583.8,5.4895,3.1189,2.752,4.56274,461,5,
10583.8,5.49377,3.11737,2.752,4.56274,461,5,
10583.8,5.49622,3.1189,2.752,4.56274,461,5,
10583.9,5.49805,3.11585,2.752,4.56274,461,5,
10583.9,5.50385,3.11432,2.752,4.56274,461,5,
10583.9,5.50629,3.11585,2.752,4.56274,461,5,
10583.9,5.50812,3.11585,2.752,4.56274,461,5,
10583.9,5.5127,3.11432,2.752,4.56274,461,5,
10583.9,5.513,3.11585,2.752,4.56274,461,5,
10583.9,5.51849,3.11737,2.752,4.56274,461,5,
10583.9,5.52002,3.11585,2.752,4.56274,461,5,
10583.9,5.52307,3.11737,2.752,4.56274,461,5,
10583.9,5.52734,3.1189,2.752,4.56274,461,5,
10583.9,5.53009,3.1189,2.752,4.56274,461,5,
10583.9,5.53284,3.11585,2.752,4.56274,461,5,
10583.9,5.53711,3.12042,2.752,4.56274,461,5,
10583.9,5.53802,3.1189,2.752,4.56274,461,5,
10583.9,5.5423,3.11432,2.752,4.56274,461,5,
10583.9,5.54535,3.11585,2.752,4.56274,461,5,
10583.9,5.54718,3.11585,2.752,4.56274,461,5,
10583.9,5.55237,3.11585,2.752,4.56274,461,5,
10583.9,5.55237,3.11585,2.752,4.56274,461,5,
10583.9,5.55756,3.1189,2.752,4.56274,461,5,
10583.9,5.5603,3.11585,2.752,4.56274,461,5,
10583.9,5.56213,3.11585,2.752,4.56274,461,5,
10583.9,5.5658,3.11432,2.752,4.56274,461,5,
10583.9,5.56732,3.11432,2.752,4.56274,461,5,
10583.9,5.5719,3.11585,2.752,4.56274,461,5,
10583.9,5.57495,3.11737,2.752,4.56274,461,5,
10583.9,5.57678,3.11432,2.752,4.56274,461,5,
10583.9,5.58105,3.11737,2.752,4.56274,461,5,
10583.9,5.58167,3.11432,2.752,4.56274,461,5,
10583.9,5.58716,3.11737,2.752,4.56274,461,5,
10583.9,5.58655,3.11737,2.752,4.56274,461,5,
10583.9,5.59174,3.11737,2.752,4.56274,461,5,
10583.9,5.59387,3.1189,2.752,4.56274,461,5,
10583.9,5.59631,3.11585,2.752,4.56274,461,5,
10583.9,5.60089,3.1189,2.752,4.56274,461,5,
10583.9,5.6012,3.11432,2.752,4.56274,461,5,
10583.9,5.60638,3.11737,2.752,4.56274,461,5,
10583.9,5.60608,3.11432,2.752,4.56274,461,5,
10583.9,5.61127,3.11737,2.752,4.56274,461,5,
10583.9,5.61096,3.11585,2.752,4.56274,461,5,
10583.9,5.61646,3.11585,2.752,4.56274,461,5,
10583.9,5.61615,3.11585,2.752,4.56274,461,5,
10583.9,5.62042,3.11585,2.752,4.56274,461,5,
10583.9,5.62378,3.11585,2.752,4.56274,461,5,
10583.9,5.62622,3.11432,2.752,4.56274,461,5,
10583.9,5.62866,3.1189,2.752,4.56274,461,5,
10583.9,5.63141,3.11737,2.752,4.56274,461,5,
10583.9,5.63507,3.11737,2.752,4.56274,461,5,
10583.9,5.63599,3.11585,2.752,4.56274,461,5,
10583.9,5.64056,3.11737,2.752,4.56274,461,5,
10584,5.64087,3.11585,2.752,4.56274,461,5,
10584,5.64545,3.11585,2.752,4.56274,461,5,
10584,5.64606,3.11585,2.752,4.56274,461,5,
10584,5.65033,3.11585,2.752,4.56274,461,5,
10584,5.65033,3.11585,2.752,4.56274,461,5,
10584,5.6546,3.11585,2.752,4.56274,461,5,
10584,5.65552,3.1189,2.752,4.56274,461,5,
10584,5.65979,3.11737,2.752,4.56274,461,5,
10584,5.65979,3.11585,2.752,4.56274,461,5,
10584,5.66193,3.11432,2.752,4.56274,461,5,
10584,5.66467,3.11432,2.752,4.56274,461,5,
10584,5.66742,3.11279,2.752,4.56274,461,5,
10584,5.66986,3.11432,2.752,4.56274,461,5,
10584,5.66895,3.12042,2.752,4.56274,461,5,
10584,5.67505,3.11737,2.752,4.56274,461,5,
10584,5.67474,3.11585,2.752,4.56274,461,5,
10584,5.67932,3.1189,2.752,4.56274,461,5,
10584,5.67963,3.11432,2.752,4.56274,461,5,
10584,5.68329,3.11585,2.752,4.56274,461,5,
10584,5.68451,3.1189,2.752,4.56274,461,5,
10584,5.68726,3.11432,2.752,4.56274,461,5,
10584,5.68939,3.12653,2.752,4.56274,461,5,
10584,5.68878,3.12958,2.752,4.56274,461,5,
10584,5.69489,3.12805,2.752,4.56274,461,5,
10584,5.69427,3.12958,2.752,4.56274,461,5,
10584,5.69885,3.12348,2.752,4.56274,461,5,
10584,5.69946,3.12653,2.752,4.56274,461,5,
10584,5.69916,3.12805,2.752,4.56274,461,5,
10584,5.70404,3.125,2.752,4.56274,461,5,
10584,5.70435,3.12805,2.752,4.56274,461,5,
10584,5.70831,3.12653,2.752,4.56274,461,5,
10584,5.70862,3.1311,2.752,4.56274,461,5,
10584,5.70862,3.12958,2.752,4.56274,461,5,
10584,5.71411,3.125,2.752,4.56274,461,5,
10584,5.71442,3.12958,2.752,4.56274,461,5,
10584,5.71655,3.12958,2.752,4.56274,461,5,
10584,5.71899,3.12805,2.752,4.56274,461,5,
10584,5.71869,3.12805,2.752,4.56274,461,5,
10584,5.72357,3.125,2.752,4.56274,461,5,
10584,5.72327,3.12805,2.752,4.56274,461,5,
10584,5.72357,3.12805,2.752,4.56274,461,5,
10584,5.72906,3.12958,2.752,4.56274,461,5,
10584,5.72876,3.12653,2.752,4.56274,461,5,
10584,5.72845,3.12805,2.752,4.56274,461,5,
10584,5.73303,3.12958,2.752,4.56274,461,5,
10584,5.73395,3.12805,2.752,4.56274,461,5,
10584,5.73364,3.12653,2.752,4.56274,461,5,
10584,5.73822,3.12805,2.752,4.56274,461,5,
10584,5.73853,3.12653,2.752,4.56274,461,5,
10584,5.73883,3.12805,2.752,4.56274,461,5,
10584,5.74127,3.12958,2.752,4.56274,461,5,
10584.1,5.74402,3.12805,2.752,4.56274,461,5,
10584.1,5.74341,3.125,2.752,4.56274,461,5,
10584.1,5.74402,3.12805,2.752,4.56274,461,5,
10584.1,5.74829,3.12653,2.752,4.56274,461,5,
10584.1,5.7486,3.12805,2.752,4.56274,461,5,
10584.1,5.7486,3.1311,2.752,4.56274,461,5,
10584.1,5.75104,3.125,2.752,4.56274,461,5,
10584.1,5.75317,3.12958,2.752,4.56274,461,5,
10584.1,5.75378,3.12958,2.752,4.56274,461,5,
10584.1,5.75378,3.12805,2.752,4.56274,461,5,
10584.1,5.75806,3.12805,2.752,4.56274,461,5,
10584.1,5.75806,3.12958,2.752,4.56274,461,5,
10584.1,5.75897,3.12805,2.752,4.56274,461,5,
10584.1,5.75806,3.12805,2.752,4.56274,461,5,
10584.1,5.76263,3.12805,2.752,4.56274,461,5,
10584.1,5.76294,3.12958,2.752,4.56274,461,5,
10584.1,5.76294,3.12653,2.752,4.56274,461,5,
10584.1,5.76324,3.13416,2.752,4.56274,461,5,
10584.1,5.76782,3.12805,2.752,4.56274,461,5,
10584.1,5.76843,3.125,2.752,4.56274,461,5,
10584.1,5.76782,3.125,2.752,4.56274,461,5,
10584.1,5.76813,3.12958,2.752,4.56274,461,5,
10584.1,5.76996,3.12653,2.752,4.56274,461,5,
10584.1,5.77332,3.12653,2.752,4.56274,461,5,
10584.1,5.77332,3.12805,2.752,4.56274,461,5,
10584.1,5.77301,3.12653,2.752,4.56274,461,5,
10584.1,5.77332,3.12958,2.752,4.56274,461,5,
10584.1,5.77698,3.12958,2.752,4.56274,461,5,
10584.1,5.77789,3.12805,2.752,4.56274,461,5,
10584.1,5.7782,3.12958,2.752,4.56274,461,5,
10584.1,5.77698,3.12653,2.752,4.56274,461,5,
10584.1,5.77728,3.1311,2.752,4.56274,461,5,
10584.1,5.78217,3.12958,2.752,4.56274,461,5,
10584.1,5.78308,3.12805,2.752,4.56274,461,5,
10584.1,5.78247,3.12958,2.752,4.56274,461,5,
10584.1,5.78308,3.12348,2.752,4.56274,461,5,
10584.1,5.78278,3.12653,2.752,4.56274,461,5,
10584.1,5.78613,3.12958,2.752,4.56274,461,5,
10584.1,5.78735,3.12958,2.752,4.56274,461,5,
10584.1,5.78735,3.12805,2.752,4.56274,461,5,
10584.1,5.78796,3.125,2.752,4.56274,461,5,
10584.1,5.78735,3.12805,2.752,4.56274,461,5,
10584.1,5.78766,3.12958,2.752,4.56274,461,5,
10584.1,5.79224,3.12805,2.752,4.56274,461,5,
10584.1,5.79254,3.12653,2.752,4.56274,461,5,
10584.1,5.79193,3.12653,2.752,4.56274,461,5,
10584.1,5.79224,3.1311,2.752,4.56274,461,5,
10584.1,5.79285,3.12653,2.752,4.56274,461,5,
10584.1,5.79193,3.12958,2.752,4.56274,461,5,
10584.1,5.79712,3.12958,2.752,4.56274,461,5,
10584.2,5.79803,3.12805,2.752,4.56274,461,5,
10584.2,5.79773,3.12805,2.752,4.56274,461,5,
10584.2,5.79712,3.12653,2.752,4.56274,461,5,
10584.2,5.79712,3.12348,2.752,4.56274,461,5,
10584.2,5.79773,3.12805,2.752,4.56274,461,5,
10584.2,5.79742,3.12805,2.752,4.56274,461,5,
10584.2,5.8017,3.12958,2.752,4.56274,461,5,
10584.2,5.80231,3.12958,2.752,4.56274,461,5,
10584.2,5.80292,3.12958,2.752,4.56274,461,5,
10584.2,5.80231,3.13568,2.752,4.56274,461,5,
10584.2,5.802,3.14179,2.752,4.56274,461,5,
10584.2,5.8017,3.14331,2.752,4.56274,461,5,
10584.2,5.80505,3.14026,2.752,4.56274,461,5,
10584.2,5.80719,3.14179,2.752,4.56274,461,5,
10584.2,5.8075,3.14026,2.752,4.56274,461,5,
10584.2,5.80719,3.14331,2.752,4.56274,461,5,
10584.2,5.8075,3.14026,2.752,4.56274,461,5,
10584.2,5.80719,3.14026,2.752,4.56274,461,5,
10584.2,5.80658,3.13873,2.752,4.56274,461,5,
10584.2,5.80627,3.14179,2.752,4.56274,461,5,
10584.2,5.81207,3.14179,2.752,4.56274,461,5,
10584.2,5.81238,3.14026,2.752,4.56274,461,5,
10584.2,5.81177,3.14026,2.752,4.56274,461,5,
10584.2,5.81268,3.13873,2.752,4.56274,461,5,
10584.2,5.81207,3.14179,2.752,4.56274,461,5,
10584.2,5.81207,3.14331,2.752,4.56274,461,5,
10584.2,5.81207,3.14026,2.752,4.56274,461,5,
10584.2,5.81421,3.13873,2.752,4.56274,461,5,
10584.2,5.81635,3.14026,2.752,4.56274,461,5,
10584.2,5.81696,3.14179,2.752,4.56274,461,5,
10584.2,5.81726,3.14331,2.752,4.56274,461,5,
10584.2,5.81665,3.13873,2.752,4.56274,461,5,
10584.2,5.81635,3.14179,2.752,4.56274,461,5,
10584.2,5.81635,3.14026,2.752,4.56274,461,5,
10584.2,5.81604,3.13721,2.752,4.56274,461,5,
10584.2,5.82184,3.13873,2.752,4.56274,461,5,
10584.2,5.82153,3.13721,2.752,4.56274,461,5,
10584.2,5.82062,3.14179,2.752,4.56274,461,5,
10584.2,5.82123,3.13721,2.752,4.56274,461,5,
10584.2,5.82153,3.14179,2.752,4.56274,461,5,
10584.2,5.82092,3.14331,2.752,4.56274,461,5,
10584.2,5.82184,3.13873,2.752,4.56274,461,5,
10584.2,5.82123,3.14026,2.752,4.56274,461,5,
10584.2,5.82642,3.13721,2.752,4.56274,461,5,
10584.2,5.82672,3.13873,2.752,4.56274,461,5,
10584.2,5.82642,3.14331,2.752,4.56274,461,5,
10584.2,5.82611,3.14331,2.752,4.56274,461,5,
10584.2,5.82703,3.14179,2.752,4.56274,461,5,
10584.2,5.82642,3.14484,2.752,4.56274,461,5,
10584.2,5.82611,3.14026,2.752,4.56274,461,5,
10584.3,5.82642,3.14331,2.752,4.56274,461,5,
10584.3,5.8316,3.13873,2.752,4.56274,461,5,
10584.3,5.8316,3.13873,2.752,4.56274,461,5,
10584.3,5.8316,3.14026,2.752,4.56274,461,5,
10584.3,5.8316,3.13873,2.752,4.56274,461,5,
10584.3,5.8313,3.14179,2.752,4.56274,461,5,
10584.3,5.8313,3.14026,2.752,4.56274,461,5,
10584.3,5.83099,3.14179,2.752,4.56274,461,5,
10584.3,5.8316,3.14026,2.752,4.56274,461,5,
10584.3,5.83435,3.14179,2.752,4.56274,461,5,
10584.3,5.83649,3.13873,2.752,4.56274,461,5,
10584.3,5.8371,3.13873,2.752,4.56274,461,5,
10584.3,5.83618,3.14179,2.752,4.56274,461,5,
10584.3,5.83649,3.14026,2.752,4.56274,461,5,
10584.3,5.83649,3.14026,2.752,4.56274,461,5,
10584.3,5.83679,3.14026,2.752,4.56274,461,5,
10584.3,5.83557,3.14331,2.752,4.56274,461,5,
10584.3,5.84015,3.14026,2.752,4.56274,461,5,
10584.3,5.84045,3.14179,2.752,4.56274,461,5,
10584.3,5.84137,3.14026,2.752,4.56274,461,5,
10584.3,5.84076,3.13873,2.752,4.56274,461,5,
10584.3,5.84137,3.14026,2.752,4.56274,461,5,
10584.3,5.84106,3.13873,2.752,4.56274,461,5,
10584.3,5.84167,3.14026,2.752,4.56274,461,5,
10584.3,5.84167,3.14026,2.752,4.56274,461,5,
10584.3,5.84656,3.14179,2.752,4.56274,461,5,
10584.3,5.84625,3.14331,2.752,4.56274,461,5,
10584.3,5.84564,3.13873,2.752,4.56274,461,5,
10584.3,5.84564,3.13873,2.752,4.56274,461,5,
10584.3,5.84686,3.13873,2.752,4.56274,461,5,
10584.3,5.84595,3.14179,2.752,4.56274,461,5,
10584.3,5.84656,3.14179,2.752,4.56274,461,5,
10584.3,5.85083,3.14026,2.752,4.56274,461,5,
10584.3,5.85083,3.13721,2.752,4.56274,461,5,
10584.3,5.85205,3.13873,2.752,4.56274,461,5,
10584.3,5.85175,3.13721,2.752,4.56274,461,5,
10584.3,5.85144,3.14026,2.752,4.56274,461,5,
10584.3,5.85083,3.13873,2.752,4.56274,461,5,
10584.3,5.85114,3.14179,2.752,4.56274,461,5,
10584.3,5.85602,3.13873,2.752,4.56274,461,5,
10584.3,5.85571,3.13873,2.752,4.56274,461,5,
10584.3,5.85602,3.14026,2.752,4.56274,461,5,
10584.3,5.85571,3.14331,2.752,4.56274,461,5,
10584.3,5.85602,3.14026,2.752,4.56274,461,5,
10584.3,5.85602,3.13873,2.752,4.56274,461,5,
10584.3,5.85815,3.14026,2.752,4.56274,461,5,
10584.3,5.8606,3.14026,2.752,4.56274,461,5,
10584.3,5.8606,3.14789,2.752,4.56274,461,5,
10584.3,5.8606,3.15247,2.752,4.56274,461,5,
10584.4,5.86121,3.15094,2.752,4.56274,461,5,
10584.4,5.8609,3.15247,2.752,4.56274,461,5,
10584.4,5.86182,3.15399,2.752,4.56274,461,5,
10584.4,5.86609,3.15247,2.752,4.56274,461,5,
10584.4,5.86609,3.15247,2.752,4.56274,461,5,
10584.4,5.86609,3.15247,2.752,4.56274,461,5,
10584.4,5.86548,3.15247,2.752,4.56274,461,5,
10584.4,5.86517,3.15399,2.752,4.56274,461,5,
10584.4,5.86884,3.15247,2.752,4.56274,461,5,
10584.4,5.87067,3.15247,2.752,4.56274,461,5,
10584.4,5.87097,3.15247,2.752,4.56274,461,5,
10584.4,5.87158,3.15247,2.752,4.56274,461,5,
10584.4,5.87097,3.15094,2.752,4.56274,461,5,
10584.4,5.87097,3.15094,2.752,4.56274,461,5,
10584.4,5.87555,3.15247,2.752,4.56274,461,5,
10584.4,5.87585,3.14941,2.752,4.56274,461,5,
10584.4,5.87555,3.15247,2.752,4.56274,461,5,
10584.4,5.87555,3.15399,2.752,4.56274,461,5,
10584.4,5.88013,3.15247,2.752,4.56274,461,5,
10584.4,5.88043,3.15094,2.752,4.56274,461,5,
10584.4,5.88013,3.15399,2.752,4.56274,461,5,
10584.4,5.88104,3.14941,2.752,4.56274,461,5,
10584.4,5.88379,3.15247,2.752,4.56274,461,5,
10584.4,5.88531,3.15247,2.752,4.56274,461,5,
10584.4,5.88593,3.15399,2.752,4.56274,461,5,
10584.4,5.88562,3.14941,2.752,4.56274,461,5,
10584.4,5.88806,3.15094,2.752,4.56274,461,5,
10584.4,5.88959,3.15247,2.752,4.56274,461,5,
10584.4,5.89111,3.15247,2.752,4.56274,461,5,
10584.4,5.89081,3.15094,2.752,4.56274,461,5,
10584.4,5.89478,3.14941,2.752,4.56274,461,5,
10584.4,5.896,3.15094,2.752,4.56274,461,5,
10584.4,5.89539,3.15247,2.752,4.56274,461,5,
10584.4,5.89935,3.15247,2.752,4.56274,461,5,
10584.4,5.89935,3.15094,2.752,4.56274,461,5,
10584.4,5.90057,3.15247,2.752,4.56274,461,5,
10584.4,5.9024,3.15399,2.752,4.56274,461,5,
10584.4,5.90485,3.15247,2.752,4.56274,461,5,
10584.4,5.90546,3.15399,2.752,4.56274,461,5,
10584.4,5.90576,3.14941,2.752,4.56274,461,5,
10584.4,5.91034,3.15247,2.752,4.56274,461,5,
10584.4,5.91003,3.15704,2.752,4.56274,461,5,
10584.4,5.90973,3.15247,2.752,4.56274,461,5,
10584.4,5.91492,3.15247,2.752,4.56274,461,5,
10584.4,5.91461,3.15399,2.752,4.56274,461,5,
10584.4,5.91766,3.14941,2.752,4.56274,461,5,
10584.4,5.91949,3.15094,2.752,4.56274,461,5,
10584.4,5.9201,3.14941,2.752,4.56274,461,5,
10584.4,5.92194,3.15399,2.752,4.56274,461,5,
10584.4,5.92438,3.15094,2.752,4.56274,461,5,
10584.5,5.92468,3.15399,2.752,4.56274,461,5,
10584.5,5.92896,3.15247,2.752,4.56274,461,5,
10584.5,5.92987,3.15552,2.752,4.56274,461,5,
10584.5,5.92987,3.15247,2.752,4.56274,461,5,
10584.5,5.93384,3.15704,2.752,4.56274,461,5,
10584.5,5.93445,3.15247,2.752,4.56274,461,5,
10584.5,5.93689,3.15399,2.752,4.56274,461,5,
10584.5,5.93842,3.15399,2.752,4.56274,461,5,
10584.5,5.93903,3.15247,2.752,4.56274,461,5,
10584.5,5.94421,3.15552,2.752,4.56274,461,5,
10584.5,5.94391,3.15247,2.752,4.56274,461,5,
10584.5,5.94391,3.15094,2.752,4.56274,461,5,
10584.5,5.94879,3.15094,2.752,4.56274,461,5,
10584.5,5.9491,3.15094,2.752,4.56274,461,5,
10584.5,5.95367,3.15247,2.752,4.56274,461,5,
10584.5,5.95367,3.15247,2.752,4.56274,461,5,
10584.5,5.95428,3.15094,2.752,4.56274,461,5,
10584.5,5.95795,3.15399,2.752,4.56274,461,5,
10584.5,5.95917,3.15399,2.752,4.56274,461,5,
10584.5,5.96313,3.15247,2.752,4.56274,461,5,
10584.5,5.96344,3.15094,2.752,4.56274,461,5,
10584.5,5.96405,3.15399,2.752,4.56274,461,5,
10584.5,5.96893,3.15247,2.752,4.56274,461,5,
10584.5,5.96863,3.15247,2.752,4.56274,461,5,
10584.5,5.97321,3.15399,2.752,4.56274,461,5,
10584.5,5.9729,3.15399,2.752,4.56274,461,5,
10584.5,5.97382,3.15094,2.752,4.56274,461,5,
10584.5,5.97839,3.16315,2.752,4.56274,461,5,
10584.5,5.979,3.16315,2.752,4.56274,461,5,
10584.5,5.98297,3.16467,2.752,4.56274,461,5,
10584.5,5.98358,3.16467,2.752,4.56274,461,5,
10584.5,5.98358,3.1662,2.752,4.56274,461,5,
10584.5,5.98846,3.16467,2.752,4.56274,461,5,
10584.5,5.98816,3.16773,2.752,4.56274,461,5,
10584.5,5.99304,3.1662,2.752,4.56274,461,5,
10584.5,5.99335,3.16467,2.752,4.56274,461,5,
10584.5,5.99396,3.16162,2.752,4.56274,461,5,
10584.5,5.99915,3.1662,2.752,4.56274,461,5,
10584.5,5.99792,3.16925,2.752,4.56274,461,5,
10584.5,6.00281,3.16315,2.752,4.56274,461,5,
10584.5,6.00342,3.1662,2.752,4.56274,461,5,
10584.5,6.00342,3.16467,2.752,4.56274,461,5,
10584.5,6.008,3.16315,2.752,4.56274,461,5,
10584.5,6.00861,3.16773,2.752,4.56274,461,5,
10584.5,6.01288,3.16162,2.752,4.56274,461,5,
10584.5,6.01349,3.16467,2.752,4.56274,461,5,
10584.5,6.01318,3.16467,2.752,4.56274,461,5,
10584.5,6.01776,3.1662,2.752,4.56274,461,5,
10584.5,6.01746,3.16162,2.752,4.56274,461,5,
10584.5,6.0199,3.16162,2.752,4.56274,461,5,
10584.5,6.02295,3.1662,2.752,4.56274,461,5,
10584.6,6.02264,3.16467,2.752,4.56274,461,5,
10584.6,6.02783,3.1662,2.752,4.56274,461,5,
10584.6,6.02753,3.16467,2.752,4.56274,461,5,
10584.6,6.02783,3.16467,2.752,4.56274,461,5,
10584.6,6.0321,3.16467,2.752,4.56274,461,5,
10584.6,6.03302,3.16467,2.752,4.56274,461,5,
10584.6,6.03546,3.16773,2.752,4.56274,461,5,
10584.6,6.03729,3.16315,2.752,4.56274,461,5,
10584.6,6.03668,3.1662,2.752,4.56274,461,5,
10584.6,6.04187,3.16773,2.752,4.56274,461,5,
10584.6,6.04218,3.16467,2.752,4.56274,461,5,
10584.6,6.04218,3.16467,2.752,4.56274,461,5,
10584.6,6.04584,3.1662,2.752,4.56274,461,5,
10584.6,6.04797,3.16162,2.752,4.56274,461,5,
10584.6,6.04736,3.16315,2.752,4.56274,461,5,
10584.6,6.05164,3.16315,2.752,4.56274,461,5,
10584.6,6.05194,3.16467,2.752,4.56274,461,5,
10584.6,6.05286,3.16467,2.752,4.56274,461,5,
10584.6,6.05621,3.1662,2.752,4.56274,461,5,
10584.6,6.05713,3.16467,2.752,4.56274,461,5,
10584.6,6.05743,3.16773,2.752,4.56274,461,5,
10584.6,6.05988,3.16467,2.752,4.56274,461,5,
10584.6,6.06232,3.16467,2.752,4.56274,461,5,
10584.6,6.06201,3.16467,2.752,4.56274,461,5,
10584.6,6.06201,3.16315,2.752,4.56274,461,5,
10584.6,6.0672,3.16467,2.752,4.56274,461,5,
10584.6,6.06628,3.1662,2.752,4.56274,461,5,
10584.6,6.06659,3.16773,2.752,4.56274,461,5,
10584.6,6.06964,3.1662,2.752,4.56274,461,5,
10584.6,6.07147,3.16315,2.752,4.56274,461,5,
10584.6,6.07208,3.16467,2.752,4.56274,461,5,
10584.6,6.07117,3.16773,2.752,4.56274,461,5,
10584.6,6.07666,3.1662,2.752,4.56274,461,5,
10584.6,6.07666,3.16773,2.752,4.56274,461,5,
10584.6,6.07605,3.16467,2.752,4.56274,461,5,
10584.6,6.07605,3.16162,2.752,4.56274,461,5,
10584.6,6.08124,3.16315,2.752,4.56274,461,5,
10584.6,6.08124,3.16467,2.752,4.56274,461,5,
10584.6,6.08185,3.16467,2.752,4.56274,461,5,
10584.6,6.08154,3.16467,2.752,4.56274,461,5,
10584.6,6.08612,3.16467,2.752,4.56274,461,5,
10584.6,6.08612,3.16162,2.752,4.56274,461,5,
10584.6,6.08643,3.16315,2.752,4.56274,461,5,
10584.6,6.08612,3.16467,2.752,4.56274,461,5,
10584.6,6.08612,3.16315,2.752,4.56274,461,5,
10584.6,6.09131,3.16315,2.752,4.56274,461,5,
10584.6,6.091,3.1662,2.752,4.56274,461,5,
10584.6,6.0907,3.16315,2.752,4.56274,461,5,
10584.6,6.09131,3.16315,2.752,4.56274,461,5,
10584.6,6.091,3.16467,2.752,4.56274,461,5,
10584.7,6.09589,3.16925,2.752,4.56274,461,5,
10584.7,6.0968,3.16315,2.752,4.56274,461,5,
10584.7,6.0965,3.16315,2.752,4.56274,461,5,
10584.7,6.09619,3.17383,2.752,4.56274,461,5,
10584.7,6.09558,3.17688,2.752,4.56274,461,5,
10584.7,6.09558,3.17841,2.752,4.56274,461,5,
10584.7,6.10138,3.17841,2.752,4.56274,461,5,
10584.7,6.10077,3.17535,2.752,4.56274,461,5,
10584.7,6.10107,3.17688,2.752,4.56274,461,5,
10584.7,6.10138,3.17841,2.752,4.56274,461,5,
10584.7,6.10107,3.17688,2.752,4.56274,461,5,
10584.7,6.10107,3.17688,2.752,4.56274,461,5,
10584.7,6.10107,3.17535,2.752,4.56274,461,5,
10584.7,6.10596,3.17535,2.752,4.56274,461,5,
10584.7,6.10565,3.18298,2.752,4.56274,461,5,
10584.7,6.10596,3.17841,2.752,4.56274,461,5,
10584.7,6.10596,3.17535,2.752,4.56274,461,5,
10584.7,6.10596,3.17688,2.752,4.56274,461,5,
10584.7,6.10626,3.17688,2.752,4.56274,461,5,
10584.7,6.10565,3.1723,2.752,4.56274,461,5,
10584.7,6.10596,3.17535,2.752,4.56274,461,5,
10584.7,6.10596,3.17383,2.752,4.56274,461,5,
10584.7,6.10931,3.17841,2.752,4.56274,461,5,
10584.7,6.11053,3.17383,2.752,4.56274,461,5,
10584.7,6.11115,3.17535,2.752,4.56274,461,5,
10584.7,6.11115,3.17535,2.752,4.56274,461,5,
10584.7,6.11084,3.17535,2.752,4.56274,461,5,
10584.7,6.11084,3.17841,2.752,4.56274,461,5,
10584.7,6.11053,3.18146,2.752,4.56274,461,5,
10584.7,6.11084,3.17688,2.752,4.56274,461,5,
10584.7,6.11053,3.17841,2.752,4.56274,461,5,
10584.7,6.11023,3.17688,2.752,4.56274,461,5,
10584.7,6.11084,3.17841,2.752,4.56274,461,5,
10584.7,6.11084,3.17383,2.752,4.56274,461,5,
10584.7,6.11053,3.17841,2.752,4.56274,461,5,
10584.7,6.11115,3.17535,2.752,4.56274,461,5,
10584.7,6.11115,3.17535,2.752,4.56274,461,5,
10584.7,6.11115,3.17841,2.752,4.56274,461,5,
10584.7,6.11115,3.17841,2.752,4.56274,461,5,
10584.7,6.11542,3.17535,2.752,4.56274,461,5,
10584.7,6.11542,3.17535,2.752,4.56274,461,5,
10584.7,6.11542,3.17993,2.752,4.56274,461,5,
10584.7,6.11542,3.17688,2.752,4.56274,461,5,
10584.7,6.11603,3.17688,2.752,4.56274,461,5,
10584.7,6.11572,3.17535,2.752,4.56274,461,5,
10584.7,6.11542,3.17688,2.752,4.56274,461,5,
10584.7,6.11603,3.17841,2.752,4.56274,461,5,
10584.7,6.11572,3.17993,2.752,4.56274,461,5,
10584.7,6.11572,3.17993,2.752,4.56274,461,5,
10584.8,6.11572,3.17535,2.752,4.56274,461,5,
10584.8,6.11603,3.17688,2.752,4.56274,461,5,
10584.8,6.11572,3.17688,2.752,4.56274,461,5,
10584.8,6.11603,3.17535,2.752,4.56274,461,5,
10584.8,6.11542,3.18298,2.752,4.56274,461,5,
10584.8,6.11572,3.17535,2.752,4.56274,461,5,
10584.8,6.11542,3.17688,2.752,4.56274,461,5,
10584.8,6.11542,3.17841,2.752,4.56274,461,5,
10584.8,6.11542,3.17535,2.752,4.56274,461,5,
10584.8,6.11603,3.17688,2.752,4.56274,461,5,
10584.8,6.11572,3.17841,2.752,4.56274,461,5,
10584.8,6.11542,3.17993,2.752,4.56274,461,5,
10584.8,6.11145,3.17535,2.752,4.56274,461,5,
10584.8,6.11115,3.17688,2.752,4.56274,461,5,
10584.8,6.11115,3.17841,2.752,4.56274,461,5,
10584.8,6.11084,3.17535,2.752,4.56274,461,5,
10584.8,6.11084,3.17688,2.752,4.56274,461,5,
10584.8,6.11053,3.17993,2.752,4.56274,461,5,
10584.8,6.11084,3.17688,2.752,4.56274,461,5,
10584.8,6.11053,3.17841,2.752,4.56274,461,5,
10584.8,6.11115,3.17993,2.752,4.56274,461,5,
10584.8,6.11053,3.17841,2.752,4.56274,461,5,
10584.8,6.11115,3.17535,2.752,4.56274,461,5,
10584.8,6.11084,3.17688,2.752,4.56274,461,5,
10584.8,6.11084,3.17993,2.752,4.56274,461,5,
10584.8,6.11084,3.17841,2.752,4.56274,461,5,
10584.8,6.11053,3.17841,2.752,4.56274,461,5,
10584.8,6.11145,3.17688,2.752,4.56274,461,5,
10584.8,6.11023,3.17688,2.752,4.56274,461,5,
10584.8,6.11053,3.17535,2.752,4.56274,461,5,
10584.8,6.11053,3.17841,2.752,4.56274,461,5,
10584.8,6.1084,3.17535,2.752,4.56274,461,5,
10584.8,6.10596,3.17688,2.752,4.56274,461,5,
10584.8,6.10565,3.17993,2.752,4.56274,461,5,
10584.8,6.10596,3.17841,2.752,4.56274,461,5,
10584.8,6.10626,3.18146,2.752,4.56274,461,5,
10584.8,6.10596,3.17688,2.752,4.56274,461,5,
10584.8,6.10596,3.17688,2.752,4.56274,461,5,
10584.8,6.10596,3.18604,2.752,4.56274,461,5,
10584.8,6.10565,3.18909,2.752,4.56274,461,5,
10584.8,6.10565,3.18604,2.752,4.56274,461,5,
10584.8,6.10565,3.18451,2.752,4.56274,461,5,
10584.8,6.10596,3.18909,2.752,4.56274,461,5,
10584.8,6.10046,3.18909,2.752,4.56274,461,5,
10584.8,6.10107,3.18909,2.752,4.56274,461,5,
10584.8,6.10107,3.18909,2.752,4.56274,461,5,
10584.8,6.10077,3.18909,2.752,4.56274,461,5,
10584.8,6.10046,3.19061,2.752,4.56274,461,5,
10584.8,6.10107,3.19367,2.752,4.56274,461,5,
10584.8,6.10046,3.18909,2.752,4.56274,461,5,
10584.9,6.10077,3.19367,2.752,4.56274,461,5,
10584.9,6.10046,3.19214,2.752,4.56274,461,5,
10584.9,6.0968,3.18756,2.752,4.56274,461,5,
10584.9,6.09619,3.18909,2.752,4.56274,461,5,
10584.9,6.09619,3.19061,2.752,4.56274,461,5,
10584.9,6.09589,3.19061,2.752,4.56274,461,5,
10584.9,6.09558,3.18909,2.752,4.56274,461,5,
10584.9,6.09558,3.19214,2.752,4.56274,461,5,
10584.9,6.09589,3.18756,2.752,4.56274,461,5,
10584.9,6.09619,3.19061,2.752,4.56274,461,5,
10584.9,6.09161,3.18909,2.752,4.56274,461,5,
10584.9,6.091,3.19061,2.752,4.56274,461,5,
10584.9,6.091,3.18909,2.752,4.56274,461,5,
10584.9,6.091,3.19061,2.752,4.56274,461,5,
10584.9,6.091,3.18909,2.752,4.56274,461,5,
10584.9,6.091,3.19061,2.752,4.56274,461,5,
10584.9,6.0907,3.18909,2.752,4.56274,461,5,
10584.9,6.08643,3.19061,2.752,4.56274,461,5,
10584.9,6.08643,3.18909,2.752,4.56274,461,5,
10584.9,6.08673,3.19061,2.752,4.56274,461,5,
10584.9,6.08643,3.19061,2.752,4.56274,461,5,
10584.9,6.08673,3.19061,2.752,4.56274,461,5,
10584.9,6.08643,3.18604,2.752,4.56274,461,5,
10584.9,6.08643,3.19061,2.752,4.56274,461,5,
10584.9,6.08124,3.18756,2.752,4.56274,461,5,
10584.9,6.08185,3.18909,2.752,4.56274,461,5,
10584.9,6.08124,3.19214,2.752,4.56274,461,5,
10584.9,6.08154,3.18909,2.752,4.56274,461,5,
10584.9,6.08093,3.19214,2.752,4.56274,461,5,
10584.9,6.08154,3.18909,2.752,4.56274,461,5,
10584.9,6.08124,3.19214,2.752,4.56274,461,5,
10584.9,6.07697,3.19061,2.752,4.56274,461,5,
10584.9,6.07666,3.18909,2.752,4.56274,461,5,
10584.9,6.07635,3.18756,2.752,4.56274,461,5,
10584.9,6.07635,3.18756,2.752,4.56274,461,5,
10584.9,6.07635,3.19061,2.752,4.56274,461,5,
10584.9,6.07635,3.19061,2.752,4.56274,461,5,
10584.9,6.07147,3.19214,2.752,4.56274,461,5,
10584.9,6.07178,3.18756,2.752,4.56274,461,5,
10584.9,6.07239,3.19061,2.752,4.56274,461,5,
10584.9,6.07178,3.18451,2.752,4.56274,461,5,
10584.9,6.07208,3.18604,2.752,4.56274,461,5,
10584.9,6.06812,3.18756,0.358,4.56274,461,5,
10584.9,6.06689,3.19061,0.358,4.56274,461,5,
10584.9,6.0672,3.18909,0.358,4.56274,461,5,
10584.9,6.0672,3.18604,0.358,4.56274,461,5,
10584.9,6.06659,3.19061,0.358,4.56274,461,5,
10584.9,6.06445,3.18756,0.358,4.56274,461,5,
10584.9,6.06232,3.18909,0.358,4.56274,461,5,
10584.9,6.06293,3.18756,0.358,4.56274,461,5,
10585,6.06201,3.18909,0.358,4.56274,461,5,
10585,6.06232,3.19061,0.358,4.56274,461,5,
10585,6.05865,3.18756,0.358,4.56274,461,5,
10585,6.05743,3.19214,0.358,4.56274,461,5,
10585,6.05774,3.19061,0.358,4.56274,461,5,
10585,6.05774,3.19214,0.358,4.56274,461,5,
10585,6.05774,3.18756,0.358,4.56274,461,5,
10585,6.05225,3.18909,0.358,4.56274,461,5,
10585,6.05255,3.18756,0.358,4.56274,461,5,
10585,6.05286,3.18909,0.358,4.56274,461,5,
10585,6.05255,3.18756,0.358,4.56274,461,5,
10585,6.04706,3.18756,0.358,4.56274,461,5,
10585,6.04645,3.19061,0.358,4.56274,461,5,
10585,6.04675,3.19061,0.358,4.56274,461,5,
10585,6.04736,3.19061,0.358,4.56274,461,5,
10585,6.04309,3.19061,0.358,4.56274,461,5,
10585,6.04248,3.20129,0.358,4.56274,461,5,
10585,6.04309,3.20282,0.358,4.56274,461,5,
10585,6.04248,3.19977,0.358,4.56274,461,5,
10585,6.03699,3.20282,0.358,4.56274,461,5,
10585,6.03668,3.20282,0.358,4.56274,461,5,
10585,6.03729,3.20435,0.358,4.56274,461,5,
10585,6.03271,3.20282,0.358,4.56274,461,5,
10585,6.0318,3.19824,0.358,4.56274,461,5,
10585,6.0318,3.20129,0.358,4.56274,461,5,
10585,6.02997,3.20282,0.358,4.56274,461,5,
10585,6.02844,3.20129,0.358,4.56274,461,5,
10585,6.02783,3.19977,0.358,4.56274,461,5,
10585,6.02661,3.20129,0.358,4.56274,461,5,
10585,6.02234,3.20129,0.358,4.56274,461,5,
10585,6.02264,3.19824,0.358,4.56274,461,5,
10585,6.02234,3.19977,0.358,4.56274,461,5,
10585,6.01807,3.20129,0.358,4.56274,461,5,
10585,6.01807,3.20129,0.358,4.56274,461,5,
10585,6.01746,3.20282,0.358,4.56274,461,5,
10585,6.01227,3.19977,0.358,4.56274,461,5,
10585,6.01288,3.20282,0.358,4.56274,461,5,
10585,6.01288,3.20129,0.358,4.56274,461,5,
10585,6.008,3.20282,0.358,4.56274,461,5,
10585,6.008,3.20435,0.358,4.56274,461,5,
10585,6.008,3.19977,0.358,4.56274,461,5,
10585,6.00342,3.19977,0.358,4.56274,461,5,
10585,6.00311,3.20129,0.358,4.56274,461,5,
10585,6.00311,3.20129,0.358,4.56274,461,5,
10585,5.99823,3.20435,0.358,4.56274,461,5,
10585,5.99823,3.20129,0.358,4.56274,461,5,
10585,5.99487,3.20129,0.358,4.56274,461,5,
10585,5.99304,3.20129,0.358,4.56274,461,5,
10585,5.99243,3.20435,0.358,4.56274,461,5,
10585,5.98846,3.20129,0.358,4.56274,461,5,
10585,5.98816,3.20129,0.358,4.56274,461,5,
10585.1,5.98755,3.20129,0.358,4.56274,461,5,
10585.1,5.98297,3.20435,0.358,4.56274,461,5,
10585.1,5.98389,3.20435,0.358,4.56274,461,5,
10585.1,5.97961,3.20435,0.358,4.56274,461,5,
10585.1,5.9787,3.20435,0.358,4.56274,461,5,
10585.1,5.97839,3.20282,0.358,4.56274,461,5,
10585.1,5.97351,3.20129,0.358,4.56274,461,5,
10585.1,5.97382,3.20282,0.358,4.56274,461,5,
10585.1,5.97382,3.20282,0.358,4.56274,461,5,
10585.1,5.96802,3.20435,0.358,4.56274,461,5,
10585.1,5.96924,3.20282,0.358,4.56274,461,5,
10585.1,5.96436,3.20435,0.358,4.56274,461,5,
10585.1,5.96375,3.20129,0.358,4.56274,461,5,
10585.1,5.96405,3.20129,0.358,4.56274,461,5,
10585.1,5.95825,3.19977,0.358,4.56274,461,5,
10585.1,5.95917,3.20129,0.358,4.56274,461,5,
10585.1,5.95459,3.20129,0.358,4.56274,461,5,
10585.1,5.95428,3.20282,0.358,4.56274,461,5,
10585.1,5.95398,3.20282,0.358,4.56274,461,5,
10585.1,5.94879,3.20282,0.358,4.56274,461,5,
10585.1,5.94971,3.20282,0.358,4.56274,461,5,
10585.1,5.94513,3.20129,0.358,4.56274,461,5,
10585.1,5.94421,3.19824,0.358,4.56274,461,5,
10585.1,5.94482,3.20282,0.358,4.56274,461,5,
10585.1,5.93933,3.20129,0.358,4.56274,461,5,
10585.1,5.93933,3.19977,0.358,4.56274,461,5,
10585.1,5.93536,3.19977,0.358,4.56274,461,5,
10585.1,5.93475,3.20129,0.358,4.56274,461,5,
10585.1,5.9317,3.20282,0.358,4.56274,461,5,
10585.1,5.93018,3.20282,0.358,4.56274,461,5,
10585.1,5.93018,3.20282,0.358,4.56274,461,5,
10585.1,5.9256,3.19977,0.358,4.56274,461,5,
10585.1,5.92407,3.20129,0.358,4.56274,461,5,
10585.1,5.92072,3.20282,0.358,4.56274,461,5,
10585.1,5.9201,3.20282,0.358,4.56274,461,5,
10585.1,5.91766,3.19977,0.358,4.56274,461,5,
10585.1,5.91492,3.20282,0.358,4.56274,461,5,
10585.1,5.91461,3.20129,0.358,4.56274,461,5,
10585.1,5.90973,3.20435,0.358,4.56274,461,5,
10585.1,5.90912,3.19977,0.358,4.56274,461,5,
10585.1,5.90515,3.19977,0.358,4.56274,461,5,
10585.1,5.90485,3.20435,0.358,4.56274,461,5,
10585.1,5.90088,3.20129,0.358,4.56274,461,5,
10585.1,5.90027,3.20282,0.358,4.56274,461,5,
10585.1,5.89691,3.19977,0.358,4.56274,461,5,
10585.1,5.89478,3.20282,0.358,4.56274,461,5,
10585.1,5.89508,3.20129,0.358,4.56274,461,5,
10585.1,5.88989,3.20282,0.358,4.56274,461,5,
10585.1,5.8902,3.20282,0.358,4.56274,461,5,
10585.1,5.8847,3.19977,0.358,4.56274,461,5,
10585.2,5.88501,3.19977,0.358,4.56274,461,5,
10585.2,5.88013,3.20129,0.358,4.56274,461,5,
10585.2,5.88043,3.20435,0.358,4.56274,461,5,
10585.2,5.87585,3.19977,0.358,4.56274,461,5,
10585.2,5.87463,3.19824,0.358,4.56274,461,5,
10585.2,5.8728,3.20282,0.358,4.56274,461,5,
10585.2,5.87067,3.19977,0.358,4.56274,461,5,
10585.2,5.87067,3.20282,0.358,4.56274,461,5,
10585.2,5.86639,3.19977,0.358,4.56274,461,5,
10585.2,5.86578,3.21503,0.358,4.56274,461,5,
10585.2,5.86121,3.21503,0.358,4.56274,461,5,
10585.2,5.86151,3.21503,0.358,4.56274,461,5,
10585.2,5.85571,3.2135,0.358,4.56274,461,5,
10585.2,5.85602,3.21503,0.358,4.56274,461,5,
10585.2,5.85114,3.21045,0.358,4.56274,461,5,
10585.2,5.85205,3.21503,0.358,4.56274,461,5,
10585.2,5.84656,3.21045,0.358,4.56274,461,5,
10585.2,5.84595,3.2135,0.358,4.56274,461,5,
10585.2,5.8429,3.2135,0.358,4.56274,461,5,
10585.2,5.84106,3.21503,0.358,4.56274,461,5,
10585.2,5.83893,3.21808,0.358,4.56274,461,5,
10585.2,5.83618,3.2135,0.358,4.56274,461,5,
10585.2,5.83344,3.21198,0.358,4.56274,461,5,
10585.2,5.8313,3.2135,0.358,4.56274,461,5,
10585.2,5.8316,3.2135,0.358,4.56274,461,5,
10585.2,5.82642,3.2135,0.358,4.56274,461,5,
10585.2,5.82642,3.2135,0.358,4.56274,461,5,
10585.2,5.82153,3.21045,0.358,4.56274,461,5,
10585.2,5.82214,3.21503,0.358,4.56274,461,5,
10585.2,5.81665,3.21198,0.358,4.56274,461,5,
10585.2,5.81665,3.21655,0.358,4.56274,461,5,
10585.2,5.81207,3.21503,0.358,4.56274,461,5,
10585.2,5.81207,3.2135,0.358,4.56274,461,5,
10585.2,5.80719,3.2135,0.358,4.56274,461,5,
10585.2,5.80627,3.20892,0.358,4.56274,461,5,
10585.2,5.80322,3.2135,0.358,4.56274,461,5,
10585.2,5.80261,3.21808,0.358,4.56274,461,5,
10585.2,5.79773,3.21198,0.358,4.56274,461,5,
10585.2,5.79712,3.21045,0.358,4.56274,461,5,
10585.2,5.79498,3.21655,0.358,4.56274,461,5,
10585.2,5.79254,3.2135,0.358,4.56274,461,5,
10585.2,5.78949,3.2135,0.358,4.56274,461,5,
10585.2,5.78735,3.21503,0.358,4.56274,461,5,
10585.2,5.78491,3.21198,0.358,4.56274,461,5,
10585.2,5.78278,3.21808,0.358,4.56274,461,5,
10585.2,5.77972,3.21655,0.358,4.56274,461,5,
10585.2,5.7782,3.2135,0.358,4.56274,461,5,
10585.2,5.77728,3.21503,0.358,4.56274,461,5,
10585.2,5.7724,3.21503,0.358,4.56274,461,5,
10585.2,5.77271,3.2135,0.358,4.56274,461,5,
10585.3,5.76813,3.21503,0.358,4.56274,461,5,
10585.3,5.76782,3.21503,0.358,4.56274,461,5,
10585.3,5.76324,3.21198,0.358,4.56274,461,5,
10585.3,5.76324,3.21503,0.358,4.56274,461,5,
10585.3,5.75836,3.21503,0.358,4.56274,461,5,
10585.3,5.75836,3.21503,0.358,4.56274,461,5,
10585.3,5.75348,3.2135,0.358,4.56274,461,5,
10585.3,5.75012,3.21198,0.358,4.56274,461,5,
10585.3,5.7489,3.2135,0.358,4.56274,461,5,
10585.3,5.74585,3.21198,0.358,4.56274,461,5,
10585.3,5.74371,3.21198,0.358,4.56274,461,5,
10585.3,5.74005,3.2135,0.358,4.56274,461,5,
10585.3,5.73883,3.21198,0.358,4.56274,461,5,
10585.3,5.73578,3.21198,0.358,4.56274,461,5,
10585.3,5.73364,3.2135,0.358,4.56274,461,5,
10585.3,5.72998,3.21503,0.358,4.56274,461,5,
10585.3,5.72876,3.20892,0.358,4.56274,461,5,
10585.3,5.72449,3.21198,0.358,4.56274,461,5,
10585.3,5.72418,3.21655,0.358,4.56274,461,5,
10585.3,5.7196,3.21503,0.358,4.56274,461,5,
10585.3,5.71869,3.2135,0.358,4.56274,461,5,
10585.3,5.71381,3.21655,0.358,4.56274,461,5,
10585.3,5.71411,3.21198,0.358,4.56274,461,5,
10585.3,5.70953,3.21503,0.358,4.56274,461,5,
10585.3,5.70587,3.21198,0.358,4.56274,461,5,
10585.3,5.70404,3.2135,0.358,4.56274,461,5,
10585.3,5.70099,3.21198,0.358,4.56274,461,5,
10585.3,5.69946,3.2135,0.358,4.56274,461,5,
10585.3,5.69489,3.21961,0.358,4.56274,461,5,
10585.3,5.69397,3.2135,0.358,4.56274,461,5,
10585.3,5.6897,3.21198,0.358,4.56274,461,5,
10585.3,5.6897,3.2135,0.358,4.56274,461,5,
10585.3,5.68451,3.21655,0.358,4.56274,461,5,
10585.3,5.68481,3.21503,0.358,4.56274,461,5,
10585.3,5.67871,3.21503,0.358,4.56274,461,5,
10585.3,5.67719,3.2135,0.358,4.56274,461,5,
10585.3,5.67505,3.2135,0.358,4.56274,461,5,
10585.3,5.67078,3.2135,0.358,4.56274,461,5,
10585.3,5.67047,3.2135,0.358,4.56274,461,5,
10585.3,5.66559,3.20892,0.358,4.56274,461,5,
10585.3,5.66528,3.21503,0.358,4.56274,461,5,
10585.3,5.65948,3.21655,0.358,4.56274,461,5,
10585.3,5.6604,3.2135,0.358,4.56274,461,5,
10585.3,5.65582,3.2135,0.358,4.56274,461,5,
10585.3,5.65216,3.2135,0.358,4.56274,461,5,
10585.3,5.64972,3.21198,0.358,4.56274,461,5,
10585.3,5.64667,3.2135,0.358,4.56274,461,5,
10585.3,5.64545,3.2135,0.358,4.56274,461,5,
10585.3,5.64117,3.21655,0.358,4.56274,461,5,
10585.4,5.64056,3.21503,0.358,4.56274,461,5,
10585.4,5.63629,3.2135,0.358,4.56274,461,5,
10585.4,5.63538,3.21198,0.358,4.56274,461,5,
10585.4,5.63049,3.21503,0.358,4.56274,461,5,
10585.4,5.62744,3.21503,0.358,4.56274,461,5,
10585.4,5.62592,3.21198,0.358,4.56274,461,5,
10585.4,5.62134,3.2135,0.358,4.56274,461,5,
10585.4,5.62073,3.21045,0.358,4.56274,461,5,
10585.4,5.61646,3.2135,0.358,4.56274,461,5,
10585.4,5.61615,3.21503,0.358,4.56274,461,5,
10585.4,5.61127,3.21198,0.358,4.56274,461,5,
10585.4,5.61066,3.21503,0.358,4.56274,461,5,
10585.4,5.60638,3.21655,0.358,4.56274,461,5,
10585.4,5.60333,3.2135,0.358,4.56274,461,5,
10585.4,5.6015,3.21655,0.358,4.56274,461,5,
10585.4,5.59692,3.21503,0.358,4.56274,461,5,
10585.4,5.59662,3.21198,0.358,4.56274,461,5,
10585.4,5.59143,3.21503,0.358,4.56274,461,5,
10585.4,5.59143,3.2135,0.358,4.56274,461,5,
10585.4,5.58685,3.21655,0.358,4.56274,461,5,
10585.4,5.58685,3.2135,0.358,4.56274,461,5,
10585.4,5.58167,3.21808,0.358,4.56274,461,5,
10585.4,5.57861,3.21198,0.358,4.56274,461,5,
10585.4,5.57648,3.21503,0.358,4.56274,461,5,
10585.4,5.57251,3.2135,0.358,4.56274,461,5,
10585.4,5.57159,3.21198,0.358,4.56274,461,5,
10585.4,5.56671,3.21503,0.358,4.56274,461,5,
10585.4,5.56732,3.2135,0.358,4.56274,461,5,
10585.4,5.56244,3.21198,0.358,4.56274,461,5,
10585.4,5.56213,3.21045,0.358,4.56274,461,5,
10585.4,5.55756,3.21503,0.358,4.56274,461,5,
10585.4,5.55542,3.21198,0.358,4.56274,461,5,
10585.4,5.55267,3.21503,0.358,4.56274,461,5,
10585.4,5.5484,3.21198,0.358,4.56274,461,5,
10585.4,5.54779,3.21503,0.358,4.56274,461,5,
10585.4,5.54382,3.22571,0.358,4.56274,461,5,
10585.4,5.5426,3.22723,0.358,4.56274,461,5,
10585.4,5.53772,3.22876,0.358,4.56274,461,5,
10585.4,5.53711,3.22876,0.358,4.56274,461,5,
10585.4,5.53314,3.22266,0.358,4.56274,461,5,
10585.4,5.53253,3.22571,0.358,4.56274,461,5,
10585.4,5.52765,3.22723,0.358,4.56274,461,5,
10585.4,5.52582,3.22876,0.358,4.56274,461,5,
10585.4,5.52368,3.22876,0.358,4.56274,461,5,
10585.4,5.5188,3.22723,0.358,4.56274,461,5,
10585.4,5.51819,3.22418,0.358,4.56274,461,5,
10585.4,5.51361,3.22266,0.358,4.56274,461,5,
10585.4,5.513,3.22571,0.358,4.56274,461,5,
10585.4,5.50842,3.22571,0.358,4.56274,461,5,
10585.4,5.50842,3.22418,0.358,4.56274,461,5,
10585.5,5.50385,3.22418,0.358,4.56274,461,5,
10585.5,5.50201,3.22571,0.358,4.56274,461,5,
10585.5,5.49866,3.22418,0.358,4.56274,461,5,
10585.5,5.49805,3.22571,0.358,4.56274,461,5,
10585.5,5.49377,3.22571,0.358,4.56274,461,5,
10585.5,5.49347,3.22571,0.358,4.56274,461,5,
10585.5,5.48889,3.22571,0.358,4.56274,461,5,
10585.5,5.48615,3.22418,0.358,4.56274,461,5,
10585.5,5.4837,3.22418,0.358,4.56274,461,5,
10585.5,5.48004,3.22571,0.358,4.56274,461,5,
10585.5,5.47974,3.22571,0.358,4.56274,461,5,
10585.5,5.47607,3.22876,0.358,4.56274,461,5,
10585.5,5.47485,3.22876,0.358,4.56274,461,5,
10585.5,5.47119,3.22571,0.358,4.56274,461,5,
10585.5,5.46936,3.22571,0.358,4.56274,461,5,
10585.5,5.46631,3.22723,0.358,4.56274,461,5,
10585.5,5.46387,3.22418,0.358,4.56274,461,5,
10585.5,5.46021,3.22723,0.358,4.56274,461,5,
10585.5,5.4599,3.22418,0.358,4.56274,461,5,
10585.5,5.45471,3.22571,0.358,4.56274,461,5,
10585.5,5.45502,3.22723,0.358,4.56274,461,5,
10585.5,5.44983,3.22571,0.358,4.56274,461,5,
10585.5,5.44952,3.22571,0.358,4.56274,461,5,
10585.5,5.44525,3.23029,0.358,4.56274,461,5,
10585.5,5.44525,3.22418,0.358,4.56274,461,5,
10585.5,5.44037,3.22571,0.358,4.56274,461,5,
10585.5,5.44006,3.22571,0.358,4.56274,461,5,
10585.5,5.43701,3.22571,0.358,4.56274,461,5,
10585.5,5.43549,3.22876,0.358,4.56274,461,5,
10585.5,5.43182,3.22571,0.358,4.56274,461,5,
10585.5,5.42999,3.22723,0.358,4.56274,461,5,
10585.5,5.42664,3.22418,0.358,4.56274,461,5,
10585.5,5.42511,3.22723,0.358,4.56274,461,5,
10585.5,5.42267,3.22571,0.358,4.56274,461,5,
10585.5,5.42084,3.22876,0.358,4.56274,461,5,
10585.5,5.41992,3.22571,0.358,4.56274,461,5,
10585.5,5.41534,3.22571,0.358,4.56274,461,5,
10585.5,5.41534,3.22571,0.358,4.56274,461,5,
10585.5,5.41046,3.22571,0.358,4.56274,461,5,
10585.5,5.41016,3.22266,0.358,4.56274,461,5,
10585.5,5.40527,3.22571,0.358,4.56274,461,5,
10585.5,5.40619,3.22418,0.358,4.56274,461,5,
10585.5,5.4007,3.22723,0.358,4.56274,461,5,
10585.5,5.401,3.22418,0.358,4.56274,461,5,
10585.5,5.39581,3.22876,0.358,4.56274,461,5,
10585.5,5.39581,3.22723,0.358,4.56274,461,5,
10585.5,5.39124,3.22723,0.358,4.56274,461,5,
10585.5,5.39062,3.22418,0.358,4.56274,461,5,
10585.5,5.38818,3.22876,0.358,4.56274,461,5,
10585.5,5.38574,3.22723,0.358,4.56274,461,5,
10585.5,5.38574,3.22876,0.358,4.56274,461,5,
10585.6,5.38116,3.22723,0.358,4.56274,461,5,
10585.6,5.38086,3.22876,0.358,4.56274,461,5,
10585.6,5.37598,3.22723,0.358,4.56274,461,5,
10585.6,5.37537,3.22418,0.358,4.56274,461,5,
10585.6,5.37109,3.22418,0.358,4.56274,461,5,
10585.6,5.3714,3.22418,0.358,4.56274,461,5,
10585.6,5.36713,3.22571,0.358,4.56274,461,5,
10585.6,5.36652,3.22571,0.358,4.56274,461,5,
10585.6,5.36346,3.22571,0.358,4.56274,461,5,
10585.6,5.36163,3.22571,0.358,4.56274,461,5,
10585.6,5.36194,3.22418,0.358,4.56274,461,5,
10585.6,5.35614,3.22266,0.358,4.56274,461,5,
10585.6,5.35614,3.22266,0.358,4.56274,461,5,
10585.6,5.35095,3.22418,0.358,4.56274,461,5,
10585.6,5.35126,3.22571,0.358,4.56274,461,5,
10585.6,5.34698,3.22723,0.358,4.56274,461,5,
10585.6,5.34607,3.22418,0.358,4.56274,461,5,
10585.6,5.34698,3.22723,0.358,4.56274,461,5,
10585.6,5.3418,3.22418,0.358,4.56274,461,5,
10585.6,5.34119,3.22571,0.358,4.56274,461,5,
10585.6,5.33752,3.22723,0.358,4.56274,461,5,
10585.6,5.33691,3.22723,0.358,4.56274,461,5,
10585.6,5.33264,3.22876,0.358,4.56274,461,5,
10585.6,5.33203,3.22418,0.358,4.56274,461,5,
10585.6,5.33203,3.22418,0.358,4.56274,461,5,
10585.6,5.32684,3.22418,0.358,4.56274,461,5,
10585.6,5.32654,3.22723,0.358,4.56274,461,5,
10585.6,5.32288,3.22418,0.358,4.56274,461,5,
10585.6,5.32257,3.22723,0.358,4.56274,461,5,
10585.6,5.31952,3.22723,0.358,4.56274,461,5,
10585.6,5.31708,3.22571,0.358,4.56274,461,5,
10585.6,5.31708,3.22876,0.358,4.56274,461,5,
10585.6,5.31281,3.22418,0.358,4.56274,461,5,
10585.6,5.3125,3.22418,0.358,4.56274,461,5,
10585.6,5.31006,3.22418,0.358,4.56274,461,5,
10585.6,5.30792,3.22571,0.358,4.56274,461,5,
10585.6,5.30762,3.22418,0.358,4.56274,461,5,
10585.6,5.30212,3.22266,0.358,4.56274,461,5,
10585.6,5.30273,3.22266,0.358,4.56274,461,5,
10585.6,5.30273,3.22571,0.358,4.56274,461,5,
10585.6,5.29785,3.22723,0.358,4.56274,461,5,
10585.6,5.29816,3.22266,0.358,4.56274,461,5,
10585.6,5.29327,3.22723,0.358,4.56274,461,5,
10585.6,5.29266,3.22876,0.358,4.56274,461,5,
10585.6,5.29297,3.22571,0.358,4.56274,461,5,
10585.6,5.28778,3.22418,0.358,4.56274,461,5,
10585.6,5.28839,3.22571,0.358,4.56274,461,5,
10585.6,5.28534,3.22723,0.358,4.56274,461,5,
10585.6,5.2829,3.22418,0.358,4.56274,461,5,
10585.6,5.28259,3.22571,0.358,4.56274,461,5,
10585.7,5.27893,3.22418,0.358,4.56274,461,5,
10585.7,5.27771,3.22723,0.358,4.56274,461,5,
10585.7,5.2774,3.22266,0.358,4.56274,461,5,
10585.7,5.27374,3.22418,0.358,4.56274,461,5,
10585.7,5.27374,3.22571,0.358,4.56274,461,5,
10585.7,5.27344,3.22418,0.358,4.56274,461,5,
10585.7,5.26825,3.22571,0.358,4.56274,461,5,
10585.7,5.26764,3.22571,0.358,4.56274,461,5,
10585.7,5.2652,3.22266,0.358,4.56274,461,5,
10585.7,5.26306,3.22876,0.358,4.56274,461,5,
10585.7,5.26306,3.22418,0.358,4.56274,461,5,
10585.7,5.2594,3.22571,0.358,4.56274,461,5,
10585.7,5.25818,3.22571,0.358,4.56274,461,5,
10585.7,5.25909,3.22266,0.358,4.56274,461,5,
10585.7,5.2536,3.22266,0.358,4.56274,461,5,
10585.7,5.2536,3.22266,0.358,4.56274,461,5,
10585.7,5.25299,3.22571,0.358,4.56274,461,5,
10585.7,5.24872,3.22571,0.358,4.56274,461,5,
10585.7,5.24902,3.22571,0.358,4.56274,461,5,
10585.7,5.24841,3.22876,0.358,4.56274,461,5,
10585.7,5.24353,3.22418,0.358,4.56274,461,5,
10585.7,5.24323,3.22571,0.358,4.56274,461,5,
10585.7,5.24384,3.22723,0.358,4.56274,461,5,
10585.7,5.23834,3.22571,0.358,4.56274,461,5,
10585.7,5.23834,3.22876,0.358,4.56274,461,5,
10585.7,5.23865,3.22571,0.358,4.56274,461,5,
10585.7,5.23346,3.23792,0.358,4.56274,461,5,
10585.7,5.23407,3.23944,0.358,4.56274,461,5,
10585.7,5.23193,3.23639,0.358,4.56274,461,5,
10585.7,5.22949,3.23486,0.358,4.56274,461,5,
10585.7,5.2298,3.23944,0.358,4.56274,461,5,
10585.7,5.22675,3.23792,0.358,4.56274,461,5,
10585.7,5.22491,3.23792,0.358,4.56274,461,5,
10585.7,5.22461,3.23639,0.358,4.56274,461,5,
10585.7,5.22095,3.24097,0.358,4.56274,461,5,
10585.7,5.21912,3.23486,0.358,4.56274,461,5,
10585.7,5.21973,3.23792,0.358,4.56274,461,5,
10585.7,5.21729,3.23792,0.358,4.56274,461,5,
10585.7,5.21393,3.23944,0.358,4.56274,461,5,
10585.7,5.21393,3.23639,0.358,4.56274,461,5,
10585.7,5.2121,3.23792,0.358,4.56274,461,5,
10585.7,5.20966,3.23944,0.358,4.56274,461,5,
10585.7,5.20966,3.23792,0.358,4.56274,461,5,
10585.7,5.20905,3.23944,0.358,4.56274,461,5,
10585.7,5.20447,3.23639,0.358,4.56274,461,5,
10585.7,5.20355,3.23639,0.358,4.56274,461,5,
10585.7,5.20416,3.23792,0.358,4.56274,461,5,
10585.7,5.19897,3.23639,0.358,4.56274,461,5,
10585.7,5.19928,3.23792,0.358,4.56274,461,5,
10585.8,5.19989,3.23944,0.358,4.56274,461,5,
10585.8,5.1947,3.23792,0.358,4.56274,461,5,
10585.8,5.1944,3.23944,0.358,4.56274,461,5,
10585.8,5.1944,3.23792,0.358,4.56274,461,5,
10585.8,5.18951,3.23486,0.358,4.56274,461,5,
10585.8,5.1889,3.23944,0.358,4.56274,461,5,
10585.8,5.18951,3.23792,0.358,4.56274,461,5,
10585.8,5.18555,3.23944,0.358,4.56274,461,5,
10585.8,5.18372,3.23792,0.358,4.56274,461,5,
10585.8,5.18524,3.23334,0.358,4.56274,461,5,
10585.8,5.18188,3.23792,0.358,4.56274,461,5,
10585.8,5.18036,3.23486,0.358,4.56274,461,5,
10585.8,5.17975,3.23792,0.358,4.56274,461,5,
10585.8,5.18005,3.23639,0.358,4.56274,461,5,
10585.8,5.17487,3.24249,0.358,4.56274,461,5,
10585.8,5.17487,3.23944,0.358,4.56274,461,5,
10585.8,5.17578,3.23944,0.358,4.56274,461,5,
10585.8,5.1709,3.23792,0.358,4.56274,461,5,
10585.8,5.16998,3.23486,0.358,4.56274,461,5,
10585.8,5.16998,3.23639,0.358,4.56274,461,5,
10585.8,5.16663,3.23944,0.358,4.56274,461,5,
10585.8,5.1651,3.23944,0.358,4.56274,461,5,
10585.8,5.16541,3.23486,0.358,4.56274,461,5,
10585.8,5.16541,3.23944,0.358,4.56274,461,5,
10585.8,5.16022,3.23792,0.358,4.56274,461,5,
10585.8,5.16022,3.23792,0.358,4.56274,461,5,
10585.8,5.15961,3.24097,0.358,4.56274,461,5,
10585.8,5.15747,3.23944,0.358,4.56274,461,5,
10585.8,5.15564,3.24249,0.358,4.56274,461,5,
10585.8,5.15564,3.24097,0.358,4.56274,461,5,
10585.8,5.15594,3.23944,0.358,4.56274,461,5,
10585.8,5.15076,3.23944,0.358,4.56274,461,5,
10585.8,5.15015,3.23334,0.358,4.56274,461,5,
10585.8,5.15076,3.23944,0.358,4.56274,461,5,
10585.8,5.14801,3.24097,0.358,4.56274,461,5,
10585.8,5.14587,3.23944,0.358,4.56274,461,5,
10585.8,5.14587,3.23639,0.358,4.56274,461,5,
10585.8,5.14587,3.23639,0.358,4.56274,461,5,
10585.8,5.1413,3.23486,0.358,4.56274,461,5,
10585.8,5.14069,3.23639,0.358,4.56274,461,5,
10585.8,5.14069,3.23639,0.358,4.56274,461,5,
10585.8,5.14038,3.23792,0.358,4.56274,461,5,
10585.8,5.1358,3.23944,0.358,4.56274,461,5,
10585.8,5.1355,3.23944,0.358,4.56274,461,5,
10585.8,5.1358,3.23792,0.358,4.56274,461,5,
10585.8,5.13336,3.23944,0.358,4.56274,461,5,
10585.8,5.13184,3.23944,0.358,4.56274,461,5,
10585.8,5.13092,3.23792,0.358,4.56274,461,5,
10585.8,5.13123,3.23639,0.358,4.56274,461,5,
10585.8,5.12634,3.23639,0.358,4.56274,461,5,
10585.9,5.12604,3.23639,0.358,4.56274,461,5,
10585.9,5.12573,3.23792,0.358,4.56274,461,5,
10585.9,5.12573,3.23792,0.358,4.56274,461,5,
10585.9,5.12115,3.23639,0.358,4.56274,461,5,
10585.9,5.12146,3.23639,0.358,4.56274,461,5,
10585.9,5.12085,3.24097,0.358,4.56274,461,5,
10585.9,5.12146,3.23792,0.358,4.56274,461,5,
10585.9,5.11719,3.23792,0.358,4.56274,461,5,
10585.9,5.11597,3.23944,0.358,4.56274,461,5,
10585.9,5.11658,3.23792,0.358,4.56274,461,5,
10585.9,5.11322,3.23944,0.358,4.56274,461,5,
10585.9,5.11169,3.23639,0.358,4.56274,461,5,
10585.9,5.11139,3.23944,0.358,4.56274,461,5,
10585.9,5.11169,3.23639,0.358,4.56274,461,5,
10585.9,5.10651,3.23944,0.358,4.56274,461,5,
10585.9,5.10742,3.23944,0.358,4.56274,461,5,
10585.9,5.10681,3.23639,0.358,4.56274,461,5,
10585.9,5.1062,3.24097,0.358,4.56274,461,5,
10585.9,5.10101,3.24097,0.358,4.56274,461,5,
10585.9,5.10162,3.24097,0.358,4.56274,461,5,
10585.9,5.10193,3.24249,0.358,4.56274,461,5,
10585.9,5.09888,3.23486,0.358,4.56274,461,5,
10585.9,5.09644,3.23639,0.358,4.56274,461,5,
10585.9,5.09583,3.24249,0.358,4.56274,461,5,
10585.9,5.09705,3.23792,0.358,4.56274,461,5,
10585.9,5.09186,3.23792,0.358,4.56274,461,5,
10585.9,5.09216,3.23639,0.358,4.56274,461,5,
10585.9,5.09186,3.23639,0.358,4.56274,461,5,
10585.9,5.08881,3.23639,0.358,4.56274,461,5,
10585.9,5.08667,3.24097,0.358,4.56274,461,5,
10585.9,5.08698,3.23792,0.358,4.56274,461,5,
10585.9,5.08698,3.23944,0.358,4.56274,461,5,
10585.9,5.0827,3.23944,0.358,4.56274,461,5,
10585.9,5.0824,3.23486,0.358,4.56274,461,5,
10585.9,5.08209,3.23944,0.358,4.56274,461,5,
10585.9,5.0824,3.23944,0.358,4.56274,461,5,
10585.9,5.07812,3.24097,0.358,4.56274,461,5,
10585.9,5.07812,3.23944,0.358,4.56274,461,5,
10585.9,5.07751,3.24097,0.358,4.56274,461,5,
10585.9,5.07355,3.24097,0.358,4.56274,461,5,
10585.9,5.07233,3.23639,0.358,4.56274,461,5,
10585.9,5.07233,3.23792,0.358,4.56274,461,5,
10585.9,5.07263,3.23639,0.358,4.56274,461,5,
10585.9,5.06744,3.23792,0.358,4.56274,461,5,
10585.9,5.06836,3.23792,0.358,4.56274,461,5,
10585.9,5.06775,3.23792,0.358,4.56274,461,5,
10585.9,5.06409,3.24097,0.358,4.56274,461,5,
10585.9,5.06287,3.23944,0.358,4.56274,461,5,
10585.9,5.06317,3.24097,0.358,4.56274,461,5,
10585.9,5.06317,3.23944,0.358,4.56274,461,5,
10586,5.05859,3.23792,0.358,4.56274,461,5,
10586,5.05737,3.23944,0.358,4.56274,461,5,
10586,5.05768,3.23944,0.358,4.56274,461,5,
10586,5.0531,3.23639,0.358,4.56274,461,5,
10586,5.0531,3.23486,0.358,4.56274,461,5,
10586,5.05219,3.23792,0.358,4.56274,461,5,
10586,5.05005,3.23944,0.358,4.56274,461,5,
10586,5.04761,3.23944,0.358,4.56274,461,5,
10586,5.0473,3.23792,0.358,4.56274,461,5,
10586,5.0473,3.23792,0.358,4.56274,461,5,
10586,5.04303,3.23639,0.358,4.56274,461,5,
10586,5.04272,3.23792,0.358,4.56274,461,5,
10586,5.04303,3.24097,0.358,4.56274,461,5,
10586,5.03937,3.23792,0.358,4.56274,461,5,
10586,5.03845,3.23639,0.358,4.56274,461,5,
10586,5.03815,3.23944,0.358,4.56274,461,5,
10586,5.0351,3.23792,0.358,4.56274,461,5,
10586,5.03387,3.23944,0.358,4.56274,461,5,
10586,5.03357,3.24097,0.358,4.56274,461,5,
10586,5.03326,3.24097,0.358,4.56274,461,5,
10586,5.02869,3.23792,0.358,4.56274,461,5,
10586,5.02899,3.23792,0.358,4.56274,461,5,
10586,5.02838,3.23792,0.358,4.56274,461,5,
10586,5.02319,3.23792,0.358,4.56274,461,5,
10586,5.0235,3.24097,0.358,4.56274,461,5,
10586,5.0235,3.23486,0.358,4.56274,461,5,
10586,5.01953,3.23486,0.358,4.56274,461,5,
10586,5.01862,3.23792,0.358,4.56274,461,5,
10586,5.01923,3.23792,0.358,4.56274,461,5,
10586,5.01617,3.23944,0.358,4.56274,461,5,
10586,5.01404,3.24097,0.358,4.56274,461,5,
10586,5.01373,3.23792,0.358,4.56274,461,5,
10586,5.01434,3.24097,0.358,4.56274,461,5,
10586,5.00885,3.23944,0.358,4.56274,461,5,
10586,5.00916,3.23792,0,4.56274,461,5,
10586,5.00854,3.23792,0,4.56274,461,5,
10586,5.00427,3.23944,0,4.56274,461,5,
10586,5.00397,3.23944,0,4.56274,461,5,
10586,5.00397,3.24097,0,4.56274,461,5,
10586,4.99908,3.24097,0,4.56274,461,5,
10586,4.99847,3.23639,0,4.56274,461,5,
10586,4.99908,3.23792,0,4.56274,461,5,
10586,4.99512,3.23944,0,4.56274,461,5,
10586,4.9939,3.23944,0,4.56274,461,5,
10586,4.9942,3.23944,0,4.56274,461,5,
10586,4.99176,3.23792,0,4.56274,461,5,
10586,4.98932,3.23792,0,4.56274,461,5,
10586,4.98901,3.23792,0,4.56274,461,5,
10586,4.98871,3.23944,0,4.56274,461,5,
10586,4.98413,3.23944,0,4.56274,461,5,
10586,4.98474,3.23639,0,4.56274,461,5,
10586.1,4.98444,3.23944,0,4.56274,461,5,
10586.1,4.97925,3.23639,0,4.56274,461,5,
10586.1,4.97986,3.23792,0,4.56274,461,5,
10586.1,4.97925,3.23944,0,4.56274,461,5,
10586.1,4.97559,3.23792,0,4.56274,461,5,
10586.1,4.97437,3.23792,0,4.56274,461,5,
10586.1,4.97406,3.23639,0,4.56274,461,5,
10586.1,4.97009,3.23792,0,4.56274,461,5,
10586.1,4.96887,3.23639,0,4.56274,461,5,
10586.1,4.96948,3.24097,0,4.56274,461,5,
10586.1,4.96765,3.23639,0,4.56274,461,5,
10586.1,4.9649,3.23639,0,4.56274,461,5,
10586.1,4.9646,3.23944,0,4.56274,461,5,
10586.1,4.96521,3.23792,0,4.56274,461,5,
10586.1,4.95972,3.23639,0,4.56274,461,5,
10586.1,4.96033,3.23639,0,4.56274,461,5,
10586.1,4.95941,3.23944,0,4.56274,461,5,
10586.1,4.95544,3.24097,0,4.56274,461,5,
10586.1,4.95605,3.23944,0,4.56274,461,5,
10586.1,4.95483,3.23944,0,4.56274,461,5,
10586.1,4.95209,3.23792,0,4.56274,461,5,
10586.1,4.95056,3.23944,0,4.56274,461,5,
10586.1,4.95026,3.23944,0,4.56274,461,5,
10586.1,4.95026,3.23639,0,4.56274,461,5,
10586.1,4.94476,3.24097,0,4.56274,461,5,
10586.1,4.94507,3.23792,0,4.56274,461,5,
10586.1,4.94446,3.24097,0,4.56274,461,5,
10586.1,4.94049,3.23792,0,4.56274,461,5,
10586.1,4.93988,3.23792,0,4.56274,461,5,
10586.1,4.94019,3.23944,0,4.56274,461,5,
10586.1,4.93683,3.24097,0,4.56274,461,5,
10586.1,4.93561,3.24097,0,4.56274,461,5,
10586.1,4.93561,3.24097,0,4.56274,461,5,
10586.1,4.93561,3.23639,0,4.56274,461,5,
10586.1,4.93103,3.24097,0,4.56274,461,5,
10586.1,4.93042,3.23639,0,4.56274,461,5,
10586.1,4.93073,3.23639,0,4.56274,461,5,
10586.1,4.92767,3.23944,0,4.56274,461,5,
10586.1,4.92584,3.23944,0,4.56274,461,5,
10586.1,4.92554,3.24097,0,4.56274,461,5,
10586.1,4.92523,3.23792,0,4.56274,461,5,
10586.1,4.92065,3.24097,0,4.56274,461,5,
10586.1,4.92065,3.23486,0,4.56274,461,5,
10586.1,4.92096,3.23792,0,4.56274,461,5,
10586.1,4.91791,3.23639,0,4.56274,461,5,
10586.1,4.91608,3.23944,0,4.56274,461,5,
10586.1,4.91547,3.23792,0,4.56274,461,5,
10586.1,4.91516,3.23639,0,4.56274,461,5,
10586.1,4.91119,3.23944,0,4.56274,461,5,
10586.1,4.9115,3.23792,0,4.56274,461,5,
10586.2,4.91089,3.23792,0,4.56274,461,5,
10586.2,4.91058,3.24097,0,4.56274,461,5,
10586.2,4.90601,3.24097,0,4.56274,461,5,
10586.2,4.90601,3.23944,0,4.56274,461,5,
10586.2,4.9054,3.23639,0,4.56274,461,5,
10586.2,4.90295,3.23639,0,4.56274,461,5,
10586.2,4.90112,3.23792,0,4.56274,461,5,
10586.2,4.90082,3.23639,0,4.56274,461,5,
10586.2,4.90021,3.23944,0,4.56274,461,5,
10586.2,4.89716,3.23639,0,4.56274,461,5,
10586.2,4.89624,3.23792,0,4.56274,461,5,
10586.2,4.89532,3.23792,0,4.56274,461,5,
10586.2,4.89594,3.23792,0,4.56274,461,5,
10586.2,4.89136,3.24097,0,4.56274,461,5,
10586.2,4.89136,3.23792,0,4.56274,461,5,
10586.2,4.89105,3.23639,0,4.56274,461,5,
10586.2,4.89136,3.23792,0,4.56274,461,5,
10586.2,4.88647,3.23944,0,4.56274,461,5,
10586.2,4.88617,3.23792,0,4.56274,461,5,
10586.2,4.88586,3.23944,0,4.56274,461,5,
10586.2,4.88617,3.23639,0,4.56274,461,5,
10586.2,4.88098,3.23944,0,4.56274,461,5,
10586.2,4.88129,3.23792,0,4.56274,461,5,
10586.2,4.88129,3.23792,0,4.56274,461,5,
