2300-SECPT.acq
2 msec/sample
6 channels
RSP, X, RSPEC-R
Volts
EDA, Y, PPGED-R
microsiemens
ECG R-R
Seconds
Respiration Rate
BPM
C7 - EDR
Peaks
C14 - Control
Volts
min,CH1,CH14,CH40,CH42,CH47,CH54,
,88743,88743,88743,88743,88743,88743,
221.364,6.86554,2.52838,2.504,10.5152,80,0,
221.364,6.86554,2.52838,2.504,10.5152,80,0,
221.364,6.86584,2.52991,2.504,10.5152,80,0,
221.364,6.86523,2.52686,2.504,10.5152,80,0,
221.364,6.86523,2.52686,2.504,10.5152,80,0,
221.364,6.86523,2.52838,2.504,10.5152,80,0,
221.364,6.86584,2.52991,2.504,10.5152,80,0,
221.364,6.86554,2.52838,2.504,10.5152,80,0,
221.364,6.86584,2.52533,2.504,10.5152,80,0,
221.364,6.86584,2.52838,2.504,10.5152,80,0,
221.364,6.86584,2.52838,2.504,10.5152,80,0,
221.364,6.86615,2.52991,2.504,10.5152,80,0,
221.364,6.86523,2.52686,2.504,10.5152,80,0,
221.364,6.86584,2.52533,2.504,10.5152,80,0,
221.364,6.86523,2.52686,2.504,10.5152,80,0,
221.364,6.86584,2.52991,2.504,10.5152,80,0,
221.365,6.86554,2.52838,2.504,10.5152,80,0,
221.365,6.86462,2.52991,2.504,10.5152,80,0,
221.365,6.86584,2.52838,2.504,10.5152,80,0,
221.365,6.86615,2.52838,2.504,10.5152,80,0,
221.365,6.86584,2.52686,2.504,10.5152,80,0,
221.365,6.86584,2.52686,2.504,10.5152,80,0,
221.365,6.86554,2.52838,2.504,10.5152,80,0,
221.365,6.86432,2.52533,2.504,10.5152,80,0,
221.365,6.86584,2.52838,2.504,10.5152,80,0,
221.365,6.86462,2.52838,2.504,10.5152,80,0,
221.365,6.86523,2.52991,2.504,10.5152,80,0,
221.365,6.86523,2.52838,2.504,10.5152,80,0,
221.365,6.86493,2.53143,2.504,10.5152,80,0,
221.365,6.86432,2.52686,2.504,10.5152,80,0,
221.365,6.86523,2.52533,2.504,10.5152,80,0,
221.365,6.86005,2.52533,2.504,10.5152,80,0,
221.365,6.85974,2.52838,2.504,10.5152,80,0,
221.365,6.86035,2.52686,2.504,10.5152,80,0,
221.365,6.85974,2.52838,2.504,10.5152,80,0,
221.365,6.86066,2.52533,2.504,10.5152,80,0,
221.365,6.86005,2.52686,2.504,10.5152,80,0,
221.365,6.85944,2.52838,2.504,10.5152,80,0,
221.365,6.86005,2.52991,2.504,10.5152,80,0,
221.365,6.86066,2.52838,2.504,10.5152,80,0,
221.365,6.85913,2.53143,2.504,10.5152,80,0,
221.365,6.86127,2.52838,2.504,10.5152,80,0,
221.365,6.86005,2.52686,2.504,10.5152,80,0,
221.365,6.86035,2.52686,2.504,10.5152,80,0,
221.365,6.86066,2.52991,2.504,10.5152,80,0,
221.365,6.86005,2.52838,2.504,10.5152,80,0,
221.366,6.86035,2.53143,2.504,10.5152,80,0,
221.366,6.86066,2.52686,2.504,10.5152,80,0,
221.366,6.86096,2.52686,2.504,10.5152,80,0,
221.366,6.86035,2.52686,2.504,10.5152,80,0,
221.366,6.86066,2.52991,2.504,10.5152,80,0,
221.366,6.86035,2.52838,2.504,10.5152,80,0,
221.366,6.85883,2.52686,2.504,10.5152,80,0,
221.366,6.85577,2.52686,2.504,10.5152,80,0,
221.366,6.85577,2.52533,2.504,10.5152,80,0,
221.366,6.85577,2.52838,2.504,10.5152,80,0,
221.366,6.85547,2.52991,2.504,10.5152,80,0,
221.366,6.85547,2.52991,2.504,10.5152,80,0,
221.366,6.85516,2.52991,2.504,10.5152,80,0,
221.366,6.85577,2.52838,2.504,10.5152,80,0,
221.366,6.85547,2.52838,2.504,10.5152,80,0,
221.366,6.85486,2.52991,2.504,10.5152,80,0,
221.366,6.85608,2.52686,2.504,10.5152,80,0,
221.366,6.85516,2.52533,2.504,10.5152,80,0,
221.366,6.85486,2.52991,2.504,10.5152,80,0,
221.366,6.8512,2.52838,2.504,10.5152,80,0,
221.366,6.8512,2.52533,2.504,10.5152,80,0,
221.366,6.85089,2.52838,2.504,10.5152,80,0,
221.366,6.85059,2.52991,2.504,10.5152,80,0,
221.366,6.84998,2.52686,2.504,10.5152,80,0,
221.366,6.85059,2.52533,2.504,10.5152,80,0,
221.366,6.85089,2.52838,2.504,10.5152,80,0,
221.366,6.85089,2.52686,2.504,10.5152,80,0,
221.366,6.85059,2.52838,2.504,10.5152,80,0,
221.366,6.84601,2.52686,2.504,10.5152,80,0,
221.367,6.84601,2.52991,2.504,10.5152,80,0,
221.367,6.84601,2.52533,2.504,10.5152,80,0,
221.367,6.8457,2.52533,2.504,10.5152,80,0,
221.367,6.84601,2.52686,2.504,10.5152,80,0,
221.367,6.8454,2.52686,2.504,10.5152,80,0,
221.367,6.8457,2.52991,2.504,10.5152,80,0,
221.367,6.84601,2.52838,2.504,10.5152,80,0,
221.367,6.84143,2.52838,2.504,10.5152,80,0,
221.367,6.84174,2.52838,2.504,10.5152,80,0,
221.367,6.84082,2.52838,2.504,10.5152,80,0,
221.367,6.84052,2.52686,2.504,10.5152,80,0,
221.367,6.84113,2.52991,2.504,10.5152,80,0,
221.367,6.84143,2.52838,2.504,10.5152,80,0,
221.367,6.83838,2.52533,2.504,10.5152,80,0,
221.367,6.83624,2.52686,2.504,10.5152,80,0,
221.367,6.83624,2.52991,2.504,10.5152,80,0,
221.367,6.83624,2.52838,2.504,10.5152,80,0,
221.367,6.83594,2.52838,2.504,10.5152,80,0,
221.367,6.83594,2.52838,2.504,10.5152,80,0,
221.367,6.83319,2.52686,2.504,10.5152,80,0,
221.367,6.83105,2.52991,2.504,10.5152,80,0,
221.367,6.83105,2.52838,2.504,10.5152,80,0,
221.367,6.83075,2.52838,2.504,10.5152,80,0,
221.367,6.83075,2.52838,2.504,10.5152,80,0,
221.367,6.83136,2.52228,2.504,10.5152,80,0,
221.367,6.82617,2.52533,2.504,10.5152,80,0,
221.367,6.82678,2.52991,2.504,10.5152,80,0,
221.367,6.82617,2.53296,2.504,10.5152,80,0,
221.367,6.82648,2.5238,2.504,10.5152,80,0,
221.367,6.82617,2.52838,2.504,10.5152,80,0,
221.368,6.82068,2.52838,2.504,10.5152,80,0,
221.368,6.82068,2.52686,2.504,10.5152,80,0,
221.368,6.82159,2.52686,2.504,10.5152,80,0,
221.368,6.82159,2.52838,2.504,10.5152,80,0,
221.368,6.82159,2.52991,2.504,10.5152,80,0,
221.368,6.81641,2.52686,2.504,10.5152,80,0,
221.368,6.8161,2.52686,2.504,10.5152,80,0,
221.368,6.8161,2.52686,2.504,10.5152,80,0,
221.368,6.81671,2.52838,2.504,10.5152,80,0,
221.368,6.81122,2.52533,2.504,10.5152,80,0,
221.368,6.81091,2.52991,2.504,10.5152,80,0,
221.368,6.81122,2.52686,2.504,10.5152,80,0,
221.368,6.81183,2.52686,2.504,10.5152,80,0,
221.368,6.80756,2.52838,2.504,10.5152,80,0,
221.368,6.80634,2.52838,2.504,10.5152,80,0,
221.368,6.80634,2.52838,2.504,10.5152,80,0,
221.368,6.80756,2.52838,2.504,10.5152,80,0,
221.368,6.80176,2.52533,2.504,10.5152,80,0,
221.368,6.80176,2.52686,2.504,10.5152,80,0,
221.368,6.80145,2.52838,2.504,10.5152,80,0,
221.368,6.79688,2.53143,2.504,10.5152,80,0,
221.368,6.79718,2.52991,2.504,10.5152,80,0,
221.368,6.79596,2.52991,2.504,10.5152,80,0,
221.368,6.79413,2.52838,2.504,10.5152,80,0,
221.368,6.79169,2.52838,2.504,10.5152,80,0,
221.368,6.7926,2.52838,2.504,10.5152,80,0,
221.368,6.79108,2.52686,2.504,10.5152,80,0,
221.368,6.78741,2.52838,2.504,10.5152,80,0,
221.368,6.78741,2.52838,2.504,10.5152,80,0,
221.368,6.78741,2.52991,2.504,10.5152,80,0,
221.369,6.78162,2.52991,2.504,10.5152,80,0,
221.369,6.78223,2.53143,2.504,10.5152,80,0,
221.369,6.78162,2.5238,2.504,10.5152,80,0,
221.369,6.77673,2.52533,2.504,10.5152,80,0,
221.369,6.77673,2.53143,2.504,10.5152,80,0,
221.369,6.77704,2.52991,2.504,10.5152,80,0,
221.369,6.77185,2.52991,2.504,10.5152,80,0,
221.369,6.77216,2.52533,2.504,10.5152,80,0,
221.369,6.7691,2.52533,2.504,10.5152,80,0,
221.369,6.76819,2.53143,2.504,10.5152,80,0,
221.369,6.76697,2.52686,2.504,10.5152,80,0,
221.369,6.76208,2.52838,2.504,10.5152,80,0,
221.369,6.7627,2.52838,2.504,10.5152,80,0,
221.369,6.76208,2.52838,2.504,10.5152,80,0,
221.369,6.7572,2.52686,2.504,10.5152,80,0,
221.369,6.75812,2.52686,2.504,10.5152,80,0,
221.369,6.75385,2.52686,2.504,10.5152,80,0,
221.369,6.75262,2.52533,2.504,10.5152,80,0,
221.369,6.75293,2.52533,2.504,10.5152,80,0,
221.369,6.74805,2.52686,2.504,10.5152,80,0,
221.369,6.74774,2.52991,2.504,10.5152,80,0,
221.369,6.74316,2.52686,2.504,10.5152,80,0,
221.369,6.74316,2.52991,2.504,10.5152,80,0,
221.369,6.7395,2.52838,2.504,10.5152,80,0,
221.369,6.73767,2.52838,2.504,10.5152,80,0,
221.369,6.73828,2.52686,2.504,10.5152,80,0,
221.369,6.7334,2.52991,2.504,10.5152,80,0,
221.369,6.73218,2.52991,2.504,10.5152,80,0,
221.369,6.72852,2.52686,2.504,10.5152,80,0,
221.369,6.72791,2.52686,2.504,10.5152,80,0,
221.369,6.72394,2.52838,2.504,10.5152,80,0,
221.37,6.72394,2.52686,2.504,10.5152,80,0,
221.37,6.71967,2.52991,2.504,10.5152,80,0,
221.37,6.71814,2.52686,2.504,10.5152,80,0,
221.37,6.71631,2.52228,2.504,10.5152,80,0,
221.37,6.71387,2.52686,2.504,10.5152,80,0,
221.37,6.71326,2.52838,2.504,10.5152,80,0,
221.37,6.70898,2.52991,2.504,10.5152,80,0,
221.37,6.70807,2.52991,2.504,10.5152,80,0,
221.37,6.70349,2.52838,2.504,10.5152,80,0,
221.37,6.7038,2.52686,2.504,10.5152,80,0,
221.37,6.69952,2.53143,2.504,10.5152,80,0,
221.37,6.69861,2.52991,2.504,10.5152,80,0,
221.37,6.69434,2.52686,2.504,10.5152,80,0,
221.37,6.69434,2.53143,2.504,10.5152,80,0,
221.37,6.68854,2.52686,2.504,10.5152,80,0,
221.37,6.68945,2.52686,2.504,10.5152,80,0,
221.37,6.68427,2.52686,2.504,10.5152,80,0,
221.37,6.68427,2.52838,2.504,10.5152,80,0,
221.37,6.67877,2.52991,2.504,10.5152,80,0,
221.37,6.67847,2.52838,2.504,10.5152,80,0,
221.37,6.67358,2.52838,2.504,10.5152,80,0,
221.37,6.67145,2.52991,2.504,10.5152,80,0,
221.37,6.66931,2.52686,2.504,10.5152,80,0,
221.37,6.66626,2.52991,2.504,10.5152,80,0,
221.37,6.66504,2.52838,2.504,10.5152,80,0,
221.37,6.66107,2.52533,2.504,10.5152,80,0,
221.37,6.65924,2.52686,2.504,10.5152,80,0,
221.37,6.65497,2.52991,2.504,10.5152,80,0,
221.37,6.65466,2.52686,2.504,10.5152,80,0,
221.37,6.64948,2.52991,2.504,10.5152,80,0,
221.371,6.64948,2.53296,2.504,10.5152,80,0,
221.371,6.64459,2.52686,2.504,10.5152,80,0,
221.371,6.64459,2.52686,2.504,10.5152,80,0,
221.371,6.64062,2.52686,2.504,10.5152,80,0,
221.371,6.63757,2.52533,2.504,10.5152,80,0,
221.371,6.63513,2.53143,2.504,10.5152,80,0,
221.371,6.63208,2.52838,2.504,10.5152,80,0,
221.371,6.63025,2.52686,2.504,10.5152,80,0,
221.371,6.62598,2.52686,2.504,10.5152,80,0,
221.371,6.62506,2.52838,2.504,10.5152,80,0,
221.371,6.62048,2.52838,2.504,10.5152,80,0,
221.371,6.62048,2.52686,2.504,10.5152,80,0,
221.371,6.61499,2.52838,2.504,10.5152,80,0,
221.371,6.61255,2.52838,2.504,10.5152,80,0,
221.371,6.6098,2.52991,2.504,10.5152,80,0,
221.371,6.60553,2.52838,2.504,10.5152,80,0,
221.371,6.60583,2.52991,2.504,10.5152,80,0,
221.371,6.60095,2.52533,2.504,10.5152,80,0,
221.371,6.60034,2.53296,2.504,10.5152,80,0,
221.371,6.59515,2.53296,2.504,10.5152,80,0,
221.371,6.59363,2.52838,2.504,10.5152,80,0,
221.371,6.59088,2.53296,2.504,10.5152,80,0,
221.371,6.586,2.52991,2.504,10.5152,80,0,
221.371,6.586,2.52838,2.504,10.5152,80,0,
221.371,6.58142,2.52991,2.504,10.5152,80,0,
221.371,6.5802,2.52838,2.504,10.5152,80,0,
221.371,6.57623,2.52991,2.504,10.5152,80,0,
221.371,6.57379,2.52838,2.504,10.5152,80,0,
221.371,6.57043,2.52838,2.504,10.5152,80,0,
221.371,6.56616,2.52838,2.504,10.5152,80,0,
221.372,6.56586,2.52838,2.504,10.5152,80,0,
221.372,6.56128,2.52686,2.504,10.5152,80,0,
221.372,6.55945,2.52838,2.504,10.5152,80,0,
221.372,6.55701,2.52686,2.504,10.5152,80,0,
221.372,6.55243,2.52838,2.504,10.5152,80,0,
221.372,6.55151,2.52686,2.504,10.5152,80,0,
221.372,6.54724,2.52991,2.504,10.5152,80,0,
221.372,6.54694,2.52686,2.504,10.5152,80,0,
221.372,6.54205,2.52686,2.504,10.5152,80,0,
221.372,6.53748,2.53143,2.504,10.5152,80,0,
221.372,6.53717,2.52686,2.504,10.5152,80,0,
221.372,6.53198,2.52686,2.504,10.5152,80,0,
221.372,6.53168,2.53449,2.504,10.5152,80,0,
221.372,6.5271,2.52838,2.504,10.5152,80,0,
221.372,6.52466,2.52686,2.504,10.5152,80,0,
221.372,6.52222,2.52838,2.504,10.5152,80,0,
221.372,6.51733,2.52838,2.504,10.5152,80,0,
221.372,6.51703,2.52686,2.504,10.5152,80,0,
221.372,6.51215,2.52991,2.504,10.5152,80,0,
221.372,6.51001,2.52991,2.504,10.5152,80,0,
221.372,6.50787,2.52991,2.504,10.5152,80,0,
221.372,6.50299,2.52838,2.504,10.5152,80,0,
221.372,6.50299,2.52533,2.504,10.5152,80,0,
221.372,6.4975,2.52686,2.504,10.5152,80,0,
221.372,6.49475,2.53143,2.504,10.5152,80,0,
221.372,6.49292,2.52686,2.504,10.5152,80,0,
221.372,6.48834,2.52838,2.504,10.5152,80,0,
221.372,6.48804,2.52838,2.504,10.5152,80,0,
221.372,6.48346,2.52838,2.504,10.5152,80,0,
221.373,6.4798,2.52991,2.504,10.5152,80,0,
221.373,6.47797,2.52838,2.504,10.5152,80,0,
221.373,6.474,2.52838,2.504,10.5152,80,0,
221.373,6.47247,2.52533,2.504,10.5152,80,0,
221.373,6.46851,2.52686,2.504,10.5152,80,0,
221.373,6.46545,2.52838,2.504,10.5152,80,0,
221.373,6.46332,2.52838,2.504,10.5152,80,0,
221.373,6.45935,2.52686,2.504,10.5152,80,0,
221.373,6.45844,2.52991,2.504,10.5152,80,0,
221.373,6.45386,2.52686,2.504,10.5152,80,0,
221.373,6.45081,2.52991,2.504,10.5152,80,0,
221.373,6.44867,2.52838,2.504,10.5152,80,0,
221.373,6.4444,2.52991,2.504,10.5152,80,0,
221.373,6.44348,2.52838,2.504,10.5152,80,0,
221.373,6.43829,2.52533,2.504,10.5152,80,0,
221.373,6.43616,2.53143,2.504,10.5152,80,0,
221.373,6.43402,2.52686,2.504,10.5152,80,0,
221.373,6.42914,2.52686,2.504,10.5152,80,0,
221.373,6.42975,2.52991,2.504,10.5152,80,0,
221.373,6.42426,2.52991,2.504,10.5152,80,0,
221.373,6.42151,2.52838,2.504,10.5152,80,0,
221.373,6.41876,2.52686,2.504,10.5152,80,0,
221.373,6.41449,2.52991,2.504,10.5152,80,0,
221.373,6.41418,2.52991,2.504,10.5152,80,0,
221.373,6.409,2.52686,2.504,10.5152,80,0,
221.373,6.40594,2.53296,2.504,10.5152,80,0,
221.373,6.40442,2.52686,2.504,10.5152,80,0,
221.373,6.40045,2.53143,2.504,10.5152,80,0,
221.373,6.40015,2.52838,2.504,10.5152,80,0,
221.373,6.39526,2.52686,2.504,10.5152,80,0,
221.374,6.39038,2.52991,2.504,10.5152,80,0,
221.374,6.39008,2.52838,2.504,10.5152,80,0,
221.374,6.3855,2.52838,2.504,10.5152,80,0,
221.374,6.38245,2.52686,2.504,10.5152,80,0,
221.374,6.38062,2.52686,2.504,10.5152,80,0,
221.374,6.37604,2.52991,2.504,10.5152,80,0,
221.374,6.37573,2.52533,2.504,10.5152,80,0,
221.374,6.37054,2.52838,2.504,10.5152,80,0,
221.374,6.36719,2.52686,2.504,10.5152,80,0,
221.374,6.36566,2.52991,2.504,10.5152,80,0,
221.374,6.36078,2.52686,2.504,10.5152,80,0,
221.374,6.36108,2.52838,2.504,10.5152,80,0,
221.374,6.35559,2.53143,2.504,10.5152,80,0,
221.374,6.35254,2.52838,2.504,10.5152,80,0,
221.374,6.35071,2.52686,2.504,10.5152,80,0,
221.374,6.34613,2.52838,2.504,10.5152,80,0,
221.374,6.34521,2.52686,2.504,10.5152,80,0,
221.374,6.34064,2.52686,2.504,10.5152,80,0,
221.374,6.34125,2.52686,2.504,10.5152,80,0,
221.374,6.33636,2.52991,2.504,10.5152,80,0,
221.374,6.33362,2.52533,2.504,10.5152,80,0,
221.374,6.33118,2.52838,2.504,10.5152,80,0,
221.374,6.32599,2.52686,2.504,10.5152,80,0,
221.374,6.3269,2.52838,2.504,10.5152,80,0,
221.374,6.32141,2.52533,2.504,10.5152,80,0,
221.374,6.31897,2.52838,2.504,10.5152,80,0,
221.374,6.31653,2.52686,2.504,10.5152,80,0,
221.374,6.31195,2.52686,2.504,10.5152,80,0,
221.374,6.31165,2.53143,2.504,10.5152,80,0,
221.374,6.30676,2.52686,2.504,10.5152,80,0,
221.375,6.30707,2.52991,2.504,10.5152,80,0,
221.375,6.30157,2.52838,2.504,10.5152,80,0,
221.375,6.29974,2.52991,2.504,10.5152,80,0,
221.375,6.29669,2.53143,2.504,10.5152,80,0,
221.375,6.29242,2.52686,2.504,10.5152,80,0,
221.375,6.29272,2.52838,2.504,10.5152,80,0,
221.375,6.28723,2.5238,2.504,10.5152,80,0,
221.375,6.28632,2.52686,2.504,10.5152,80,0,
221.375,6.28204,2.52991,2.504,10.5152,80,0,
221.375,6.2796,2.52838,2.504,10.5152,80,0,
221.375,6.27686,2.52686,2.504,10.5152,80,0,
221.375,6.27472,2.52686,2.504,10.5152,80,0,
221.375,6.27258,2.52991,2.504,10.5152,80,0,
221.375,6.26862,2.52686,2.504,10.5152,80,0,
221.375,6.2674,2.53143,2.504,10.5152,80,0,
221.375,6.26282,2.52838,2.504,10.5152,80,0,
221.375,6.26221,2.52686,2.504,10.5152,80,0,
221.375,6.25824,2.52838,2.504,10.5152,80,0,
221.375,6.25763,2.53296,2.504,10.5152,80,0,
221.375,6.25244,2.52838,2.504,10.5152,80,0,
221.375,6.25305,2.52838,2.504,10.5152,80,0,
221.375,6.24817,2.52991,2.504,10.5152,80,0,
221.375,6.24542,2.52533,2.504,10.5152,80,0,
221.375,6.24359,2.52991,2.504,10.5152,80,0,
221.375,6.24023,2.53143,2.504,10.5152,80,0,
221.375,6.2381,2.52838,2.504,10.5152,80,0,
221.375,6.23657,2.52686,2.504,10.5152,80,0,
221.375,6.23291,2.52838,2.504,10.5152,80,0,
221.375,6.22925,2.52991,2.504,10.5152,80,0,
221.375,6.22894,2.52533,2.504,10.5152,80,0,
221.375,6.22437,2.52686,2.504,10.5152,80,0,
221.376,6.22345,2.52838,2.504,10.5152,80,0,
221.376,6.21948,2.52838,2.504,10.5152,80,0,
221.376,6.21826,2.52838,2.504,10.5152,80,0,
221.376,6.21429,2.52686,2.504,10.5152,80,0,
221.376,6.21429,2.52838,2.504,10.5152,80,0,
221.376,6.20941,2.52838,2.504,10.5152,80,0,
221.376,6.20941,2.52686,2.504,10.5152,80,0,
221.376,6.20483,2.52991,2.504,10.5152,80,0,
221.376,6.20453,2.52686,2.504,10.5152,80,0,
221.376,6.20117,2.52991,2.504,10.5152,80,0,
221.376,6.19965,2.52686,2.504,10.5152,80,0,
221.376,6.19598,2.52991,2.504,10.5152,80,0,
221.376,6.19354,2.52686,2.504,10.5152,80,0,
221.376,6.1911,2.52838,2.504,10.5152,80,0,
221.376,6.18927,2.52991,2.504,10.5152,80,0,
221.376,6.18958,2.52838,2.504,10.5152,80,0,
221.376,6.18439,2.52991,2.504,10.5152,80,0,
221.376,6.18469,2.52838,2.504,10.5152,80,0,
221.376,6.1795,2.52686,2.504,10.5152,80,0,
221.376,6.1792,2.52533,2.504,10.5152,80,0,
221.376,6.17493,2.52686,2.504,10.5152,80,0,
221.376,6.17432,2.52533,2.504,10.5152,80,0,
221.376,6.17065,2.52686,2.504,10.5152,80,0,
221.376,6.17004,2.52686,2.504,10.5152,80,0,
221.376,6.16699,2.52838,2.504,10.5152,80,0,
221.376,6.16425,2.53143,2.504,10.5152,80,0,
221.376,6.16455,2.5238,2.504,10.5152,80,0,
221.376,6.15997,2.52838,2.504,10.5152,80,0,
221.376,6.15967,2.52686,2.504,10.5152,80,0,
221.376,6.15509,2.53296,2.504,10.5152,80,0,
221.377,6.15509,2.52838,2.504,10.5152,80,0,
221.377,6.15082,2.52686,2.504,10.5152,80,0,
221.377,6.15021,2.52686,2.504,10.5152,80,0,
221.377,6.14777,2.52533,2.504,10.5152,80,0,
221.377,6.14502,2.52838,2.504,10.5152,80,0,
221.377,6.14532,2.52533,2.504,10.5152,80,0,
221.377,6.14044,2.52991,2.504,10.5152,80,0,
221.377,6.14014,2.52838,2.504,10.5152,80,0,
221.377,6.13586,2.52686,2.504,10.5152,80,0,
221.377,6.13617,2.52838,2.504,10.5152,80,0,
221.377,6.13251,2.52686,2.504,10.5152,80,0,
221.377,6.13068,2.5238,0,10.5152,80,0,
221.377,6.13007,2.52686,0,10.5152,80,0,
221.377,6.12579,2.52838,0,10.5152,80,0,
221.377,6.1261,2.52991,0,10.5152,80,0,
221.377,6.12305,2.52686,0,10.5152,80,0,
221.377,6.12091,2.52838,0,10.5152,80,0,
221.377,6.12061,2.52991,0,10.5152,80,0,
221.377,6.11603,2.52686,0,10.5152,80,0,
221.377,6.11511,2.52838,0,10.5152,80,0,
221.377,6.11145,2.52533,0,10.5152,80,0,
221.377,6.11053,2.52838,0,10.5152,80,0,
221.377,6.11084,2.52991,0,10.5152,80,0,
221.377,6.10535,2.52686,0,10.5152,80,0,
221.377,6.10687,2.52838,0,10.5152,80,0,
221.377,6.1026,2.52533,0,10.5152,80,0,
221.377,6.10077,2.52686,0,10.5152,80,0,
221.377,6.10077,2.53143,0,10.5152,80,0,
221.377,6.0965,2.52533,0,10.5152,80,0,
221.377,6.09589,2.52991,0,10.5152,80,0,
221.378,6.09406,2.52686,0,10.5152,80,0,
221.378,6.09161,2.52838,0,10.5152,80,0,
221.378,6.09131,2.52686,0,10.5152,80,0,
221.378,6.08704,2.52686,0,10.5152,80,0,
221.378,6.08673,2.52686,0,10.5152,80,0,
221.378,6.08643,2.52991,0,10.5152,80,0,
221.378,6.08215,2.52838,0,10.5152,80,0,
221.378,6.08154,2.52686,0,10.5152,80,0,
221.378,6.08215,2.52533,0,10.5152,80,0,
221.378,6.07635,2.52991,0,10.5152,80,0,
221.378,6.07697,2.52838,0,10.5152,80,0,
221.378,6.0733,2.52838,0,10.5152,80,0,
221.378,6.07269,2.52991,0,10.5152,80,0,
221.378,6.07208,2.52686,0,10.5152,80,0,
221.378,6.0672,2.52838,0,10.5152,80,0,
221.378,6.0672,2.52838,0,10.5152,80,0,
221.378,6.0672,2.53143,0,10.5152,80,0,
221.378,6.06262,2.52686,0,10.5152,80,0,
221.378,6.06232,2.52991,0,10.5152,80,0,
221.378,6.06201,2.52686,0,10.5152,80,0,
221.378,6.05774,2.5238,0,10.5152,80,0,
221.378,6.05682,2.52991,0,10.5152,80,0,
221.378,6.05682,2.52991,0,10.5152,80,0,
221.378,6.05316,2.52838,0,10.5152,80,0,
221.378,6.05286,2.52533,0,10.5152,80,0,
221.378,6.05164,2.52838,0,10.5152,80,0,
221.378,6.04797,2.52991,0,10.5152,80,0,
221.378,6.04767,2.52686,0,10.5152,80,0,
221.378,6.04797,2.53143,0,10.5152,80,0,
221.379,6.04431,2.52838,0,10.5152,80,0,
221.379,6.04279,2.52991,0,10.5152,80,0,
221.379,6.04309,2.52991,0,10.5152,80,0,
221.379,6.04279,2.52838,0,10.5152,80,0,
221.379,6.0376,2.52686,0,10.5152,80,0,
221.379,6.0376,2.52075,0,10.5152,80,0,
221.379,6.0379,2.52686,0,10.5152,80,0,
221.379,6.03302,2.52838,0,10.5152,80,0,
221.379,6.03241,2.52838,0,10.5152,80,0,
221.379,6.03241,2.52838,0,10.5152,80,0,
221.379,6.02997,2.52991,0,10.5152,80,0,
221.379,6.02783,2.52838,0,10.5152,80,0,
221.379,6.02753,2.52991,0,10.5152,80,0,
221.379,6.02783,2.52686,0,10.5152,80,0,
221.379,6.02325,2.52686,0,10.5152,80,0,
221.379,6.02264,2.52686,0,10.5152,80,0,
221.379,6.02234,2.52533,0,10.5152,80,0,
221.379,6.01959,2.52686,0,10.5152,80,0,
221.379,6.01776,2.52686,0,10.5152,80,0,
221.379,6.01715,2.52838,0,10.5152,80,0,
221.379,6.01807,2.52686,0,10.5152,80,0,
221.379,6.01379,2.52686,0,10.5152,80,0,
221.379,6.01318,2.53143,0,10.5152,80,0,
221.379,6.01288,2.52686,0,10.5152,80,0,
221.379,6.01288,2.52991,0,10.5152,80,0,
221.379,6.0083,2.52838,0,10.5152,80,0,
221.379,6.008,2.52991,0,10.5152,80,0,
221.379,6.008,2.52686,0,10.5152,80,0,
221.379,6.00861,2.53449,0,10.5152,80,0,
221.379,6.00342,2.52838,0,10.5152,80,0,
221.38,6.00311,2.52991,0,10.5152,80,0,
221.38,6.00311,2.52686,0,10.5152,80,0,
221.38,6.00281,2.5238,0,10.5152,80,0,
221.38,5.99884,2.52838,0,10.5152,80,0,
221.38,5.99854,2.52686,0,10.5152,80,0,
221.38,5.99731,2.52686,0,10.5152,80,0,
221.38,5.99854,2.52228,0,10.5152,80,0,
221.38,5.99579,2.52991,0,10.5152,80,0,
221.38,5.99335,2.52991,0,10.5152,80,0,
221.38,5.99365,2.52838,0,10.5152,80,0,
221.38,5.99304,2.53143,0,10.5152,80,0,
221.38,5.99335,2.52991,0,10.5152,80,0,
221.38,5.98877,2.52838,0,10.5152,80,0,
221.38,5.98877,2.52686,0,10.5152,80,0,
221.38,5.98907,2.52686,0,10.5152,80,0,
221.38,5.98816,2.52686,0,10.5152,80,0,
221.38,5.98877,2.52686,0,10.5152,80,0,
221.38,5.98419,2.53143,0,10.5152,80,0,
221.38,5.98328,2.52838,0,10.5152,80,0,
221.38,5.98328,2.52991,0,10.5152,80,0,
221.38,5.98389,2.52838,0,10.5152,80,0,
221.38,5.98328,2.52838,0,10.5152,80,0,
221.38,5.97961,2.52838,0,10.5152,80,0,
221.38,5.979,2.52686,0,10.5152,80,0,
221.38,5.9787,2.53143,0,10.5152,80,0,
221.38,5.97961,2.52838,0,10.5152,80,0,
221.38,5.9787,2.52686,0,10.5152,80,0,
221.38,5.97473,2.52838,0,10.5152,80,0,
221.38,5.97412,2.52686,0,10.5152,80,0,
221.38,5.97473,2.52686,0,10.5152,80,0,
221.381,5.97412,2.52838,0,10.5152,80,0,
221.381,5.97351,2.52991,0,10.5152,80,0,
221.381,5.97351,2.52686,0,10.5152,80,0,
221.381,5.96893,2.52991,0,10.5152,80,0,
221.381,5.96924,2.52991,0,10.5152,80,0,
221.381,5.96771,2.52991,0,10.5152,80,0,
221.381,5.96832,2.52686,0,10.5152,80,0,
221.381,5.96863,2.52838,0,10.5152,80,0,
221.381,5.96771,2.52991,0,10.5152,80,0,
221.381,5.96497,2.52686,0,10.5152,80,0,
221.381,5.96405,2.5238,0,10.5152,80,0,
221.381,5.96375,2.52838,0,10.5152,80,0,
221.381,5.96405,2.53296,0,10.5152,80,0,
221.381,5.96313,2.5238,0,10.5152,80,0,
221.381,5.96375,2.52686,0,10.5152,80,0,
221.381,5.96405,2.52533,0,10.5152,80,0,
221.381,5.96039,2.52838,0,10.5152,80,0,
221.381,5.95856,2.52838,0,10.5152,80,0,
221.381,5.95856,2.52686,2.496,10.5152,80,0,
221.381,5.95886,2.52991,2.496,10.5152,80,0,
221.381,5.95978,2.52686,2.496,10.5152,80,0,
221.381,5.95917,2.52686,2.496,10.5152,80,0,
221.381,5.95856,2.52991,2.496,10.5152,80,0,
221.381,5.95917,2.53143,2.496,10.5152,80,0,
221.381,5.95886,2.52838,2.496,10.5152,80,0,
221.381,5.95398,2.52838,2.496,10.5152,80,0,
221.381,5.95398,2.52838,2.496,10.5152,80,0,
221.381,5.95459,2.52686,2.496,10.5152,80,0,
221.381,5.95398,2.52838,2.496,10.5152,80,0,
221.381,5.95398,2.52838,2.496,10.5152,80,0,
221.381,5.9549,2.5238,2.496,10.5152,80,0,
221.382,5.95398,2.52991,2.496,10.5152,80,0,
221.382,5.9549,2.5238,2.496,10.5152,80,0,
221.382,5.95459,2.52533,2.496,10.5152,80,0,
221.382,5.95459,2.52838,2.496,10.5152,80,0,
221.382,5.95428,2.5238,2.496,10.5152,80,0,
221.382,5.95398,2.52838,2.496,10.5152,80,0,
221.382,5.95154,2.5238,2.496,10.5152,80,0,
221.382,5.9494,2.52686,2.496,10.5152,80,0,
221.382,5.95032,2.52686,2.496,10.5152,80,0,
221.382,5.94971,2.52686,2.496,10.5152,80,0,
221.382,5.95001,2.5238,2.496,10.5152,80,0,
221.382,5.94971,2.52686,2.496,10.5152,80,0,
221.382,5.9491,2.52838,2.496,10.5152,80,0,
221.382,5.95001,2.52533,2.496,10.5152,80,0,
221.382,5.9491,2.52686,2.496,10.5152,80,0,
221.382,5.9494,2.52686,2.496,10.5152,80,0,
221.382,5.9494,2.52838,2.496,10.5152,80,0,
221.382,5.94879,2.52838,2.496,10.5152,80,0,
221.382,5.94971,2.52533,2.496,10.5152,80,0,
221.382,5.9494,2.53143,2.496,10.5152,80,0,
221.382,5.9494,2.52838,2.496,10.5152,80,0,
221.382,5.95001,2.52686,2.496,10.5152,80,0,
221.382,5.94971,2.52838,2.496,10.5152,80,0,
221.382,5.94879,2.52686,2.496,10.5152,80,0,
221.382,5.9494,2.52838,2.496,10.5152,80,0,
221.382,5.94849,2.52838,2.496,10.5152,80,0,
221.382,5.9491,2.52838,2.496,10.5152,80,0,
221.382,5.94971,2.52686,2.496,10.5152,80,0,
221.382,5.94971,2.52686,2.496,10.5152,80,0,
221.382,5.9494,2.52991,2.496,10.5152,80,0,
221.383,5.9494,2.53143,2.496,10.5152,80,0,
221.383,5.9494,2.52686,2.496,10.5152,80,0,
221.383,5.9491,2.52991,2.496,10.5152,80,0,
221.383,5.94879,2.52533,2.496,10.5152,80,0,
221.383,5.94879,2.52838,2.496,10.5152,80,0,
221.383,5.9491,2.52686,2.496,10.5152,80,0,
221.383,5.95367,2.52686,2.496,10.5152,80,0,
221.383,5.95428,2.53143,2.496,10.5152,80,0,
221.383,5.95367,2.53143,2.496,10.5152,80,0,
221.383,5.95398,2.52838,2.496,10.5152,80,0,
221.383,5.95367,2.52686,2.496,10.5152,80,0,
221.383,5.95398,2.52838,2.496,10.5152,80,0,
221.383,5.95398,2.52838,2.496,10.5152,80,0,
221.383,5.95459,2.52533,2.496,10.5152,80,0,
221.383,5.95398,2.5238,2.496,10.5152,80,0,
221.383,5.95795,2.52533,2.496,10.5152,80,0,
221.383,5.95947,2.52838,2.496,10.5152,80,0,
221.383,5.95917,2.52533,2.496,10.5152,80,0,
221.383,5.95917,2.52838,2.496,10.5152,80,0,
221.383,5.95947,2.5238,2.496,10.5152,80,0,
221.383,5.95917,2.52991,2.496,10.5152,80,0,
221.383,5.961,2.52686,2.496,10.5152,80,0,
221.383,5.96436,2.52838,2.496,10.5152,80,0,
221.383,5.96405,2.52838,2.496,10.5152,80,0,
221.383,5.96405,2.52838,2.496,10.5152,80,0,
221.383,5.96375,2.52686,2.496,10.5152,80,0,
221.383,5.96436,2.52838,2.496,10.5152,80,0,
221.383,5.96893,2.52686,2.496,10.5152,80,0,
221.383,5.96924,2.52838,2.496,10.5152,80,0,
221.383,5.96832,2.52991,2.496,10.5152,80,0,
221.384,5.96924,2.52686,2.496,10.5152,80,0,
221.384,5.97137,2.52991,2.496,10.5152,80,0,
221.384,5.97351,2.53143,2.496,10.5152,80,0,
221.384,5.97382,2.52686,2.496,10.5152,80,0,
221.384,5.97351,2.52533,2.496,10.5152,80,0,
221.384,5.97687,2.52991,2.496,10.5152,80,0,
221.384,5.97931,2.52838,2.496,10.5152,80,0,
221.384,5.97839,2.52991,2.496,10.5152,80,0,
221.384,5.97839,2.52838,2.496,10.5152,80,0,
221.384,5.98297,2.52533,2.496,10.5152,80,0,
221.384,5.98328,2.52838,2.496,10.5152,80,0,
221.384,5.98389,2.52838,2.496,10.5152,80,0,
221.384,5.98328,2.52838,2.496,10.5152,80,0,
221.384,5.98846,2.52686,2.496,10.5152,80,0,
221.384,5.98907,2.52686,2.496,10.5152,80,0,
221.384,5.98846,2.52686,2.496,10.5152,80,0,
221.384,5.99274,2.52838,2.496,10.5152,80,0,
221.384,5.99304,2.53296,2.496,10.5152,80,0,
221.384,5.99335,2.52228,2.496,10.5152,80,0,
221.384,5.99854,2.53296,2.496,10.5152,80,0,
221.384,5.99823,2.5238,2.496,10.5152,80,0,
221.384,5.99915,2.52533,2.496,10.5152,80,0,
221.384,6.00311,2.52686,2.496,10.5152,80,0,
221.384,6.00372,2.52838,2.496,10.5152,80,0,
221.384,6.00342,2.52838,2.496,10.5152,80,0,
221.384,6.00739,2.52686,2.496,10.5152,80,0,
221.384,6.0083,2.52991,2.496,10.5152,80,0,
221.384,6.0083,2.52686,2.496,10.5152,80,0,
221.384,6.01349,2.52686,2.496,10.5152,80,0,
221.385,6.01349,2.52686,2.496,10.5152,80,0,
221.385,6.01501,2.52838,2.496,10.5152,80,0,
221.385,6.01776,2.52686,2.496,10.5152,80,0,
221.385,6.01807,2.53143,2.496,10.5152,80,0,
221.385,6.02234,2.52533,2.496,10.5152,80,0,
221.385,6.02325,2.52838,2.496,10.5152,80,0,
221.385,6.026,2.52991,2.496,10.5152,80,0,
221.385,6.02844,2.52838,2.496,10.5152,80,0,
221.385,6.02753,2.52991,2.496,10.5152,80,0,
221.385,6.03271,2.52838,2.496,10.5152,80,0,
221.385,6.03302,2.52838,2.496,10.5152,80,0,
221.385,6.0376,2.52838,2.496,10.5152,80,0,
221.385,6.03729,2.52991,2.496,10.5152,80,0,
221.385,6.04034,2.52991,2.496,10.5152,80,0,
221.385,6.04187,2.5238,2.496,10.5152,80,0,
221.385,6.04309,2.52991,2.496,10.5152,80,0,
221.385,6.04706,2.52686,2.496,10.5152,80,0,
221.385,6.04736,2.52991,2.496,10.5152,80,0,
221.385,6.05255,2.52686,2.496,10.5152,80,0,
221.385,6.05255,2.53143,2.496,10.5152,80,0,
221.385,6.05682,2.52838,2.496,10.5152,80,0,
221.385,6.05682,2.52533,2.496,10.5152,80,0,
221.385,6.06201,2.52838,2.496,10.5152,80,0,
221.385,6.06232,2.5238,2.496,10.5152,80,0,
221.385,6.06659,2.52838,2.496,10.5152,80,0,
221.385,6.06689,2.52686,2.496,10.5152,80,0,
221.385,6.07056,2.52533,2.496,10.5152,80,0,
221.385,6.07239,2.52838,2.496,10.5152,80,0,
221.385,6.07635,2.52533,2.496,10.5152,80,0,
221.385,6.07697,2.53296,2.496,10.5152,80,0,
221.386,6.08093,2.52838,2.496,10.5152,80,0,
221.386,6.08124,2.52991,2.496,10.5152,80,0,
221.386,6.08643,2.52686,2.496,10.5152,80,0,
221.386,6.08612,2.53143,2.496,10.5152,80,0,
221.386,6.0907,2.52533,2.496,10.5152,80,0,
221.386,6.09131,2.52991,2.496,10.5152,80,0,
221.386,6.09619,2.52838,2.496,10.5152,80,0,
221.386,6.09528,2.52838,2.496,10.5152,80,0,
221.386,6.10107,2.52838,2.496,10.5152,80,0,
221.386,6.10138,2.5238,2.496,10.5152,80,0,
221.386,6.10596,2.52838,2.496,10.5152,80,0,
221.386,6.1087,2.52533,2.496,10.5152,80,0,
221.386,6.11053,2.52533,2.496,10.5152,80,0,
221.386,6.11511,2.5238,2.496,10.5152,80,0,
221.386,6.11572,2.52686,2.496,10.5152,80,0,
221.386,6.12,2.52533,2.496,10.5152,80,0,
221.386,6.12061,2.5238,2.496,10.5152,80,0,
221.386,6.1261,2.52686,2.496,10.5152,80,0,
221.386,6.12518,2.52838,2.496,10.5152,80,0,
221.386,6.13098,2.52838,2.496,10.5152,80,0,
221.386,6.13464,2.52838,2.496,10.5152,80,0,
221.386,6.13525,2.52838,2.496,10.5152,80,0,
221.386,6.14014,2.52686,2.496,10.5152,80,0,
221.386,6.14044,2.52838,2.496,10.5152,80,0,
221.386,6.14563,2.52686,2.496,10.5152,80,0,
221.386,6.14807,2.52686,2.496,10.5152,80,0,
221.386,6.15021,2.52838,2.496,10.5152,80,0,
221.386,6.15509,2.52686,2.496,10.5152,80,0,
221.386,6.15479,2.52838,2.496,10.5152,80,0,
221.386,6.15997,2.52838,2.496,10.5152,80,0,
221.387,6.16272,2.52533,2.496,10.5152,80,0,
221.387,6.16455,2.52686,2.496,10.5152,80,0,
221.387,6.17035,2.52533,2.496,10.5152,80,0,
221.387,6.16943,2.52686,2.496,10.5152,80,0,
221.387,6.17432,2.52686,2.496,10.5152,80,0,
221.387,6.17859,2.52991,2.496,10.5152,80,0,
221.387,6.18011,2.5238,2.496,10.5152,80,0,
221.387,6.18408,2.52838,2.496,10.5152,80,0,
221.387,6.18683,2.52686,2.496,10.5152,80,0,
221.387,6.18958,2.52838,2.496,10.5152,80,0,
221.387,6.19507,2.52991,2.496,10.5152,80,0,
221.387,6.19629,2.52838,2.496,10.5152,80,0,
221.387,6.19873,2.53296,2.496,10.5152,80,0,
221.387,6.203,2.52686,2.496,10.5152,80,0,
221.387,6.20361,2.52533,2.496,10.5152,80,0,
221.387,6.2085,2.52686,2.496,10.5152,80,0,
221.387,6.21307,2.52838,2.496,10.5152,80,0,
221.387,6.21399,2.52838,2.496,10.5152,80,0,
221.387,6.21918,2.52991,2.496,10.5152,80,0,
221.387,6.22284,2.52991,2.496,10.5152,80,0,
221.387,6.22345,2.52533,2.496,10.5152,80,0,
221.387,6.22864,2.52838,2.496,10.5152,80,0,
221.387,6.2326,2.52838,2.496,10.5152,80,0,
221.387,6.23383,2.52838,2.496,10.5152,80,0,
221.387,6.2384,2.52991,2.496,10.5152,80,0,
221.387,6.24268,2.52838,2.496,10.5152,80,0,
221.387,6.24603,2.52991,2.496,10.5152,80,0,
221.387,6.24817,2.52686,2.496,10.5152,80,0,
221.387,6.25305,2.52228,2.496,10.5152,80,0,
221.387,6.25549,2.52991,2.496,10.5152,80,0,
221.387,6.25702,2.53143,2.496,10.5152,80,0,
221.388,6.26251,2.52533,2.496,10.5152,80,0,
221.388,6.26709,2.52838,2.496,10.5152,80,0,
221.388,6.2674,2.52686,2.496,10.5152,80,0,
221.388,6.27289,2.52533,2.496,10.5152,80,0,
221.388,6.27686,2.52838,2.496,10.5152,80,0,
221.388,6.28021,2.52686,2.496,10.5152,80,0,
221.388,6.28235,2.52838,2.496,10.5152,80,0,
221.388,6.28693,2.52991,2.496,10.5152,80,0,
221.388,6.28998,2.52838,2.496,10.5152,80,0,
221.388,6.29211,2.52838,2.496,10.5152,80,0,
221.388,6.29639,2.52686,2.496,10.5152,80,0,
221.388,6.30127,2.52686,2.496,10.5152,80,0,
221.388,6.30463,2.52838,2.496,10.5152,80,0,
221.388,6.30646,2.52686,2.496,10.5152,80,0,
221.388,6.31165,2.52838,2.496,10.5152,80,0,
221.388,6.31653,2.52686,2.496,10.5152,80,0,
221.388,6.31653,2.52533,2.496,10.5152,80,0,
221.388,6.32141,2.52838,2.496,10.5152,80,0,
221.388,6.32629,2.52686,2.496,10.5152,80,0,
221.388,6.32935,2.52838,2.496,10.5152,80,0,
221.388,6.33118,2.5238,2.496,10.5152,80,0,
221.388,6.33575,2.52838,2.496,10.5152,80,0,
221.388,6.34094,2.52686,2.496,10.5152,80,0,
221.388,6.34369,2.52686,2.496,10.5152,80,0,
221.388,6.34552,2.53296,2.496,10.5152,80,0,
221.388,6.35101,2.52838,2.496,10.5152,80,0,
221.388,6.3559,2.52838,2.496,10.5152,80,0,
221.388,6.35864,2.52991,2.496,10.5152,80,0,
221.388,6.36078,2.52838,2.496,10.5152,80,0,
221.388,6.36566,2.52686,2.496,10.5152,80,0,
221.389,6.37054,2.52838,2.496,10.5152,80,0,
221.389,6.3736,2.52838,2.496,10.5152,80,0,
221.389,6.37543,2.52686,2.496,10.5152,80,0,
221.389,6.38031,2.52686,2.496,10.5152,80,0,
221.389,6.38367,2.52838,2.496,10.5152,80,0,
221.389,6.38824,2.52686,2.496,10.5152,80,0,
221.389,6.39008,2.52533,2.496,10.5152,80,0,
221.389,6.39496,2.52991,2.496,10.5152,80,0,
221.389,6.39954,2.53143,2.496,10.5152,80,0,
221.389,6.40289,2.52838,2.496,10.5152,80,0,
221.389,6.40472,2.52838,2.496,10.5152,80,0,
221.389,6.40991,2.52838,2.496,10.5152,80,0,
221.389,6.41418,2.52991,2.496,10.5152,80,0,
221.389,6.41785,2.52838,2.496,10.5152,80,0,
221.389,6.41968,2.52686,2.496,10.5152,80,0,
221.389,6.42456,2.52686,2.496,10.5152,80,0,
221.389,6.42883,2.52686,2.496,10.5152,80,0,
221.389,6.4328,2.52991,2.496,10.5152,80,0,
221.389,6.43402,2.52838,2.496,10.5152,80,0,
221.389,6.43951,2.52838,2.496,10.5152,80,0,
221.389,6.44287,2.52838,2.496,10.5152,80,0,
221.389,6.44623,2.52991,2.496,10.5152,80,0,
221.389,6.44867,2.5238,2.496,10.5152,80,0,
221.389,6.45416,2.52686,2.496,10.5152,80,0,
221.389,6.45813,2.52838,2.496,10.5152,80,0,
221.389,6.46149,2.52838,2.496,10.5152,80,0,
221.389,6.46423,2.52991,2.496,10.5152,80,0,
221.389,6.4679,2.52686,2.496,10.5152,80,0,
221.389,6.47339,2.52838,2.496,10.5152,80,0,
221.389,6.47675,2.52686,2.496,10.5152,80,0,
221.39,6.47858,2.52838,2.496,10.5152,80,0,
221.39,6.48315,2.52533,2.496,10.5152,80,0,
221.39,6.48773,2.52686,2.496,10.5152,80,0,
221.39,6.49078,2.52838,2.496,10.5152,80,0,
221.39,6.49292,2.52991,2.496,10.5152,80,0,
221.39,6.4975,2.52686,2.496,10.5152,80,0,
221.39,6.50238,2.52686,2.496,10.5152,80,0,
221.39,6.50269,2.52991,2.496,10.5152,80,0,
221.39,6.50726,2.52838,2.496,10.5152,80,0,
221.39,6.51245,2.52991,2.496,10.5152,80,0,
221.39,6.51489,2.53143,2.496,10.5152,80,0,
221.39,6.51733,2.52686,2.496,10.5152,80,0,
221.39,6.52283,2.52533,2.496,10.5152,80,0,
221.39,6.52649,2.52686,2.496,10.5152,80,0,
221.39,6.53015,2.52838,2.496,10.5152,80,0,
221.39,6.53229,2.52991,2.496,10.5152,80,0,
221.39,6.53687,2.52533,2.496,10.5152,80,0,
221.39,6.53992,2.52686,2.496,10.5152,80,0,
221.39,6.54205,2.53296,2.496,10.5152,80,0,
221.39,6.54724,2.52838,2.496,10.5152,80,0,
221.39,6.55121,2.52686,2.496,10.5152,80,0,
221.39,6.55426,2.52533,2.496,10.5152,80,0,
221.39,6.5567,2.52991,2.496,10.5152,80,0,
221.39,6.56158,2.52686,2.496,10.5152,80,0,
221.39,6.56403,2.52991,2.496,10.5152,80,0,
221.39,6.56647,2.52838,2.496,10.5152,80,0,
221.39,6.57104,2.52991,2.496,10.5152,80,0,
221.39,6.57532,2.52838,2.496,10.5152,80,0,
221.39,6.57562,2.52991,2.496,10.5152,80,0,
221.391,6.58051,2.52533,2.496,10.5152,80,0,
221.391,6.58478,2.52838,2.496,10.5152,80,0,
221.391,6.58569,2.52838,2.496,10.5152,80,0,
221.391,6.59119,2.52686,2.496,10.5152,80,0,
221.391,6.59515,2.52991,2.496,10.5152,80,0,
221.391,6.59851,2.52533,2.496,10.5152,80,0,
221.391,6.60034,2.52533,2.496,10.5152,80,0,
221.391,6.60614,2.52991,2.496,10.5152,80,0,
221.391,6.60767,2.52686,2.496,10.5152,80,0,
221.391,6.61072,2.52686,2.496,10.5152,80,0,
221.391,6.61499,2.52533,2.496,10.5152,80,0,
221.391,6.61774,2.52686,2.496,10.5152,80,0,
221.391,6.62048,2.52838,2.496,10.5152,80,0,
221.391,6.62506,2.53143,2.496,10.5152,80,0,
221.391,6.62811,2.52838,2.496,10.5152,80,0,
221.391,6.63025,2.52838,2.496,10.5152,80,0,
221.391,6.63483,2.52991,2.496,10.5152,80,0,
221.391,6.63513,2.52838,2.496,10.5152,80,0,
221.391,6.64001,2.53296,2.496,10.5152,80,0,
221.391,6.64459,2.52838,2.496,10.5152,80,0,
221.391,6.64551,2.52838,2.496,10.5152,80,0,
221.391,6.64978,2.52838,2.496,10.5152,80,0,
221.391,6.65344,2.53143,2.496,10.5152,80,0,
221.391,6.65405,2.52991,2.496,10.5152,80,0,
221.391,6.65955,2.52838,2.496,10.5152,80,0,
221.391,6.66229,2.52533,2.496,10.5152,80,0,
221.391,6.66412,2.52533,2.496,10.5152,80,0,
221.391,6.6687,2.52991,2.496,10.5152,80,0,
221.391,6.66931,2.52686,2.496,10.5152,80,0,
221.391,6.67419,2.5238,2.496,10.5152,80,0,
221.392,6.67877,2.52838,2.496,10.5152,80,0,
221.392,6.67877,2.52838,2.496,10.5152,80,0,
221.392,6.68304,2.52838,2.496,10.5152,80,0,
221.392,6.68701,2.52838,2.496,10.5152,80,0,
221.392,6.68915,2.52838,2.496,10.5152,80,0,
221.392,6.69312,2.52533,2.496,10.5152,80,0,
221.392,6.69373,2.52838,2.496,10.5152,80,0,
221.392,6.69891,2.52686,2.496,10.5152,80,0,
221.392,6.70166,2.52838,2.496,10.5152,80,0,
221.392,6.70471,2.52838,2.496,10.5152,80,0,
221.392,6.70776,2.52686,2.496,10.5152,80,0,
221.392,6.70837,2.52991,2.496,10.5152,80,0,
221.392,6.71356,2.52991,2.496,10.5152,80,0,
221.392,6.71326,2.52686,2.496,10.5152,80,0,
221.392,6.71844,2.52686,2.496,10.5152,80,0,
221.392,6.72089,2.52991,2.496,10.5152,80,0,
221.392,6.72333,2.52838,2.496,10.5152,80,0,
221.392,6.72729,2.52838,2.496,10.5152,80,0,
221.392,6.72791,2.5177,2.496,10.5152,80,0,
221.392,6.73248,2.51007,2.496,10.5152,80,0,
221.392,6.7334,2.51618,2.496,10.5152,80,0,
221.392,6.73828,2.51618,2.496,10.5152,80,0,
221.392,6.74042,2.52075,2.496,10.5152,80,0,
221.392,6.74347,2.51465,2.496,10.5152,80,0,
221.392,6.7453,2.5177,2.496,10.5152,80,0,
221.392,6.74805,2.51312,2.496,10.5152,80,0,
221.392,6.75262,2.51312,2.496,10.5152,80,0,
221.392,6.75262,2.51618,2.496,10.5152,80,0,
221.392,6.75751,2.51923,2.496,10.5152,80,0,
221.392,6.7569,2.51465,2.496,10.5152,80,0,
221.393,6.76208,2.51618,2.496,10.5152,80,0,
221.393,6.76208,2.51465,2.496,10.5152,80,0,
221.393,6.76758,2.51618,2.496,10.5152,80,0,
221.393,6.76788,2.51312,2.496,10.5152,80,0,
221.393,6.77246,2.51618,2.496,10.5152,80,0,
221.393,6.77246,2.51465,2.496,10.5152,80,0,
221.393,6.77765,2.52533,2.496,10.5152,80,0,
221.393,6.77734,2.52686,2.496,10.5152,80,0,
221.393,6.78192,2.52838,2.496,10.5152,80,0,
221.393,6.78253,2.53143,2.496,10.5152,80,0,
221.393,6.78619,2.52838,2.496,10.5152,80,0,
221.393,6.7868,2.52686,2.496,10.5152,80,0,
221.393,6.7923,2.52686,2.496,10.5152,80,0,
221.393,6.79199,2.52991,2.496,10.5152,80,0,
221.393,6.79657,2.51465,2.496,10.5152,80,0,
221.393,6.79596,2.51312,2.496,10.5152,80,0,
221.393,6.80176,2.51923,2.496,10.5152,80,0,
221.393,6.80084,2.51465,2.496,10.5152,80,0,
221.393,6.80634,2.5177,2.496,10.5152,80,0,
221.393,6.80603,2.51465,2.496,10.5152,80,0,
221.393,6.81122,2.51923,2.496,10.5152,80,0,
221.393,6.81152,2.51618,2.496,10.5152,80,0,
221.393,6.81519,2.51465,2.496,10.5152,80,0,
221.393,6.8161,2.5177,2.496,10.5152,80,0,
221.393,6.82007,2.51465,2.496,10.5152,80,0,
221.393,6.82129,2.51465,2.496,10.5152,80,0,
221.393,6.82404,2.51465,2.496,10.5152,80,0,
221.393,6.82648,2.5177,2.496,10.5152,80,0,
221.393,6.82617,2.5177,2.496,10.5152,80,0,
221.393,6.83105,2.51618,2.496,10.5152,80,0,
221.393,6.83105,2.51618,2.496,10.5152,80,0,
221.394,6.83624,2.51312,2.496,10.5152,80,0,
221.394,6.83624,2.51618,2.496,10.5152,80,0,
221.394,6.8399,2.51618,2.496,10.5152,80,0,
221.394,6.84021,2.5177,2.496,10.5152,80,0,
221.394,6.84357,2.51465,2.496,10.5152,80,0,
221.394,6.84631,2.51465,2.496,10.5152,80,0,
221.394,6.8454,2.5177,2.496,10.5152,80,0,
221.394,6.84967,2.51465,2.496,10.5152,80,0,
221.394,6.85089,2.51618,2.496,10.5152,80,0,
221.394,6.85516,2.51465,2.496,10.5152,80,0,
221.394,6.85608,2.51312,2.496,10.5152,80,0,
221.394,6.85822,2.51618,2.496,10.5152,80,0,
221.394,6.86005,2.51618,2.496,10.5152,80,0,
221.394,6.86127,2.51465,2.496,10.5152,80,0,
221.394,6.86523,2.51465,2.496,10.5152,80,0,
221.394,6.86554,2.51465,2.496,10.5152,80,0,
221.394,6.86798,2.51618,2.496,10.5152,80,0,
221.394,6.87042,2.5177,2.496,10.5152,80,0,
221.394,6.87042,2.51465,2.496,10.5152,80,0,
221.394,6.87469,2.51465,2.496,10.5152,80,0,
221.394,6.87439,2.51465,2.496,10.5152,80,0,
221.394,6.87775,2.51465,2.496,10.5152,80,0,
221.394,6.87988,2.5177,2.496,10.5152,80,0,
221.394,6.87988,2.51618,2.496,10.5152,80,0,
221.394,6.88446,2.5177,2.496,10.5152,80,0,
221.394,6.88477,2.5177,2.496,10.5152,80,0,
221.394,6.88751,2.51618,2.496,10.5152,80,0,
221.394,6.89026,2.51465,2.496,10.5152,80,0,
221.394,6.88934,2.5177,2.496,10.5152,80,0,
221.394,6.89392,2.51923,2.496,10.5152,80,0,
221.395,6.89484,2.52075,2.496,10.5152,80,0,
221.395,6.89514,2.51465,2.496,10.5152,80,0,
221.395,6.90002,2.51618,2.496,10.5152,80,0,
221.395,6.90002,2.5177,2.496,10.5152,80,0,
221.395,6.89972,2.51923,2.496,10.5152,80,0,
221.395,6.9046,2.51312,2.496,10.5152,80,0,
221.395,6.9046,2.51618,2.496,10.5152,80,0,
221.395,6.90735,2.51618,2.496,10.5152,80,0,
221.395,6.90979,2.5177,2.496,10.5152,80,0,
221.395,6.90979,2.51465,2.496,10.5152,80,0,
221.395,6.91132,2.51465,2.496,10.5152,80,0,
221.395,6.91437,2.51618,2.496,10.5152,80,0,
221.395,6.91467,2.5177,2.496,10.5152,80,0,
221.395,6.91925,2.51923,2.496,10.5152,80,0,
221.395,6.91956,2.51618,2.496,10.5152,80,0,
221.395,6.91925,2.5177,2.496,19.9203,80,0,
221.395,6.92444,2.51465,2.496,19.9203,80,0,
221.395,6.92383,2.51618,2.496,19.9203,80,0,
221.395,6.92413,2.52686,2.496,19.9203,80,0,
221.395,6.92627,2.52686,2.496,19.9203,80,0,
221.395,6.92902,2.51465,2.496,19.9203,80,0,
221.395,6.92871,2.51618,2.496,19.9203,80,0,
221.395,6.93146,2.51618,2.496,19.9203,80,0,
221.395,6.93359,2.5177,2.496,19.9203,80,0,
221.395,6.9339,2.51618,2.496,19.9203,80,0,
221.395,6.93268,2.51465,2.496,19.9203,80,0,
221.395,6.93787,2.51618,2.496,19.9203,80,0,
221.395,6.93878,2.51465,2.496,19.9203,80,0,
221.395,6.93787,2.51618,2.496,19.9203,80,0,
221.395,6.94366,2.51465,2.496,19.9203,80,0,
221.396,6.94336,2.5177,2.496,19.9203,80,0,
221.396,6.94336,2.51618,2.496,19.9203,80,0,
221.396,6.94824,2.51618,2.496,19.9203,80,0,
221.396,6.94824,2.5177,2.496,19.9203,80,0,
221.396,6.94824,2.51618,2.496,19.9203,80,0,
221.396,6.94885,2.51312,2.496,19.9203,80,0,
221.396,6.95343,2.51618,2.496,19.9203,80,0,
221.396,6.95343,2.51465,2.496,19.9203,80,0,
221.396,6.95404,2.51618,2.496,19.9203,80,0,
221.396,6.9577,2.51618,2.496,19.9203,80,0,
221.396,6.95801,2.51465,2.496,19.9203,80,0,
221.396,6.9577,2.51312,2.496,19.9203,80,0,
221.396,6.95801,2.5177,2.496,19.9203,80,0,
221.396,6.96411,2.51618,2.496,19.9203,80,0,
221.396,6.9632,2.51312,2.496,19.9203,80,0,
221.396,6.9632,2.5177,2.496,19.9203,80,0,
221.396,6.96594,2.5177,2.496,19.9203,80,0,
221.396,6.96777,2.51618,2.496,19.9203,80,0,
221.396,6.96808,2.51465,2.496,19.9203,80,0,
221.396,6.96808,2.51618,2.496,19.9203,80,0,
221.396,6.97021,2.5177,2.496,19.9203,80,0,
221.396,6.97327,2.51465,2.496,19.9203,80,0,
221.396,6.97266,2.51465,2.496,19.9203,80,0,
221.396,6.97266,2.51465,2.496,19.9203,80,0,
221.396,6.97754,2.51465,2.496,19.9203,80,0,
221.396,6.97815,2.5177,2.496,19.9203,80,0,
221.396,6.97754,2.51465,2.496,19.9203,80,0,
221.396,6.97815,2.52075,2.496,19.9203,80,0,
221.396,6.98059,2.5177,2.496,19.9203,80,0,
221.397,6.98303,2.51923,2.496,19.9203,80,0,
221.397,6.98273,2.51465,2.496,19.9203,80,0,
221.397,6.98364,2.51618,2.496,19.9203,80,0,
221.397,6.98273,2.51465,2.496,19.9203,80,0,
221.397,6.9873,2.51923,2.496,19.9203,80,0,
221.397,6.98792,2.5177,2.496,19.9203,80,0,
221.397,6.98792,2.5177,2.496,19.9203,80,0,
221.397,6.98822,2.51312,2.496,19.9203,80,0,
221.397,6.9928,2.51618,2.496,19.9203,80,0,
221.397,6.99249,2.51312,2.496,19.9203,80,0,
221.397,6.9931,2.51312,2.496,19.9203,80,0,
221.397,6.9928,2.51923,2.496,19.9203,80,0,
221.397,6.99524,2.5177,2.496,19.9203,80,0,
221.397,6.99768,2.51465,2.496,19.9203,80,0,
221.397,6.99768,2.51618,2.496,19.9203,80,0,
221.397,6.99677,2.5177,2.496,19.9203,80,0,
221.397,6.99768,2.51618,2.496,19.9203,80,0,
221.397,7.00012,2.52686,2.496,19.9203,80,0,
221.397,7.00226,2.51618,2.496,19.9203,80,0,
221.397,7.00226,2.51465,2.496,19.9203,80,0,
221.397,7.00256,2.51618,2.496,19.9203,80,0,
221.397,7.00226,2.51312,2.496,19.9203,80,0,
221.397,7.005,2.5177,2.496,19.9203,80,0,
221.397,7.00684,2.51618,2.496,19.9203,80,0,
221.397,7.00775,2.51312,2.496,19.9203,80,0,
221.397,7.00775,2.51312,2.496,19.9203,80,0,
221.397,7.00714,2.51465,2.496,19.9203,80,0,
221.397,7.00775,2.51465,2.496,19.9203,80,0,
221.397,7.01233,2.51465,2.496,19.9203,80,0,
221.397,7.01294,2.51618,2.496,19.9203,80,0,
221.398,7.01263,2.5177,2.496,19.9203,80,0,
221.398,7.01233,2.51312,2.496,19.9203,80,0,
221.398,7.01202,2.51312,2.496,19.9203,80,0,
221.398,7.01599,2.51923,2.496,19.9203,80,0,
221.398,7.01752,2.5177,2.496,19.9203,80,0,
221.398,7.01691,2.51618,2.496,19.9203,80,0,
221.398,7.01721,2.51465,2.496,19.9203,80,0,
221.398,7.01752,2.51618,2.496,19.9203,80,0,
221.398,7.01691,2.5177,2.496,19.9203,80,0,
221.398,7.01935,2.51618,2.496,19.9203,80,0,
221.398,7.02179,2.51618,2.496,19.9203,80,0,
221.398,7.02179,2.51618,2.496,19.9203,80,0,
221.398,7.02179,2.51618,2.496,19.9203,80,0,
221.398,7.0224,2.51618,2.496,19.9203,80,0,
221.398,7.02271,2.51618,2.496,19.9203,80,0,
221.398,7.02209,2.51618,2.496,19.9203,80,0,
221.398,7.02637,2.51312,2.496,19.9203,80,0,
221.398,7.02759,2.51465,2.496,19.9203,80,0,
221.398,7.02728,2.5177,2.496,19.9203,80,0,
221.398,7.02728,2.51312,2.496,19.9203,80,0,
221.398,7.02759,2.51312,2.496,19.9203,80,0,
221.398,7.02728,2.51465,2.496,19.9203,80,0,
221.398,7.02728,2.51465,2.496,19.9203,80,0,
221.398,7.02728,2.5177,2.496,19.9203,80,0,
221.398,7.03125,2.51465,2.496,19.9203,80,0,
221.398,7.03186,2.51618,2.496,19.9203,80,0,
221.398,7.03186,2.5177,2.496,19.9203,80,0,
221.398,7.03156,2.51618,2.496,19.9203,80,0,
221.398,7.03217,2.51618,2.496,19.9203,80,0,
221.398,7.03125,2.51618,2.496,19.9203,80,0,
221.399,7.03217,2.5177,2.496,19.9203,80,0,
221.399,7.03186,2.51618,2.496,19.9203,80,0,
221.399,7.03186,2.51923,2.496,19.9203,80,0,
221.399,7.03156,2.51618,2.496,19.9203,80,0,
221.399,7.03674,2.51923,2.496,19.9203,80,0,
221.399,7.03735,2.51465,2.496,19.9203,80,0,
221.399,7.03613,2.51618,2.496,19.9203,80,0,
221.399,7.03674,2.51618,2.496,19.9203,80,0,
221.399,7.03674,2.51618,2.496,19.9203,80,0,
221.399,7.03705,2.51312,2.496,19.9203,80,0,
221.399,7.03644,2.5177,2.496,19.9203,80,0,
221.399,7.03644,2.51312,2.496,19.9203,80,0,
221.399,7.03705,2.51465,2.496,19.9203,80,0,
221.399,7.03674,2.51465,2.496,19.9203,80,0,
221.399,7.03644,2.5177,2.496,19.9203,80,0,
221.399,7.03705,2.51923,2.496,19.9203,80,0,
221.399,7.03674,2.51618,2.496,19.9203,80,0,
221.399,7.03674,2.51618,2.496,19.9203,80,0,
221.399,7.03644,2.51465,2.496,19.9203,80,0,
221.399,7.03705,2.51618,2.496,19.9203,80,0,
221.399,7.03644,2.51618,2.496,19.9203,80,0,
221.399,7.04102,2.5177,2.496,19.9203,80,0,
221.399,7.04132,2.5177,2.496,19.9203,80,0,
221.399,7.04224,2.5177,2.496,19.9203,80,0,
221.399,7.04132,2.51312,2.496,19.9203,80,0,
221.399,7.04102,2.51618,2.496,19.9203,80,0,
221.399,7.04132,2.5177,2.496,19.9203,80,0,
221.399,7.04224,2.5177,2.496,19.9203,80,0,
221.399,7.04193,2.51465,2.496,19.9203,80,0,
221.399,7.04132,2.5177,2.496,19.9203,80,0,
221.399,7.04163,2.51465,2.496,19.9203,80,0,
221.4,7.04163,2.5177,2.496,19.9203,80,0,
221.4,7.04193,2.52075,2.496,19.9203,80,0,
221.4,7.04102,2.51465,2.496,19.9203,80,0,
221.4,7.04132,2.51923,2.496,19.9203,80,0,
221.4,7.04132,2.51618,2.496,19.9203,80,0,
221.4,7.04193,2.51465,2.496,19.9203,80,0,
221.4,7.04163,2.51465,2.496,19.9203,80,0,
221.4,7.04102,2.51618,2.496,19.9203,80,0,
221.4,7.04193,2.51618,2.496,19.9203,80,0,
221.4,7.04132,2.51465,2.496,19.9203,80,0,
221.4,7.04132,2.51618,2.496,19.9203,80,0,
221.4,7.04132,2.5177,2.496,19.9203,80,0,
221.4,7.04163,2.51465,2.496,19.9203,80,0,
221.4,7.04132,2.51618,2.496,19.9203,80,0,
221.4,7.04163,2.51465,2.496,19.9203,80,0,
221.4,7.03674,2.51618,2.496,19.9203,80,0,
221.4,7.03674,2.51618,2.496,19.9203,80,0,
221.4,7.03644,2.51312,2.496,19.9203,80,0,
221.4,7.03644,2.5116,2.496,19.9203,80,0,
221.4,7.03644,2.5177,2.496,19.9203,80,0,
221.4,7.03674,2.51465,2.496,19.9203,80,0,
221.4,7.03674,2.51618,2.496,19.9203,80,0,
221.4,7.03674,2.51465,2.496,19.9203,80,0,
221.4,7.03674,2.51465,2.496,19.9203,80,0,
221.4,7.03613,2.51312,2.496,19.9203,80,0,
221.4,7.03674,2.5177,2.496,19.9203,80,0,
221.4,7.03644,2.51618,2.496,19.9203,80,0,
221.4,7.03552,2.51923,2.496,19.9203,80,0,
221.4,7.03644,2.51618,2.496,19.9203,80,0,
221.4,7.03705,2.51465,2.496,19.9203,80,0,
221.401,7.03674,2.51312,2.496,19.9203,80,0,
221.401,7.03674,2.5177,2.496,19.9203,80,0,
221.401,7.03613,2.51618,2.496,19.9203,80,0,
221.401,7.03156,2.51465,2.496,19.9203,80,0,
221.401,7.03094,2.51618,2.496,19.9203,80,0,
221.401,7.03186,2.51465,2.496,19.9203,80,0,
221.401,7.03156,2.51312,2.496,19.9203,80,0,
221.401,7.03186,2.51618,2.496,19.9203,80,0,
221.401,7.03186,2.51618,2.496,19.9203,80,0,
221.401,7.03186,2.51312,2.496,19.9203,80,0,
221.401,7.03125,2.51465,2.496,19.9203,80,0,
221.401,7.03156,2.51923,2.496,19.9203,80,0,
221.401,7.03125,2.51618,2.496,19.9203,80,0,
221.401,7.03156,2.51618,2.496,19.9203,80,0,
221.401,7.02728,2.51465,2.496,19.9203,80,0,
221.401,7.02759,2.5177,2.496,19.9203,80,0,
221.401,7.02698,2.51618,2.496,19.9203,80,0,
221.401,7.02728,2.51618,2.496,19.9203,80,0,
221.401,7.02728,2.51465,2.496,19.9203,80,0,
221.401,7.02698,2.51465,2.496,19.9203,80,0,
221.401,7.02667,2.5177,2.496,19.9203,80,0,
221.401,7.02698,2.51618,2.496,19.9203,80,0,
221.401,7.02728,2.51465,2.496,19.9203,80,0,
221.401,7.02209,2.51465,2.496,19.9203,80,0,
221.401,7.02209,2.51618,2.496,19.9203,80,0,
221.401,7.02209,2.51465,2.496,19.9203,80,0,
221.401,7.02148,2.51618,2.496,19.9203,80,0,
221.401,7.02209,2.51618,2.496,19.9203,80,0,
221.401,7.02209,2.51312,2.496,19.9203,80,0,
221.401,7.02209,2.51618,2.496,19.9203,80,0,
221.402,7.02057,2.5177,2.496,19.9203,80,0,
221.402,7.01782,2.51465,2.496,19.9203,80,0,
221.402,7.0166,2.5177,2.496,19.9203,80,0,
221.402,7.0166,2.51618,0.484,19.9203,80,0,
221.402,7.0166,2.51465,0.484,19.9203,80,0,
221.402,7.01721,2.51465,0.484,19.9203,80,0,
221.402,7.01691,2.51465,0.484,19.9203,80,0,
221.402,7.0166,2.51618,0.484,19.9203,80,0,
221.402,7.01447,2.5177,0.484,19.9203,80,0,
221.402,7.01172,2.5177,0.484,19.9203,80,0,
221.402,7.01233,2.51465,0.484,19.9203,80,0,
221.402,7.01263,2.51465,0.484,19.9203,80,0,
221.402,7.01172,2.51312,0.484,19.9203,80,0,
221.402,7.01202,2.51618,0.484,19.9203,80,0,
221.402,7.01294,2.51618,0.484,19.9203,80,0,
221.402,7.00806,2.51312,0.484,19.9203,80,0,
221.402,7.00806,2.5177,0.484,19.9203,80,0,
221.402,7.00806,2.51923,0.484,19.9203,80,0,
221.402,7.00684,2.51465,0.484,19.9203,80,0,
221.402,7.00775,2.5177,0.484,19.9203,80,0,
221.402,7.00684,2.51618,0.484,19.9203,80,0,
221.402,7.00714,2.51923,0.484,19.9203,80,0,
221.402,7.00226,2.51312,0.484,19.9203,80,0,
221.402,7.00226,2.5177,0.484,19.9203,80,0,
221.402,7.00256,2.5177,0.484,19.9203,80,0,
221.402,7.00256,2.51618,0.484,19.9203,80,0,
221.402,7.00195,2.51007,0.484,19.9203,80,0,
221.402,7.00256,2.51618,0.484,19.9203,80,0,
221.402,6.99799,2.51923,0.484,19.9203,80,0,
221.403,6.99768,2.5177,0.484,19.9203,80,0,
221.403,6.99768,2.51312,0.484,19.9203,80,0,
221.403,6.99738,2.5177,0.484,19.9203,80,0,
221.403,6.99707,2.51465,0.484,19.9203,80,0,
221.403,6.99768,2.51618,0.484,19.9203,80,0,
221.403,6.9931,2.51618,0.484,19.9203,80,0,
221.403,6.99249,2.5177,0.484,19.9203,80,0,
221.403,6.99249,2.51618,0.484,19.9203,80,0,
221.403,6.9928,2.51618,0.484,19.9203,80,0,
221.403,6.99249,2.51618,0.484,19.9203,80,0,
221.403,6.99005,2.51465,0.484,19.9203,80,0,
221.403,6.98792,2.51465,0.484,19.9203,80,0,
221.403,6.98761,2.51618,0.484,19.9203,80,0,
221.403,6.98761,2.5177,0.484,19.9203,80,0,
221.403,6.98792,2.51618,0.484,19.9203,80,0,
221.403,6.9873,2.51618,0.484,19.9203,80,0,
221.403,6.98334,2.51618,0.484,19.9203,80,0,
221.403,6.98181,2.5177,0.484,19.9203,80,0,
221.403,6.98303,2.5177,0.484,19.9203,80,0,
221.403,6.98273,2.51465,0.484,19.9203,80,0,
221.403,6.98303,2.51618,0.484,19.9203,80,0,
221.403,6.98242,2.51618,0.484,19.9203,80,0,
221.403,6.97784,2.51312,0.484,19.9203,80,0,
221.403,6.97754,2.51465,0.484,19.9203,80,0,
221.403,6.97754,2.5177,0.484,19.9203,80,0,
221.403,6.97815,2.51465,0.484,19.9203,80,0,
221.403,6.97784,2.51618,0.484,19.9203,80,0,
221.403,6.97327,2.51618,0.484,19.9203,80,0,
221.403,6.97296,2.51618,0.484,19.9203,80,0,
221.403,6.97357,2.51618,0.484,19.9203,80,0,
221.404,6.97266,2.51618,0.484,19.9203,80,0,
221.404,6.97296,2.51312,0.484,19.9203,80,0,
221.404,6.97327,2.51312,0.484,19.9203,80,0,
221.404,6.96808,2.51465,0.484,19.9203,80,0,
221.404,6.96747,2.51923,0.484,19.9203,80,0,
221.404,6.96838,2.51465,0.484,19.9203,80,0,
221.404,6.96777,2.51618,0.484,19.9203,80,0,
221.404,6.96838,2.51618,0.484,19.9203,80,0,
221.404,6.9632,2.5177,0.484,19.9203,80,0,
221.404,6.9632,2.51618,0.484,19.9203,80,0,
221.404,6.9635,2.51465,0.484,19.9203,80,0,
221.404,6.96289,2.51618,0.484,19.9203,80,0,
221.404,6.96381,2.51465,0.484,19.9203,80,0,
221.404,6.95892,2.51618,0.484,19.9203,80,0,
221.404,6.95862,2.51312,0.484,19.9203,80,0,
221.404,6.95892,2.51465,0.484,19.9203,80,0,
221.404,6.95801,2.51465,0.484,19.9203,80,0,
221.404,6.95923,2.51312,0.484,19.9203,80,0,
221.404,6.95587,2.51923,0.484,19.9203,80,0,
221.404,6.95374,2.5177,0.484,19.9203,80,0,
221.404,6.95312,2.51465,0.484,19.9203,80,0,
221.404,6.95374,2.51465,0.484,19.9203,80,0,
221.404,6.95312,2.51465,0.484,19.9203,80,0,
221.404,6.95312,2.51618,0.484,19.9203,80,0,
221.404,6.94885,2.51618,0.484,19.9203,80,0,
221.404,6.94885,2.51465,0.484,19.9203,80,0,
221.404,6.94824,2.51618,0.484,19.9203,80,0,
221.404,6.94885,2.51312,0.484,19.9203,80,0,
221.404,6.94824,2.52075,0.484,19.9203,80,0,
221.404,6.94366,2.51312,0.484,19.9203,80,0,
221.405,6.94336,2.51465,0.484,19.9203,80,0,
221.405,6.94397,2.51618,0.484,19.9203,80,0,
221.405,6.94336,2.51465,0.484,19.9203,80,0,
221.405,6.94366,2.51618,0.484,19.9203,80,0,
221.405,6.93848,2.51618,0.484,19.9203,80,0,
221.405,6.93848,2.51618,0.484,19.9203,80,0,
221.405,6.93848,2.51618,0.484,19.9203,80,0,
221.405,6.93726,2.5177,0.484,19.9203,80,0,
221.405,6.93848,2.51465,0.484,19.9203,80,0,
221.405,6.9342,2.51465,0.484,19.9203,80,0,
221.405,6.93329,2.51312,0.484,19.9203,80,0,
221.405,6.9339,2.51465,0.484,19.9203,80,0,
221.405,6.9342,2.5177,0.484,19.9203,80,0,
221.405,6.9339,2.51618,0.484,19.9203,80,0,
221.405,6.93054,2.51465,0.484,19.9203,80,0,
221.405,6.92871,2.51618,0.484,19.9203,80,0,
221.405,6.9281,2.51312,0.484,19.9203,80,0,
221.405,6.92871,2.51923,0.484,19.9203,80,0,
221.405,6.92932,2.51465,0.484,19.9203,80,0,
221.405,6.92566,2.5177,0.484,19.9203,80,0,
221.405,6.92383,2.51465,0.484,19.9203,80,0,
221.405,6.92322,2.51312,0.484,19.9203,80,0,
221.405,6.92413,2.5116,0.484,19.9203,80,0,
221.405,6.92383,2.5177,0.484,19.9203,80,0,
221.405,6.92383,2.51465,0.484,19.9203,80,0,
221.405,6.91925,2.51465,0.484,19.9203,80,0,
221.405,6.91803,2.51465,0.484,19.9203,80,0,
221.405,6.91833,2.51618,0.484,19.9203,80,0,
221.405,6.91925,2.51465,0.484,19.9203,80,0,
221.405,6.91956,2.51312,0.484,19.9203,80,0,
221.405,6.91376,2.5177,0.484,19.9203,80,0,
221.406,6.91406,2.51618,0.484,19.9203,80,0,
221.406,6.91406,2.5177,0.484,19.9203,80,0,
221.406,6.91406,2.5177,0.484,19.9203,80,0,
221.406,6.91437,2.5177,0.484,19.9203,80,0,
221.406,6.9101,2.5116,0.484,19.9203,80,0,
221.406,6.9101,2.51618,0.484,19.9203,80,0,
221.406,6.90979,2.5177,0.484,19.9203,80,0,
221.406,6.90979,2.51465,0.484,19.9203,80,0,
221.406,6.90979,2.51618,0.484,19.9203,80,0,
221.406,6.90979,2.5177,0.484,19.9203,80,0,
221.406,6.90521,2.51618,0.484,19.9203,80,0,
221.406,6.9043,2.51312,0.484,19.9203,80,0,
221.406,6.90521,2.51465,0.484,19.9203,80,0,
221.406,6.9043,2.51312,0.484,19.9203,80,0,
221.406,6.9043,2.51465,0.484,19.9203,80,0,
221.406,6.89941,2.51465,0.484,19.9203,80,0,
221.406,6.90002,2.5177,0.484,19.9203,80,0,
221.406,6.89972,2.51618,0.484,19.9203,80,0,
221.406,6.89941,2.51618,0.484,19.9203,80,0,
221.406,6.90033,2.51618,0.484,19.9203,80,0,
221.406,6.89911,2.51465,0.484,19.9203,80,0,
221.406,6.89392,2.51618,0.484,19.9203,80,0,
221.406,6.89392,2.51923,0.484,19.9203,80,0,
221.406,6.89423,2.5177,0.484,19.9203,80,0,
221.406,6.89453,2.51618,0.484,19.9203,80,0,
221.406,6.89423,2.51618,0.484,19.9203,80,0,
221.406,6.89056,2.51618,0.484,19.9203,80,0,
221.406,6.88873,2.51618,0.484,19.9203,80,0,
221.406,6.88965,2.5177,0.484,19.9203,80,0,
221.406,6.88965,2.51465,0.484,19.9203,80,0,
221.407,6.89056,2.51312,0.484,19.9203,80,0,
221.407,6.88965,2.5177,0.484,19.9203,80,0,
221.407,6.88385,2.5177,0.484,19.9203,80,0,
221.407,6.88507,2.5177,0.484,19.9203,80,0,
221.407,6.88477,2.51465,0.484,19.9203,80,0,
221.407,6.88477,2.51465,0.484,19.9203,80,0,
221.407,6.88416,2.51465,0.484,19.9203,80,0,
221.407,6.88416,2.51465,0.484,19.9203,80,0,
221.407,6.87988,2.5116,0.484,19.9203,80,0,
221.407,6.87958,2.51312,0.484,19.9203,80,0,
221.407,6.87988,2.51618,0.484,19.9203,80,0,
221.407,6.87927,2.51465,0.484,19.9203,80,0,
221.407,6.87988,2.5116,0.484,19.9203,80,0,
221.407,6.87683,2.5177,0.484,19.9203,80,0,
221.407,6.875,2.51465,0.484,19.9203,80,0,
221.407,6.87439,2.51618,0.484,19.9203,80,0,
221.407,6.87469,2.5177,0.484,19.9203,80,0,
221.407,6.87439,2.51618,0.484,19.9203,80,0,
221.407,6.87561,2.51618,0.484,19.9203,80,0,
221.407,6.87195,2.51618,0.484,19.9203,80,0,
221.407,6.87012,2.51465,0.484,19.9203,80,0,
221.407,6.86981,2.51465,0.484,19.9203,80,0,
221.407,6.87012,2.51312,0.484,19.9203,80,0,
221.407,6.87042,2.51312,0.484,19.9203,80,0,
221.407,6.87073,2.51465,0.484,19.9203,80,0,
221.407,6.86737,2.5177,0.484,19.9203,80,0,
221.407,6.86523,2.51465,0.484,19.9203,80,0,
221.407,6.86493,2.51618,0.484,19.9203,80,0,
221.407,6.86554,2.51465,0.484,19.9203,80,0,
221.407,6.86584,2.5177,0.484,19.9203,80,0,
221.408,6.86523,2.51618,0.484,19.9203,80,0,
221.408,6.86523,2.51465,0.484,19.9203,80,0,
221.408,6.86096,2.51465,0.484,19.9203,80,0,
221.408,6.86096,2.51312,0.484,19.9203,80,0,
221.408,6.86066,2.51618,0.484,19.9203,80,0,
221.408,6.86096,2.51618,0.484,19.9203,80,0,
221.408,6.86096,2.51618,0.484,19.9203,80,0,
221.408,6.86035,2.51465,0.484,19.9203,80,0,
221.408,6.85608,2.5177,0.484,19.9203,80,0,
221.408,6.85547,2.51465,0.484,19.9203,80,0,
221.408,6.85608,2.51465,0.484,19.9203,80,0,
221.408,6.85577,2.51312,0.484,19.9203,80,0,
221.408,6.85638,2.51312,0.484,19.9203,80,0,
221.408,6.85516,2.51465,0.484,19.9203,80,0,
221.408,6.85059,2.51465,0.484,19.9203,80,0,
221.408,6.85028,2.5177,0.484,19.9203,80,0,
221.408,6.85059,2.51465,0.484,19.9203,80,0,
221.408,6.85059,2.51618,0.484,19.9203,80,0,
221.408,6.85089,2.51618,0.484,19.9203,80,0,
221.408,6.84998,2.51618,0.484,19.9203,80,0,
221.408,6.84509,2.51618,0.484,19.9203,80,0,
221.408,6.84601,2.51312,0.484,19.9203,80,0,
221.408,6.8454,2.51465,0.484,19.9203,80,0,
221.408,6.84601,2.51618,0.484,19.9203,80,0,
221.408,6.84631,2.5177,0.484,19.9203,80,0,
221.408,6.84601,2.51618,0.484,19.9203,80,0,
221.408,6.84082,2.51618,0.484,19.9203,80,0,
221.408,6.84082,2.51465,0.484,19.9203,80,0,
221.408,6.84113,2.51618,0.484,19.9203,80,0,
221.409,6.84082,2.5177,0.484,19.9203,80,0,
221.409,6.84143,2.51312,0.484,19.9203,80,0,
221.409,6.8399,2.51465,0.484,19.9203,80,0,
221.409,6.83594,2.51618,0.484,19.9203,80,0,
221.409,6.83594,2.5177,0.484,19.9203,80,0,
221.409,6.83594,2.5177,0.484,19.9203,80,0,
221.409,6.83624,2.51312,0.484,19.9203,80,0,
221.409,6.83533,2.51312,0.484,19.9203,80,0,
221.409,6.83319,2.51312,0.484,19.9203,80,0,
221.409,6.83136,2.51465,0.484,19.9203,80,0,
221.409,6.83136,2.5177,0.484,19.9203,80,0,
221.409,6.83044,2.51312,0.484,19.9203,80,0,
221.409,6.83105,2.51923,0.484,19.9203,80,0,
221.409,6.83167,2.51465,0.484,19.9203,80,0,
221.409,6.82648,2.51618,0.484,19.9203,80,0,
221.409,6.82587,2.5177,0.484,19.9203,80,0,
221.409,6.82678,2.51618,0.484,19.9203,80,0,
221.409,6.82617,2.51312,0.484,19.9203,80,0,
221.409,6.82617,2.5177,0.484,19.9203,80,0,
221.409,6.82678,2.51618,0.484,19.9203,80,0,
221.409,6.82129,2.51007,0.484,19.9203,80,0,
221.409,6.82159,2.5177,0.484,19.9203,80,0,
221.409,6.82129,2.5177,0.484,19.9203,80,0,
221.409,6.82068,2.51312,0.484,19.9203,80,0,
221.409,6.82098,2.51465,0.484,19.9203,80,0,
221.409,6.81671,2.51465,0.484,19.9203,80,0,
221.409,6.8158,2.51923,0.484,19.9203,80,0,
221.409,6.81641,2.5177,0.484,19.9203,80,0,
221.409,6.81671,2.51618,0.484,19.9203,80,0,
221.409,6.81671,2.5177,0.484,19.9203,80,0,
221.41,6.81335,2.51618,0.484,19.9203,80,0,
221.41,6.81091,2.51312,0.484,19.9203,80,0,
221.41,6.81183,2.5177,0.484,19.9203,80,0,
221.41,6.81152,2.51618,0.484,19.9203,80,0,
221.41,6.81091,2.51312,0.484,19.9203,80,0,
221.41,6.81213,2.51465,0.484,19.9203,80,0,
221.41,6.80725,2.5177,0.484,19.9203,80,0,
221.41,6.80756,2.51618,0.484,19.9203,80,0,
221.41,6.80634,2.51618,0.484,19.9203,80,0,
221.41,6.80603,2.51465,0.484,19.9203,80,0,
221.41,6.80634,2.51618,0.484,19.9203,80,0,
221.41,6.80206,2.51618,0.484,19.9203,80,0,
221.41,6.80115,2.51465,0.484,19.9203,80,0,
221.41,6.80206,2.52075,0.484,19.9203,80,0,
221.41,6.80237,2.51618,0.484,19.9203,80,0,
221.41,6.80176,2.51618,0.484,19.9203,80,0,
221.41,6.79779,2.51465,0.484,19.9203,80,0,
221.41,6.79657,2.51312,0.484,19.9203,80,0,
221.41,6.79718,2.51465,0.484,19.9203,80,0,
221.41,6.79657,2.51618,0.484,19.9203,80,0,
221.41,6.79718,2.5177,0.484,19.9203,80,0,
221.41,6.7923,2.51618,0.484,19.9203,80,0,
221.41,6.7926,2.51465,0.484,19.9203,80,0,
221.41,6.79199,2.51618,0.484,19.9203,80,0,
221.41,6.79199,2.51618,0.484,19.9203,80,0,
221.41,6.79169,2.52075,0.484,19.9203,80,0,
221.41,6.78741,2.51618,0.484,19.9203,80,0,
221.41,6.78711,2.51465,0.484,19.9203,80,0,
221.41,6.78711,2.51465,0.484,19.9203,80,0,
221.41,6.7868,2.51618,0.484,19.9203,80,0,
221.411,6.78772,2.51618,0.484,19.9203,80,0,
221.411,6.78253,2.51465,0.484,19.9203,80,0,
221.411,6.78162,2.51465,0.484,19.9203,80,0,
221.411,6.78192,2.5177,0.484,19.9203,80,0,
221.411,6.78131,2.51618,0.484,19.9203,80,0,
221.411,6.78192,2.51465,0.484,19.9203,80,0,
221.411,6.77795,2.51618,0.484,19.9203,80,0,
221.411,6.77734,2.51618,0.484,19.9203,80,0,
221.411,6.77765,2.51312,0.484,19.9203,80,0,
221.411,6.77643,2.5177,0.484,19.9203,80,0,
221.411,6.77734,2.5177,0.484,19.9203,80,0,
221.411,6.77246,2.51465,0.484,19.9203,80,0,
221.411,6.77246,2.51618,0.484,19.9203,80,0,
221.411,6.77185,2.51618,0.484,19.9203,80,0,
221.411,6.77155,2.51465,0.484,19.9203,80,0,
221.411,6.77185,2.51618,0.484,19.9203,80,0,
221.411,6.76758,2.51618,0.484,19.9203,80,0,
221.411,6.76666,2.51465,0.484,19.9203,80,0,
221.411,6.76758,2.5116,0.484,19.9203,80,0,
221.411,6.76819,2.5177,0.484,19.9203,80,0,
221.411,6.76483,2.51312,0.484,19.9203,80,0,
221.411,6.76239,2.51618,0.484,19.9203,80,0,
221.411,6.76208,2.51618,0.484,19.9203,80,0,
221.411,6.76208,2.51618,0.484,19.9203,80,0,
221.411,6.76239,2.51465,0.484,19.9203,80,0,
221.411,6.75781,2.51465,0.484,19.9203,80,0,
221.411,6.7572,2.51465,0.484,19.9203,80,0,
221.411,6.75751,2.51618,0.484,19.9203,80,0,
221.411,6.7572,2.51618,0.484,19.9203,80,0,
221.411,6.75507,2.5177,0.484,19.9203,80,0,
221.411,6.75323,2.51618,0.484,19.9203,80,0,
221.412,6.75232,2.52075,0.484,19.9203,80,0,
221.412,6.75262,2.5177,0.484,19.9203,80,0,
221.412,6.75262,2.51465,0.484,19.9203,80,0,
221.412,6.74805,2.51465,0.484,19.9203,80,0,
221.412,6.74774,2.51618,0.484,19.9203,80,0,
221.412,6.74805,2.51618,0.484,19.9203,80,0,
221.412,6.74866,2.51465,0.484,19.9203,80,0,
221.412,6.74255,2.51618,0.484,19.9203,80,0,
221.412,6.74164,2.51618,0.484,19.9203,80,0,
221.412,6.74316,2.51312,0.484,19.9203,80,0,
221.412,6.74316,2.51465,0.484,19.9203,80,0,
221.412,6.73737,2.51618,0.484,19.9203,80,0,
221.412,6.73828,2.51312,0.484,19.9203,80,0,
221.412,6.73828,2.51618,0.484,19.9203,80,0,
221.412,6.73828,2.51618,0.484,19.9203,80,0,
221.412,6.7337,2.51465,0.484,19.9203,80,0,
221.412,6.7337,2.51312,0.484,19.9203,80,0,
221.412,6.73309,2.51465,0.484,19.9203,80,0,
221.412,6.7337,2.51465,0.484,19.9203,80,0,
221.412,6.72852,2.51465,0.484,19.9203,80,0,
221.412,6.7276,2.5177,0.484,19.9203,80,0,
221.412,6.72791,2.5116,0.484,19.9203,80,0,
221.412,6.72882,2.51312,0.484,19.9203,80,0,
221.412,6.72363,2.51465,0.484,19.9203,80,0,
221.412,6.72363,2.5177,0.484,19.9203,80,0,
221.412,6.72302,2.51465,0.484,19.9203,80,0,
221.412,6.72119,2.51618,0.484,19.9203,80,0,
221.412,6.71967,2.5177,0.484,19.9203,80,0,
221.412,6.71844,2.51618,0.484,19.9203,80,0,
221.412,6.71783,2.51465,0.484,19.9203,80,0,
221.413,6.71448,2.5177,0.484,19.9203,80,0,
221.413,6.71387,2.51618,0.484,19.9203,80,0,
221.413,6.71356,2.51465,0.484,19.9203,80,0,
221.413,6.71417,2.51618,0.484,19.9203,80,0,
221.413,6.70868,2.5177,0.484,19.9203,80,0,
221.413,6.70837,2.51465,0.484,19.9203,80,0,
221.413,6.70898,2.51465,0.484,19.9203,80,0,
221.413,6.70593,2.5177,0.484,19.9203,80,0,
221.413,6.70349,2.51312,0.484,19.9203,80,0,
221.413,6.70349,2.51618,0.484,19.9203,80,0,
221.413,6.7041,2.51465,0.484,19.9203,80,0,
221.413,6.69983,2.51618,0.484,19.9203,80,0,
221.413,6.6983,2.51465,0.484,19.9203,80,0,
221.413,6.69891,2.51465,0.484,19.9203,80,0,
221.413,6.69586,2.5177,0.484,19.9203,80,0,
221.413,6.69342,2.51465,0.484,19.9203,80,0,
221.413,6.69342,2.51312,0.484,19.9203,80,0,
221.413,6.69403,2.5177,0.484,19.9203,80,0,
221.413,6.68823,2.51618,0.484,19.9203,80,0,
221.413,6.68854,2.5177,0.484,19.9203,80,0,
221.413,6.68884,2.51618,0.484,19.9203,80,0,
221.413,6.68457,2.51618,0.484,19.9203,80,0,
221.413,6.68457,2.51618,0.484,19.9203,80,0,
221.413,6.68396,2.51618,0.484,19.9203,80,0,
221.413,6.68152,2.51465,0.484,19.9203,80,0,
221.413,6.67908,2.51465,0.484,19.9203,80,0,
221.413,6.67938,2.51312,0.484,19.9203,80,0,
221.413,6.67908,2.51465,0.484,19.9203,80,0,
221.413,6.67358,2.51312,0.484,19.9203,80,0,
221.413,6.67419,2.51465,0.484,19.9203,80,0,
221.414,6.67419,2.5177,0.484,19.9203,80,0,
221.414,6.66992,2.51465,0.484,19.9203,80,0,
221.414,6.66962,2.51465,0.484,19.9203,80,0,
221.414,6.6687,2.51312,0.484,19.9203,80,0,
221.414,6.66626,2.51465,0.484,19.9203,80,0,
221.414,6.66443,2.51465,0.484,19.9203,80,0,
221.414,6.66473,2.51465,0.484,19.9203,80,0,
221.414,6.66443,2.51465,0.484,19.9203,80,0,
221.414,6.65955,2.51618,0.484,19.9203,80,0,
221.414,6.66016,2.51618,0.484,19.9203,80,0,
221.414,6.65955,2.52075,0.484,19.9203,80,0,
221.414,6.65558,2.5177,0.484,19.9203,80,0,
221.414,6.65436,2.51923,0.484,19.9203,80,0,
221.414,6.65497,2.5177,0.484,19.9203,80,0,
221.414,6.65161,2.5177,0.484,19.9203,80,0,
221.414,6.64948,2.51618,0.484,19.9203,80,0,
221.414,6.64948,2.51618,0.484,19.9203,80,0,
221.414,6.64673,2.51618,0.484,19.9203,80,0,
221.414,6.64459,2.5177,0.484,19.9203,80,0,
221.414,6.64551,2.51618,0.484,19.9203,80,0,
221.414,6.64459,2.51618,0.484,19.9203,80,0,
221.414,6.63971,2.51465,0.484,19.9203,80,0,
221.414,6.63971,2.51465,0.484,19.9203,80,0,
221.414,6.6394,2.5177,0.484,19.9203,80,0,
221.414,6.63513,2.51923,0.484,19.9203,80,0,
221.414,6.63513,2.51618,0.484,19.9203,80,0,
221.414,6.63513,2.5116,0.484,19.9203,80,0,
221.414,6.63086,2.51465,0.484,19.9203,80,0,
221.414,6.62964,2.5177,0.484,19.9203,80,0,
221.415,6.63025,2.51312,0.484,19.9203,80,0,
221.415,6.62537,2.51618,0.484,19.9203,80,0,
221.415,6.62445,2.51618,0.484,19.9203,80,0,
221.415,6.62567,2.5177,0.484,19.9203,80,0,
221.415,6.62048,2.5177,0.484,19.9203,80,0,
221.415,6.62109,2.51312,0.484,19.9203,80,0,
221.415,6.62018,2.51923,0.484,19.9203,80,0,
221.415,6.61804,2.51465,0.484,19.9203,80,0,
221.415,6.61499,2.51465,0.484,19.9203,80,0,
221.415,6.61591,2.51618,0.484,19.9203,80,0,
221.415,6.61316,2.51618,0.484,19.9203,80,0,
221.415,6.6098,2.5177,0.484,19.9203,80,0,
221.415,6.6098,2.5177,0.484,19.9203,80,0,
221.415,6.60767,2.51618,0.484,19.9203,80,0,
221.415,6.60522,2.51618,0.484,19.9203,80,0,
221.415,6.60522,2.5177,0.484,19.9203,80,0,
221.415,6.60522,2.51618,0.484,19.9203,80,0,
221.415,6.60034,2.5177,0.484,19.9203,80,0,
221.415,6.60065,2.51618,0.484,19.9203,80,0,
221.415,6.60065,2.51923,0.484,19.9203,80,0,
221.415,6.59607,2.5177,0.484,19.9203,80,0,
221.415,6.59546,2.51618,0.484,19.9203,80,0,
221.415,6.59485,2.51618,0.484,19.9203,80,0,
221.415,6.59058,2.52075,0.484,19.9203,80,0,
221.415,6.5918,2.51312,0.484,19.9203,80,0,
221.415,6.58997,2.51465,0.484,19.9203,80,0,
221.415,6.58569,2.5177,0.484,19.9203,80,0,
221.415,6.586,2.51618,0.484,19.9203,80,0,
221.415,6.58508,2.51312,0.484,19.9203,80,0,
221.415,6.58081,2.51618,0.484,19.9203,80,0,
221.416,6.58081,2.51465,0.484,19.9203,80,0,
221.416,6.58051,2.51465,0.484,19.9203,80,0,
221.416,6.57593,2.51465,0.484,19.9203,80,0,
221.416,6.57562,2.51618,0.484,19.9203,80,0,
221.416,6.57562,2.51465,0.484,19.9203,80,0,
221.416,6.57135,2.51465,0.484,19.9203,80,0,
221.416,6.57135,2.51312,0.484,19.9203,80,0,
221.416,6.57074,2.51465,0.484,19.9203,80,0,
221.416,6.56677,2.51465,0.484,19.9203,80,0,
221.416,6.56647,2.51465,0.484,19.9203,80,0,
221.416,6.56677,2.5177,0.484,19.9203,80,0,
221.416,6.56158,2.51618,0.484,19.9203,80,0,
221.416,6.56189,2.51465,0.484,19.9203,80,0,
221.416,6.56158,2.51465,0.484,19.9203,80,0,
221.416,6.55731,2.51465,0.484,19.9203,80,0,
221.416,6.55701,2.51618,0.484,19.9203,80,0,
221.416,6.55701,2.51312,0.484,19.9203,80,0,
221.416,6.55182,2.51618,0.484,19.9203,80,0,
221.416,6.55151,2.51618,0.484,19.9203,80,0,
221.416,6.55121,2.51618,0.484,19.9203,80,0,
221.416,6.54785,2.5177,0.484,19.9203,80,0,
221.416,6.54694,2.51618,0.484,19.9203,80,0,
221.416,6.54755,2.51618,0.484,19.9203,80,0,
221.416,6.54449,2.51618,0.484,19.9203,80,0,
221.416,6.54236,2.51618,0.484,19.9203,80,0,
221.416,6.54175,2.51465,0.484,19.9203,80,0,
221.416,6.53931,2.51618,0.484,19.9203,80,0,
221.416,6.53625,2.51465,0.484,19.9203,80,0,
221.416,6.53687,2.51465,0.484,19.9203,80,0,
221.416,6.53656,2.51312,0.484,19.9203,80,0,
221.417,6.53229,2.51618,0.484,19.9203,80,0,
221.417,6.53229,2.51465,0.484,19.9203,80,0,
221.417,6.53198,2.51465,0.484,19.9203,80,0,
221.417,6.5271,2.51465,0.484,19.9203,80,0,
221.417,6.52679,2.51618,0.484,19.9203,80,0,
221.417,6.52771,2.51618,0.484,19.9203,80,0,
221.417,6.52252,2.51465,0.484,19.9203,80,0,
221.417,6.52161,2.51618,0.484,19.9203,80,0,
221.417,6.52222,2.51465,0.484,19.9203,80,0,
221.417,6.51855,2.51618,0.484,19.9203,80,0,
221.417,6.51733,2.51618,0.484,19.9203,80,0,
221.417,6.51764,2.51923,0.484,19.9203,80,0,
221.417,6.51459,2.5177,0.484,19.9203,80,0,
221.417,6.51245,2.51923,0.484,19.9203,80,0,
221.417,6.51306,2.51618,0.484,19.9203,80,0,
221.417,6.51245,2.51465,0.484,19.9203,80,0,
221.417,6.50696,2.5177,0.484,19.9203,80,0,
221.417,6.50696,2.5177,0.484,19.9203,80,0,
221.417,6.50726,2.51465,0.484,19.9203,80,0,
221.417,6.5036,2.51618,0.484,19.9203,80,0,
221.417,6.50299,2.51618,0.484,19.9203,80,0,
221.417,6.50269,2.51465,0.484,19.9203,80,0,
221.417,6.49872,2.51465,0.484,19.9203,80,0,
221.417,6.4978,2.51618,0.484,19.9203,80,0,
221.417,6.4975,2.51465,0.484,19.9203,80,0,
221.417,6.49536,2.5116,0.484,19.9203,80,0,
221.417,6.49261,2.51312,0.484,19.9203,80,0,
221.417,6.49323,2.51465,0.484,19.9203,80,0,
221.417,6.49261,2.5177,0.484,19.9203,80,0,
221.417,6.48804,2.5177,0.484,19.9203,80,0,
221.417,6.48804,2.51312,0.484,19.9203,80,0,
221.418,6.48773,2.51465,0.484,19.9203,80,0,
221.418,6.48407,2.5177,0.484,19.9203,80,0,
221.418,6.48315,2.51465,0.484,19.9203,80,0,
221.418,6.48315,2.5177,0.484,19.9203,80,0,
221.418,6.48102,2.51618,0.484,19.9203,80,0,
221.418,6.47919,2.51618,0.484,19.9203,80,0,
221.418,6.47827,2.51618,0.484,19.9203,80,0,
221.418,6.47827,2.51618,0.484,19.9203,80,0,
221.418,6.47461,2.51618,0.484,19.9203,80,0,
221.418,6.47369,2.51465,0.484,19.9203,80,0,
221.418,6.47369,2.51618,0.484,19.9203,80,0,
221.418,6.47034,2.51618,0.484,19.9203,80,0,
221.418,6.46881,2.51923,0.484,19.9203,80,0,
221.418,6.4682,2.51618,0.484,19.9203,80,0,
221.418,6.46851,2.51618,0.484,19.9203,80,0,
221.418,6.46332,2.51618,0.484,19.9203,80,0,
221.418,6.46332,2.5177,0.484,19.9203,80,0,
221.418,6.46362,2.51312,0.484,19.9203,80,0,
221.418,6.46118,2.51618,0.484,19.9203,80,0,
221.418,6.45782,2.51923,0.484,19.9203,80,0,
221.418,6.45844,2.5177,0.484,19.9203,80,0,
221.418,6.45844,2.51465,0.484,19.9203,80,0,
221.418,6.45416,2.51465,0.484,19.9203,80,0,
221.418,6.45355,2.51618,0.484,19.9203,80,0,
221.418,6.45416,2.51618,0.484,19.9203,80,0,
221.418,6.45325,2.51618,0.484,19.9203,80,0,
221.418,6.44836,2.5177,0.484,19.9203,80,0,
221.418,6.44897,2.5177,0.484,19.9203,80,0,
221.418,6.44867,2.5177,0.484,19.9203,80,0,
221.418,6.44623,2.51618,0.484,19.9203,80,0,
221.419,6.44318,2.51618,0.484,19.9203,80,0,
221.419,6.44379,2.51618,0.484,19.9203,80,0,
221.419,6.44348,2.51465,0.484,19.9203,80,0,
221.419,6.4389,2.51312,0.484,19.9203,80,0,
221.419,6.4389,2.51465,0.484,19.9203,80,0,
221.419,6.43799,2.5177,0.484,19.9203,80,0,
221.419,6.4386,2.51618,0.484,19.9203,80,0,
221.419,6.43463,2.51465,0.484,19.9203,80,0,
221.419,6.43433,2.51618,0.484,19.9203,80,0,
221.419,6.43433,2.5116,0.484,19.9203,80,0,
221.419,6.43402,2.51465,0.484,19.9203,80,0,
221.419,6.42944,2.51465,0.484,19.9203,80,0,
221.419,6.42944,2.5177,0.484,19.9203,80,0,
221.419,6.42944,2.52075,0.484,19.9203,80,0,
221.419,6.42883,2.5177,0.484,19.9203,80,0,
221.419,6.42456,2.51618,0.484,19.9203,80,0,
221.419,6.42395,2.51465,0.484,19.9203,80,0,
221.419,6.42426,2.5177,0.484,19.9203,80,0,
221.419,6.42487,2.5177,0.484,19.9203,80,0,
221.419,6.41968,2.51465,0.484,19.9203,80,0,
221.419,6.41907,2.5177,0.484,19.9203,80,0,
221.419,6.41937,2.51465,0.484,19.9203,80,0,
221.419,6.41968,2.51618,0.484,19.9203,80,0,
221.419,6.41418,2.51465,0.484,19.9203,80,0,
221.419,6.41479,2.51312,0.484,19.9203,80,0,
221.419,6.41479,2.5177,0.484,19.9203,80,0,
221.419,6.41479,2.5177,0.484,19.9203,80,0,
221.419,6.41052,2.5177,0.484,19.9203,80,0,
221.419,6.40991,2.51923,0.484,19.9203,80,0,
221.419,6.40991,2.5177,0.484,19.9203,80,0,
221.42,6.40991,2.51923,0.484,19.9203,80,0,
221.42,6.40564,2.51618,0.484,19.9203,80,0,
221.42,6.40472,2.5177,0.484,19.9203,80,0,
221.42,6.40533,2.51465,0.484,19.9203,80,0,
221.42,6.40503,2.51618,0.484,19.9203,80,0,
221.42,6.40259,2.51618,0.484,19.9203,80,0,
221.42,6.40015,2.51923,0.484,19.9203,80,0,
221.42,6.40045,2.5177,0.484,19.9203,80,0,
221.42,6.39984,2.5177,0.484,19.9203,80,0,
221.42,6.40015,2.51312,0.484,19.9203,80,0,
221.42,6.39526,2.51465,0.484,19.9203,80,0,
221.42,6.39526,2.5116,0.484,19.9203,80,0,
221.42,6.39526,2.51618,0.484,19.9203,80,0,
221.42,6.39526,2.51312,0.484,19.9203,80,0,
221.42,6.38977,2.51465,0.484,19.9203,80,0,
221.42,6.38977,2.51618,0.484,19.9203,80,0,
221.42,6.39038,2.51618,0.484,19.9203,80,0,
221.42,6.39069,2.51618,0.484,19.9203,80,0,
221.42,6.38733,2.51465,0.484,19.9203,80,0,
221.42,6.38489,2.51312,0.484,19.9203,80,0,
221.42,6.3855,2.51618,0.484,19.9203,80,0,
221.42,6.3858,2.51618,0.484,19.9203,80,0,
221.42,6.38519,2.51618,0.484,19.9203,80,0,
221.42,6.38031,2.51618,0.484,19.9203,80,0,
221.42,6.38031,2.51312,0.484,19.9203,80,0,
221.42,6.38,2.51312,0.484,19.9203,80,0,
221.42,6.38031,2.51618,0.484,19.9203,80,0,
221.42,6.38062,2.5177,0.484,19.9203,80,0,
221.42,6.37543,2.51312,0.484,19.9203,80,0,
221.421,6.37573,2.5177,0.484,19.9203,80,0,
221.421,6.37573,2.51618,0.484,19.9203,80,0,
221.421,6.37451,2.51465,0.484,19.9203,80,0,
221.421,6.37238,2.51465,0.484,19.9203,80,0,
221.421,6.37054,2.51618,0.484,19.9203,80,0,
221.421,6.37024,2.51465,0.484,19.9203,80,0,
221.421,6.37054,2.51465,0.484,19.9203,80,0,
221.421,6.37024,2.51465,0.484,19.9203,80,0,
221.421,6.3678,2.51312,0.484,19.9203,80,0,
221.421,6.36597,2.51465,0.484,19.9203,80,0,
221.421,6.36597,2.51312,0.484,19.9203,80,0,
221.421,6.36505,2.51312,0.484,19.9203,80,0,
221.421,6.36566,2.5177,0.484,19.9203,80,0,
221.421,6.36322,2.51465,0.484,19.9203,80,0,
221.421,6.36108,2.51465,0.484,19.9203,80,0,
221.421,6.36108,2.51465,0.484,19.9203,80,0,
221.421,6.36047,2.51618,0.484,19.9203,80,0,
221.421,6.36108,2.51618,0.484,19.9203,80,0,
221.421,6.36078,2.51618,0.484,19.9203,80,0,
221.421,6.35529,2.51618,0.484,19.9203,80,0,
221.421,6.35559,2.51618,0.484,19.9203,80,0,
221.421,6.3559,2.5177,0.484,19.9203,80,0,
221.421,6.3559,2.51465,0.484,19.9203,80,0,
221.421,6.35559,2.51465,0.484,19.9203,80,0,
221.421,6.35132,2.51007,0.484,19.9203,80,0,
221.421,6.35101,2.51465,0.484,19.9203,80,0,
221.421,6.35101,2.51618,0.484,19.9203,80,0,
221.421,6.3501,2.51465,0.484,19.9203,80,0,
221.421,6.35101,2.51465,0.484,19.9203,80,0,
221.421,6.34674,2.5177,0.484,19.9203,80,0,
221.422,6.34674,2.51312,0.484,19.9203,80,0,
221.422,6.34674,2.51923,0.484,19.9203,80,0,
221.422,6.34644,2.51923,0.484,19.9203,80,0,
221.422,6.34674,2.51923,0.484,19.9203,80,0,
221.422,6.34613,2.51618,0.484,19.9203,80,0,
221.422,6.34125,2.5177,0.484,19.9203,80,0,
221.422,6.34125,2.51465,0.484,19.9203,80,0,
221.422,6.34155,2.51312,0.484,19.9203,80,0,
221.422,6.34064,2.51465,0.484,19.9203,80,0,
221.422,6.34125,2.51465,0.484,19.9203,80,0,
221.422,6.34094,2.51618,0.484,19.9203,80,0,
221.422,6.33606,2.5177,0.484,19.9203,80,0,
221.422,6.33575,2.51465,0.484,19.9203,80,0,
221.422,6.33606,2.51312,0.484,19.9203,80,0,
221.422,6.33667,2.51618,0.484,19.9203,80,0,
221.422,6.33606,2.51618,0.484,19.9203,80,0,
221.422,6.33606,2.51465,0.484,19.9203,80,0,
221.422,6.33148,2.51465,0.484,19.9203,80,0,
221.422,6.33087,2.5177,0.484,19.9203,80,0,
221.422,6.33148,2.5177,0.484,19.9203,80,0,
221.422,6.33148,2.51007,0.484,19.9203,80,0,
221.422,6.33118,2.51312,0.484,19.9203,80,0,
221.422,6.33179,2.5177,0.484,19.9203,80,0,
221.422,6.32935,2.51465,0.484,19.9203,80,0,
221.422,6.3266,2.51618,0.484,19.9203,80,0,
221.422,6.3266,2.51618,0.484,19.9203,80,0,
221.422,6.32568,2.51465,0.484,19.9203,80,0,
221.422,6.3266,2.51618,0.484,19.9203,80,0,
221.422,6.32599,2.51312,0.484,19.9203,80,0,
221.422,6.32629,2.51465,0.484,19.9203,80,0,
221.423,6.32355,2.51618,0.484,19.9203,80,0,
221.423,6.32141,2.51618,0.484,19.9203,80,0,
221.423,6.32172,2.51618,0.484,19.9203,80,0,
221.423,6.32141,2.51618,0.484,19.9203,80,0,
221.423,6.32141,2.51618,0.484,19.9203,80,0,
221.423,6.32141,2.51465,0.484,19.9203,80,0,
221.423,6.32172,2.51923,0.484,19.9203,80,0,
221.423,6.32172,2.5177,0.484,19.9203,80,0,
221.423,6.31622,2.51923,0.484,19.9203,80,0,
221.423,6.31622,2.51618,0.484,19.9203,80,0,
221.423,6.31744,2.51618,0.484,19.9203,80,0,
221.423,6.31714,2.5177,0.484,19.9203,80,0,
221.423,6.31622,2.51312,0.484,19.9203,80,0,
221.423,6.31683,2.51465,0.484,19.9203,80,0,
221.423,6.31714,2.51465,0.484,19.9203,80,0,
221.423,6.31622,2.51465,0.484,19.9203,80,0,
221.423,6.31165,2.5177,0.484,19.9203,80,0,
221.423,6.31165,2.51618,0.484,19.9203,80,0,
221.423,6.31226,2.51618,0.484,19.9203,80,0,
221.423,6.31165,2.51618,0.484,19.9203,80,0,
221.423,6.31165,2.51465,0.484,19.9203,80,0,
221.423,6.31165,2.51465,0.484,19.9203,80,0,
221.423,6.31195,2.5177,0.484,19.9203,80,0,
221.423,6.31195,2.51618,0.484,19.9203,80,0,
221.423,6.30737,2.5177,0.484,19.9203,80,0,
221.423,6.30646,2.5177,0.484,19.9203,80,0,
221.423,6.30646,2.51618,0.484,19.9203,80,0,
221.423,6.30707,2.51618,0.484,19.9203,80,0,
221.423,6.30676,2.51618,0.484,19.9203,80,0,
221.423,6.30707,2.5177,0.484,19.9203,80,0,
221.423,6.30676,2.51465,0.484,19.9203,80,0,
221.424,6.30737,2.5177,0.484,19.9203,80,0,
221.424,6.30798,2.51923,0.484,19.9203,80,0,
221.424,6.30432,2.51312,0.484,19.9203,80,0,
221.424,6.30188,2.51618,0.484,19.9203,80,0,
221.424,6.30188,2.51465,0.484,19.9203,80,0,
221.424,6.30188,2.5177,0.484,19.9203,80,0,
221.424,6.30188,2.51465,0.484,19.9203,80,0,
221.424,6.30219,2.51465,0.484,19.9203,80,0,
221.424,6.30219,2.51618,0.484,19.9203,80,0,
221.424,6.30188,2.51312,0.484,19.9203,80,0,
221.424,6.30219,2.51618,0.484,19.9203,80,0,
221.424,6.3028,2.5177,0.484,19.9203,80,0,
221.424,6.30219,2.51618,0.484,19.9203,80,0,
221.424,6.29761,2.5116,0.484,19.9203,80,0,
221.424,6.29761,2.51618,0.484,19.9203,80,0,
221.424,6.29639,2.51465,0.484,19.9203,80,0,
221.424,6.29761,2.51618,0.484,19.9203,80,0,
221.424,6.29761,2.51465,0.484,19.9203,80,0,
221.424,6.29791,2.5177,0.484,19.9203,80,0,
221.424,6.2973,2.51618,0.484,19.9203,80,0,
221.424,6.2973,2.51923,0.484,19.9203,80,0,
221.424,6.2973,2.51618,0.484,19.9203,80,0,
221.424,6.2973,2.51465,0.484,19.9203,80,0,
221.424,6.2973,2.5177,0.484,19.9203,80,0,
221.424,6.2973,2.51465,0.484,19.9203,80,0,
221.424,6.29211,2.51465,0.484,19.9203,80,0,
221.424,6.29303,2.5116,0.484,19.9203,80,0,
221.424,6.29242,2.51923,0.484,19.9203,80,0,
221.424,6.29242,2.51312,0.484,19.9203,80,0,
221.424,6.29181,2.5116,0.484,19.9203,80,0,
221.425,6.29211,2.51618,0.484,19.9203,80,0,
221.425,6.2915,2.5116,0.484,19.9203,80,0,
221.425,6.29242,2.51312,0.484,19.9203,80,0,
221.425,6.29211,2.51312,0.484,19.9203,80,0,
221.425,6.29242,2.51618,0.484,19.9203,80,0,
221.425,6.29211,2.51465,0.484,19.9203,80,0,
221.425,6.29242,2.51923,0.484,19.9203,80,0,
221.425,6.29211,2.5116,0.484,19.9203,80,0,
221.425,6.29211,2.51312,0.484,19.9203,80,0,
221.425,6.28784,2.5177,0.484,19.9203,80,0,
221.425,6.28784,2.5177,0.484,19.9203,80,0,
221.425,6.28723,2.51465,0.484,19.9203,80,0,
221.425,6.28754,2.51312,0.484,19.9203,80,0,
221.425,6.28723,2.5116,0.484,19.9203,80,0,
221.425,6.28693,2.5177,0.484,19.9203,80,0,
221.425,6.28754,2.51618,0.484,19.9203,80,0,
221.425,6.28754,2.51465,0.484,19.9203,80,0,
221.425,6.28754,2.51312,0.484,19.9203,80,0,
221.425,6.28662,2.5177,0.484,19.9203,80,0,
221.425,6.28693,2.51465,0.484,19.9203,80,0,
221.425,6.28754,2.51923,0.484,19.9203,80,0,
221.425,6.28754,2.51465,0.484,19.9203,80,0,
221.425,6.28693,2.51465,0.484,19.9203,80,0,
221.425,6.28723,2.51465,0.484,19.9203,80,0,
221.425,6.28174,2.5116,0.484,19.9203,80,0,
221.425,6.28296,2.51465,0.484,19.9203,80,0,
221.425,6.28204,2.51465,0.484,19.9203,80,0,
221.425,6.28235,2.51312,0.484,19.9203,80,0,
221.425,6.28296,2.51312,0.484,19.9203,80,0,
221.425,6.28296,2.51618,0.484,19.9203,80,0,
221.426,6.28235,2.5177,0.484,19.9203,80,0,
221.426,6.28204,2.51465,0.484,19.9203,80,0,
221.426,6.28265,2.51465,0.484,19.9203,80,0,
221.426,6.28265,2.51312,0.484,19.9203,80,0,
221.426,6.28265,2.51465,0.484,19.9203,80,0,
221.426,6.28204,2.51312,0.484,19.9203,80,0,
221.426,6.28235,2.51465,0.484,19.9203,80,0,
221.426,6.28265,2.5177,0.484,19.9203,80,0,
221.426,6.27747,2.51465,0.484,19.9203,80,0,
221.426,6.27838,2.51465,0.484,19.9203,80,0,
221.426,6.27747,2.51465,0.484,19.9203,80,0,
221.426,6.27716,2.51618,0.484,19.9203,80,0,
221.426,6.27686,2.51618,0.484,19.9203,80,0,
221.426,6.27808,2.5177,0.484,19.9203,80,0,
221.426,6.27716,2.51923,0.484,19.9203,80,0,
221.426,6.27716,2.51618,0.484,19.9203,80,0,
221.426,6.27716,2.51618,0.484,19.9203,80,0,
221.426,6.27747,2.51465,0.484,19.9203,80,0,
221.426,6.27808,2.5177,0.484,19.9203,80,0,
221.426,6.27777,2.51618,0.484,19.9203,80,0,
221.426,6.27747,2.51465,0.484,19.9203,80,0,
221.426,6.27228,2.51465,0.484,19.9203,80,0,
221.426,6.27258,2.5177,0.484,19.9203,80,0,
221.426,6.27289,2.51618,0.484,19.9203,80,0,
221.426,6.27289,2.51465,0.484,19.9203,80,0,
221.426,6.27289,2.51465,0.484,19.9203,80,0,
221.426,6.27319,2.5177,0.484,19.9203,80,0,
221.426,6.27258,2.51465,0.484,19.9203,80,0,
221.426,6.27258,2.51465,0.484,19.9203,80,0,
221.427,6.27228,2.51618,0.484,19.9203,80,0,
221.427,6.27258,2.51618,0.484,19.9203,80,0,
221.427,6.27258,2.51618,0,19.9203,80,0,
221.427,6.26862,2.5177,0,19.9203,80,0,
221.427,6.2674,2.5177,0,19.9203,80,0,
221.427,6.26709,2.51618,0,19.9203,80,0,
221.427,6.2674,2.5177,0,19.9203,80,0,
221.427,6.26801,2.51465,0,19.9203,80,0,
221.427,6.26801,2.51312,0,19.9203,80,0,
221.427,6.2677,2.51465,0,19.9203,80,0,
221.427,6.26801,2.51923,0,19.9203,80,0,
221.427,6.26801,2.51618,0,19.9203,80,0,
221.427,6.26801,2.5177,0,19.9203,80,0,
221.427,6.26495,2.51618,0,19.9203,80,0,
221.427,6.26221,2.51465,0,19.9203,80,0,
221.427,6.26251,2.5177,0,19.9203,80,0,
221.427,6.26251,2.51465,0,19.9203,80,0,
221.427,6.26282,2.51312,0,19.9203,80,0,
221.427,6.26251,2.50549,0,19.9203,80,0,
221.427,6.26312,2.50397,0,19.9203,80,0,
221.427,6.26312,2.50397,0,19.9203,80,0,
221.427,6.26251,2.50092,0,19.9203,80,0,
221.427,6.2619,2.50244,0,19.9203,80,0,
221.427,6.25885,2.50397,0,19.9203,80,0,
221.427,6.25671,2.51618,0,19.9203,80,0,
221.427,6.25793,2.51618,0,19.9203,80,0,
221.427,6.25732,2.51618,0,19.9203,80,0,
221.427,6.25824,2.51618,0,19.9203,80,0,
221.427,6.25763,2.50549,0,19.9203,80,0,
221.427,6.25793,2.49939,0,19.9203,80,0,
221.428,6.25702,2.50397,0,19.9203,80,0,
221.428,6.25793,2.50549,0,19.9203,80,0,
221.428,6.25519,2.50549,0,19.9203,80,0,
221.428,6.25275,2.50397,0,19.9203,80,0,
221.428,6.25336,2.49939,0,19.9203,80,0,
221.428,6.25336,2.50549,0,19.9203,80,0,
221.428,6.25275,2.50549,0,19.9203,80,0,
221.428,6.25244,2.51465,0,19.9203,80,0,
221.428,6.25336,2.51312,0,19.9203,80,0,
221.428,6.25275,2.51923,0,19.9203,80,0,
221.428,6.25305,2.51618,0,19.9203,80,0,
221.428,6.25305,2.51618,0,19.9203,80,0,
221.428,6.24847,2.51465,0,19.9203,80,0,
221.428,6.24725,2.5177,0,19.9203,80,0,
221.428,6.24847,2.50397,0,19.9203,80,0,
221.428,6.24847,2.50397,0,19.9203,80,0,
221.428,6.24817,2.50397,0,19.9203,80,0,
221.428,6.24786,2.50549,0,19.9203,80,0,
221.428,6.24786,2.50244,0,19.9203,80,0,
221.428,6.24786,2.50397,0,19.9203,80,0,
221.428,6.24817,2.50244,0,19.9203,80,0,
221.428,6.2439,2.50397,0,19.9203,80,0,
221.428,6.24329,2.50244,0,19.9203,80,0,
221.428,6.24329,2.50702,0,19.9203,80,0,
221.428,6.24298,2.50397,0,19.9203,80,0,
221.428,6.24298,2.50397,0,19.9203,80,0,
221.428,6.24298,2.50549,0,19.9203,80,0,
221.428,6.24329,2.50397,0,19.9203,80,0,
221.428,6.24329,2.50702,0,19.9203,80,0,
221.428,6.24298,2.50549,0,19.9203,80,0,
221.429,6.24084,2.50702,0,19.9203,80,0,
221.429,6.2381,2.50092,0,19.9203,80,0,
221.429,6.23871,2.50397,0,19.9203,80,0,
221.429,6.2384,2.50549,0,19.9203,80,0,
221.429,6.23779,2.49939,0,19.9203,80,0,
221.429,6.2384,2.50244,0,19.9203,80,0,
221.429,6.23779,2.50549,0,19.9203,80,0,
221.429,6.2384,2.50702,0,19.9203,80,0,
221.429,6.23779,2.50702,0,19.9203,80,0,
221.429,6.2384,2.5177,0,19.9203,80,0,
221.429,6.23352,2.51618,0,19.9203,80,0,
221.429,6.23322,2.5177,0,19.9203,80,0,
221.429,6.23352,2.51465,0,19.9203,80,0,
221.429,6.23322,2.51618,0,19.9203,80,0,
221.429,6.23352,2.51465,0,19.9203,80,0,
221.429,6.23383,2.51312,0,19.9203,80,0,
221.429,6.23322,2.5177,0,19.9203,80,0,
221.429,6.23352,2.51465,0,19.9203,80,0,
221.429,6.23383,2.51618,0,19.9203,80,0,
221.429,6.23077,2.51923,2.402,19.9203,80,0,
221.429,6.22864,2.51618,2.402,19.9203,80,0,
221.429,6.22925,2.51618,2.402,19.9203,80,0,
221.429,6.22894,2.51618,2.402,19.9203,80,0,
221.429,6.22864,2.51465,2.402,19.9203,80,0,
221.429,6.22864,2.50549,2.402,19.9203,80,0,
221.429,6.22925,2.50244,2.402,19.9203,80,0,
221.429,6.22864,2.50549,2.402,19.9203,80,0,
221.429,6.22833,2.50092,2.402,19.9203,80,0,
221.429,6.22864,2.50244,2.402,19.9203,80,0,
221.429,6.22559,2.50397,2.402,19.9203,80,0,
221.429,6.22375,2.50244,2.402,19.9203,80,0,
221.43,6.22375,2.50549,2.402,19.9203,80,0,
221.43,6.22437,2.50397,2.402,19.9203,80,0,
221.43,6.22375,2.50549,2.402,19.9203,80,0,
221.43,6.22375,2.50244,2.402,19.9203,80,0,
221.43,6.22406,2.50397,2.402,19.9203,80,0,
221.43,6.22406,2.50244,2.402,19.9203,80,0,
221.43,6.22406,2.50549,2.402,19.9203,80,0,
221.43,6.22375,2.50397,2.402,19.9203,80,0,
221.43,6.22375,2.50549,2.402,19.9203,80,0,
221.43,6.21887,2.50549,2.402,19.9203,80,0,
221.43,6.21857,2.50397,2.402,19.9203,80,0,
221.43,6.21918,2.50397,2.402,19.9203,80,0,
221.43,6.21857,2.50549,2.402,19.9203,80,0,
221.43,6.21887,2.50244,2.402,19.9203,80,0,
221.43,6.21887,2.50549,2.402,19.9203,80,0,
221.43,6.21887,2.50244,2.402,19.9203,80,0,
221.43,6.21857,2.50397,2.402,19.9203,80,0,
221.43,6.21826,2.50549,2.402,19.9203,80,0,
221.43,6.21918,2.50244,2.402,19.9203,80,0,
221.43,6.21918,2.50397,2.402,19.9203,80,0,
221.43,6.21368,2.50549,2.402,19.9203,80,0,
221.43,6.21429,2.50549,2.402,19.9203,80,0,
221.43,6.21368,2.50244,2.402,19.9203,80,0,
221.43,6.21368,2.50549,2.402,19.9203,80,0,
221.43,6.21368,2.50244,2.402,19.9203,80,0,
221.43,6.21368,2.50244,2.402,19.9203,80,0,
221.43,6.21368,2.50244,2.402,19.9203,80,0,
221.43,6.21338,2.50702,2.402,19.9203,80,0,
221.43,6.21399,2.50549,2.402,19.9203,80,0,
221.43,6.21399,2.50397,2.402,19.9203,80,0,
221.431,6.21368,2.50397,2.402,19.9203,80,0,
221.431,6.21368,2.50397,2.402,19.9203,80,0,
221.431,6.2088,2.50244,2.402,19.9203,80,0,
221.431,6.20911,2.50244,2.402,19.9203,80,0,
221.431,6.20941,2.50397,2.402,19.9203,80,0,
221.431,6.20911,2.50549,2.402,19.9203,80,0,
221.431,6.20911,2.50549,2.402,19.9203,80,0,
221.431,6.20941,2.50549,2.402,19.9203,80,0,
221.431,6.2088,2.50244,2.402,19.9203,80,0,
221.431,6.20911,2.50092,2.402,19.9203,80,0,
221.431,6.2088,2.50549,2.402,19.9203,80,0,
221.431,6.20972,2.50549,2.402,19.9203,80,0,
221.431,6.2085,2.50549,2.402,19.9203,80,0,
221.431,6.20911,2.50397,2.402,19.9203,80,0,
221.431,6.20911,2.50244,2.402,19.9203,80,0,
221.431,6.20422,2.50549,2.402,19.9203,80,0,
221.431,6.20422,2.50244,2.402,19.9203,80,0,
221.431,6.20392,2.50244,2.402,19.9203,80,0,
221.431,6.20392,2.50397,2.402,19.9203,80,0,
221.431,6.20331,2.50397,2.402,19.9203,80,0,
221.431,6.20392,2.50549,2.402,19.9203,80,0,
221.431,6.20361,2.50397,2.402,19.9203,80,0,
221.431,6.20361,2.50549,2.402,19.9203,80,0,
221.431,6.20392,2.50549,2.402,19.9203,80,0,
221.431,6.20392,2.50092,2.402,19.9203,80,0,
221.431,6.20422,2.50549,2.402,19.9203,80,0,
221.431,6.20392,2.50397,2.402,19.9203,80,0,
221.431,6.20453,2.50549,2.402,19.9203,80,0,
221.431,6.20392,2.50397,2.402,19.9203,80,0,
221.431,6.19934,2.49939,2.402,19.9203,80,0,
221.432,6.19934,2.50549,2.402,19.9203,80,0,
221.432,6.19904,2.50702,2.402,19.9203,80,0,
221.432,6.19965,2.50397,2.402,19.9203,80,0,
221.432,6.19873,2.50549,2.402,19.9203,80,0,
221.432,6.19995,2.50397,2.402,19.9203,80,0,
221.432,6.19934,2.50549,2.402,19.9203,80,0,
221.432,6.19904,2.50397,2.402,19.9203,80,0,
221.432,6.19904,2.50397,2.402,19.9203,80,0,
221.432,6.19873,2.50397,2.402,19.9203,80,0,
221.432,6.19904,2.50549,2.402,19.9203,80,0,
221.432,6.19965,2.50397,2.402,19.9203,80,0,
221.432,6.19873,2.50702,2.402,19.9203,80,0,
221.432,6.19873,2.50244,2.402,19.9203,80,0,
221.432,6.19934,2.50549,2.402,19.9203,80,0,
221.432,6.19904,2.50397,2.402,19.9203,80,0,
221.432,6.19629,2.50397,2.402,19.9203,80,0,
221.432,6.19324,2.50244,2.402,19.9203,80,0,
221.432,6.19446,2.50397,2.402,19.9203,80,0,
221.432,6.19385,2.50397,2.402,19.9203,80,0,
221.432,6.19415,2.50397,2.402,19.9203,80,0,
221.432,6.19354,2.50702,2.402,19.9203,80,0,
221.432,6.19415,2.51007,2.402,19.9203,80,0,
221.432,6.19415,2.50549,2.402,19.9203,80,0,
221.432,6.19446,2.50549,2.402,19.9203,80,0,
221.432,6.19446,2.50397,2.402,19.9203,80,0,
221.432,6.19415,2.50549,2.402,19.9203,80,0,
221.432,6.19415,2.50092,2.402,19.9203,80,0,
221.432,6.19415,2.50549,2.402,19.9203,80,0,
221.432,6.19415,2.50092,2.402,19.9203,80,0,
221.433,6.19446,2.50397,2.402,19.9203,80,0,
221.433,6.19446,2.50397,2.402,19.9203,80,0,
221.433,6.19476,2.50244,2.402,19.9203,80,0,
221.433,6.19446,2.50397,2.402,19.9203,80,0,
221.433,6.19415,2.50549,2.402,19.9203,80,0,
221.433,6.19446,2.50397,2.402,19.9203,80,0,
221.433,6.19446,2.50397,2.402,19.9203,80,0,
221.433,6.19446,2.50397,2.402,19.9203,80,0,
221.433,6.19019,2.50549,2.402,19.9203,80,0,
221.433,6.18896,2.50397,2.402,19.9203,80,0,
221.433,6.18927,2.50397,2.402,19.9203,80,0,
221.433,6.18927,2.50397,2.402,19.9203,80,0,
221.433,6.18927,2.50855,2.402,19.9203,80,0,
221.433,6.18896,2.50702,2.402,19.9203,80,0,
221.433,6.18927,2.50244,2.402,19.9203,80,0,
221.433,6.18896,2.50092,2.402,19.9203,80,0,
221.433,6.18896,2.50397,2.402,19.9203,80,0,
221.433,6.18927,2.50397,2.402,19.9203,80,0,
221.433,6.18835,2.50397,2.402,19.9203,80,0,
221.433,6.18958,2.50549,2.402,19.9203,80,0,
221.433,6.18866,2.50244,2.402,19.9203,80,0,
221.433,6.18958,2.50549,2.402,19.9203,80,0,
221.433,6.18958,2.50092,2.402,19.9203,80,0,
221.433,6.18958,2.50549,2.402,19.9203,80,0,
221.433,6.18896,2.50244,2.402,19.9203,80,0,
221.433,6.18958,2.50244,2.402,19.9203,80,0,
221.433,6.18927,2.50397,2.402,19.9203,80,0,
221.433,6.18958,2.50244,2.402,19.9203,80,0,
221.433,6.18958,2.50092,2.402,19.9203,80,0,
221.433,6.18927,2.50397,2.402,19.9203,80,0,
221.434,6.18958,2.50397,2.402,19.9203,80,0,
221.434,6.18866,2.50397,2.402,19.9203,80,0,
221.434,6.18866,2.50549,2.402,19.9203,80,0,
221.434,6.18927,2.50244,2.402,19.9203,80,0,
221.434,6.18896,2.50244,2.402,19.9203,80,0,
221.434,6.19019,2.50397,2.402,19.9203,80,0,
221.434,6.18896,2.49939,2.402,19.9203,80,0,
221.434,6.18958,2.50244,2.402,19.9203,80,0,
221.434,6.18896,2.50549,2.402,19.9203,80,0,
221.434,6.18927,2.50702,2.402,19.9203,80,0,
221.434,6.18988,2.50549,2.402,19.9203,80,0,
221.434,6.18927,2.50397,2.402,19.9203,80,0,
221.434,6.18988,2.50549,2.402,19.9203,80,0,
221.434,6.18469,2.50702,2.402,19.9203,80,0,
221.434,6.18469,2.50244,2.402,19.9203,80,0,
221.434,6.18408,2.50397,2.402,19.9203,80,0,
221.434,6.18439,2.50549,2.402,19.9203,80,0,
221.434,6.18469,2.50702,2.402,19.9203,80,0,
221.434,6.185,2.50244,2.402,19.9203,80,0,
221.434,6.18469,2.50397,2.402,19.9203,80,0,
221.434,6.18408,2.49939,2.402,19.9203,80,0,
221.434,6.18378,2.50549,2.402,19.9203,80,0,
221.434,6.18469,2.50244,2.402,19.9203,80,0,
221.434,6.18408,2.50397,2.402,19.9203,80,0,
221.434,6.18408,2.50549,2.402,19.9203,80,0,
221.434,6.18439,2.50092,2.402,19.9203,80,0,
221.434,6.18469,2.50092,2.402,19.9203,80,0,
221.434,6.18347,2.50549,2.402,19.9203,80,0,
221.434,6.18378,2.50244,2.402,19.9203,80,0,
221.434,6.18469,2.49939,2.402,19.9203,80,0,
221.435,6.18439,2.50397,2.402,19.9203,80,0,
221.435,6.18469,2.50397,2.402,19.9203,80,0,
221.435,6.18408,2.50397,2.402,19.9203,80,0,
221.435,6.18469,2.50549,2.402,19.9203,80,0,
221.435,6.18439,2.50092,2.402,19.9203,80,0,
221.435,6.18439,2.50549,2.402,19.9203,80,0,
221.435,6.18439,2.50397,2.402,19.9203,80,0,
221.435,6.18439,2.50549,2.402,19.9203,80,0,
221.435,6.18469,2.50549,2.402,19.9203,80,0,
221.435,6.18439,2.50397,2.402,19.9203,80,0,
221.435,6.18469,2.50244,2.402,19.9203,80,0,
221.435,6.18469,2.50397,2.402,19.9203,80,0,
221.435,6.18469,2.50549,2.402,19.9203,80,0,
221.435,6.18439,2.50244,2.402,19.9203,80,0,
221.435,6.185,2.50244,2.402,19.9203,80,0,
221.435,6.18958,2.50397,2.402,19.9203,80,0,
221.435,6.18927,2.50092,2.402,19.9203,80,0,
221.435,6.18988,2.50549,2.402,19.9203,80,0,
221.435,6.18958,2.50549,2.402,19.9203,80,0,
221.435,6.18896,2.50244,2.402,19.9203,80,0,
221.435,6.18958,2.50244,2.402,19.9203,80,0,
221.435,6.18927,2.50397,2.402,19.9203,80,0,
221.435,6.18927,2.50549,2.402,19.9203,80,0,
221.435,6.18988,2.50397,2.402,19.9203,80,0,
221.435,6.18927,2.50397,2.402,19.9203,80,0,
221.435,6.18958,2.50549,2.402,19.9203,80,0,
221.435,6.18958,2.50244,2.402,19.9203,80,0,
221.435,6.18927,2.50549,2.402,19.9203,80,0,
221.435,6.18958,2.49939,2.402,19.9203,80,0,
221.435,6.18927,2.50244,2.402,19.9203,80,0,
221.435,6.18958,2.50244,2.402,19.9203,80,0,
221.436,6.18896,2.50244,2.402,19.9203,80,0,
221.436,6.18896,2.50549,2.402,19.9203,80,0,
221.436,6.19263,2.50549,2.402,19.9203,80,0,
221.436,6.19446,2.50244,2.402,19.9203,80,0,
221.436,6.19446,2.50397,2.402,19.9203,80,0,
221.436,6.19385,2.49939,2.402,19.9203,80,0,
221.436,6.19415,2.50397,2.402,19.9203,80,0,
221.436,6.19415,2.50549,2.402,19.9203,80,0,
221.436,6.19385,2.50549,2.402,19.9203,80,0,
221.436,6.19446,2.50244,2.402,19.9203,80,0,
221.436,6.19385,2.50549,2.402,19.9203,80,0,
221.436,6.19415,2.50549,2.402,19.9203,80,0,
221.436,6.19904,2.50244,2.402,19.9203,80,0,
221.436,6.19995,2.50244,2.402,19.9203,80,0,
221.436,6.20026,2.50397,2.402,19.9203,80,0,
221.436,6.19904,2.50092,2.402,19.9203,80,0,
221.436,6.19995,2.50244,2.402,19.9203,80,0,
221.436,6.19934,2.50244,2.402,19.9203,80,0,
221.436,6.19965,2.50397,2.402,19.9203,80,0,
221.436,6.20239,2.50092,2.402,19.9203,80,0,
221.436,6.20453,2.50397,2.402,19.9203,80,0,
221.436,6.20422,2.50397,2.402,19.9203,80,0,
221.436,6.20422,2.50702,2.402,19.9203,80,0,
221.436,6.20453,2.50244,2.402,19.9203,80,0,
221.436,6.20392,2.50397,2.402,19.9203,80,0,
221.436,6.20667,2.50397,2.402,19.9203,80,0,
221.436,6.2085,2.50549,2.402,19.9203,80,0,
221.436,6.2088,2.50397,2.402,19.9203,80,0,
221.436,6.20911,2.50702,2.402,19.9203,80,0,
221.436,6.2085,2.50549,2.402,19.9203,80,0,
221.437,6.2088,2.49939,2.402,19.9203,80,0,
221.437,6.21399,2.50549,2.402,19.9203,80,0,
221.437,6.21429,2.50244,2.402,19.9203,80,0,
221.437,6.21338,2.50397,2.402,19.9203,80,0,
221.437,6.21368,2.50397,2.402,19.9203,80,0,
221.437,6.21338,2.50244,2.402,19.9203,80,0,
221.437,6.21887,2.50244,2.402,19.9203,80,0,
221.437,6.21887,2.50397,2.402,19.9203,80,0,
221.437,6.21826,2.50549,2.402,19.9203,80,0,
221.437,6.21826,2.50549,2.402,19.9203,80,0,
221.437,6.22314,2.50549,2.402,19.9203,80,0,
221.437,6.22345,2.50397,2.402,19.9203,80,0,
221.437,6.22345,2.50397,2.402,19.9203,80,0,
221.437,6.22406,2.50397,2.402,19.9203,80,0,
221.437,6.22864,2.50549,2.402,19.9203,80,0,
221.437,6.22925,2.50397,2.402,19.9203,80,0,
221.437,6.22864,2.50244,2.402,19.9203,80,0,
221.437,6.22925,2.50244,2.402,19.9203,80,0,
221.437,6.23322,2.50549,2.402,19.9203,80,0,
221.437,6.23383,2.50549,2.402,19.9203,80,0,
221.437,6.23352,2.50549,2.402,19.9203,80,0,
221.437,6.23718,2.50397,2.402,19.9203,80,0,
221.437,6.2381,2.50397,2.402,19.9203,80,0,
221.437,6.2384,2.49939,2.402,19.9203,80,0,
221.437,6.23779,2.50549,2.402,19.9203,80,0,
221.437,6.24329,2.50244,2.402,19.9203,80,0,
221.437,6.24329,2.50397,2.402,19.9203,80,0,
221.437,6.24329,2.50397,2.402,19.9203,80,0,
221.437,6.24817,2.49939,2.402,19.9203,80,0,
221.438,6.24817,2.50397,2.402,19.9203,80,0,
221.438,6.24725,2.50549,2.402,19.9203,80,0,
221.438,6.25275,2.50549,2.402,19.9203,80,0,
221.438,6.25275,2.50244,2.402,19.9203,80,0,
221.438,6.25244,2.50244,2.402,19.9203,80,0,
221.438,6.25671,2.50549,2.402,19.9203,80,0,
221.438,6.25702,2.50397,2.402,19.9203,80,0,
221.438,6.25793,2.50244,2.402,19.9203,80,0,
221.438,6.2619,2.50244,2.402,19.9203,80,0,
221.438,6.26312,2.50549,2.402,19.9203,80,0,
221.438,6.26251,2.50244,2.402,19.9203,80,0,
221.438,6.2677,2.50397,2.402,19.9203,80,0,
221.438,6.26709,2.50702,2.402,19.9203,80,0,
221.438,6.2674,2.50397,2.402,19.9203,80,0,
221.438,6.27289,2.50244,2.402,19.9203,80,0,
221.438,6.27197,2.50244,2.402,19.9203,80,0,
221.438,6.27716,2.50244,2.402,19.9203,80,0,
221.438,6.27747,2.50549,2.402,19.9203,80,0,
221.438,6.27716,2.50244,2.402,19.9203,80,0,
221.438,6.28235,2.50397,2.402,19.9203,80,0,
221.438,6.28143,2.50549,2.402,19.9203,80,0,
221.438,6.28479,2.50549,2.402,19.9203,80,0,
221.438,6.28693,2.49786,2.402,19.9203,80,0,
221.438,6.28754,2.50244,2.402,19.9203,80,0,
221.438,6.29181,2.50397,2.402,19.9203,80,0,
221.438,6.29211,2.50549,2.402,19.9203,80,0,
221.438,6.29578,2.50244,2.402,19.9203,80,0,
221.438,6.29639,2.50244,2.402,19.9203,80,0,
221.438,6.29974,2.50702,2.402,19.9203,80,0,
221.438,6.30127,2.50244,2.402,19.9203,80,0,
221.439,6.30157,2.50397,2.402,19.9203,80,0,
221.439,6.30707,2.50397,2.402,19.9203,80,0,
221.439,6.30646,2.50397,2.402,19.9203,80,0,
221.439,6.31195,2.50549,2.402,19.9203,80,0,
221.439,6.31134,2.50397,2.402,19.9203,80,0,
221.439,6.31592,2.50549,2.402,19.9203,80,0,
221.439,6.31622,2.50855,2.402,19.9203,80,0,
221.439,6.32019,2.50855,2.402,19.9203,80,0,
221.439,6.32172,2.50397,2.402,19.9203,80,0,
221.439,6.32355,2.50244,2.402,19.9203,80,0,
221.439,6.3266,2.50397,2.402,19.9203,80,0,
221.439,6.3269,2.50244,2.402,19.9203,80,0,
221.439,6.33087,2.50549,2.402,19.9203,80,0,
221.439,6.33148,2.50244,2.402,19.9203,80,0,
221.439,6.33667,2.50397,2.402,19.9203,80,0,
221.439,6.33636,2.49939,2.402,19.9203,80,0,
221.439,6.34094,2.50549,2.402,19.9203,80,0,
221.439,6.34186,2.50092,2.402,19.9203,80,0,
221.439,6.34552,2.50244,2.402,19.9203,80,0,
221.439,6.34583,2.50244,2.402,19.9203,80,0,
221.439,6.3504,2.50549,2.402,19.9203,80,0,
221.439,6.35193,2.50549,2.402,19.9203,80,0,
221.439,6.35651,2.50397,2.402,19.9203,80,0,
221.439,6.35651,2.49939,2.402,19.9203,80,0,
221.439,6.36108,2.50397,2.402,19.9203,80,0,
221.439,6.36047,2.50397,2.402,19.9203,80,0,
221.439,6.36566,2.50397,2.402,19.9203,80,0,
221.439,6.36841,2.50549,2.402,19.9203,80,0,
221.439,6.37146,2.50397,2.402,19.9203,80,0,
221.439,6.3739,2.50397,2.402,19.9203,80,0,
221.44,6.37573,2.50397,2.402,19.9203,80,0,
221.44,6.37848,2.50549,2.402,19.9203,80,0,
221.44,6.38092,2.50702,2.402,19.9203,80,0,
221.44,6.38519,2.50702,2.402,19.9203,80,0,
221.44,6.3855,2.50092,2.402,19.9203,80,0,
221.44,6.39008,2.50244,2.402,19.9203,80,0,
221.44,6.39008,2.50244,2.402,19.9203,80,0,
221.44,6.39526,2.50397,2.402,19.9203,80,0,
221.44,6.39526,2.50244,2.402,19.9203,80,0,
221.44,6.40015,2.50397,2.402,19.9203,80,0,
221.44,6.40289,2.50092,2.402,19.9203,80,0,
221.44,6.40533,2.50397,2.402,19.9203,80,0,
221.44,6.40778,2.50549,2.402,19.9203,80,0,
221.44,6.409,2.50397,2.402,19.9203,80,0,
221.44,6.41449,2.50549,2.402,19.9203,80,0,
221.44,6.41449,2.50397,2.402,19.9203,80,0,
221.44,6.41937,2.50244,2.402,19.9203,80,0,
221.44,6.41937,2.50397,2.402,19.9203,80,0,
221.44,6.42395,2.50397,2.402,19.9203,80,0,
221.44,6.42761,2.50092,2.402,19.9203,80,0,
221.44,6.42883,2.50244,2.402,19.9203,80,0,
221.44,6.43402,2.50549,2.402,19.9203,80,0,
221.44,6.43402,2.50397,2.402,19.9203,80,0,
221.44,6.4386,2.50397,2.402,19.9203,80,0,
221.44,6.4386,2.50244,2.402,19.9203,80,0,
221.44,6.44318,2.50397,2.402,19.9203,80,0,
221.44,6.44409,2.50244,2.402,19.9203,80,0,
221.44,6.44867,2.50244,2.402,19.9203,80,0,
221.44,6.45355,2.50397,2.402,19.9203,80,0,
221.44,6.45416,2.50549,2.402,19.9203,80,0,
221.44,6.45874,2.50855,2.402,19.9203,80,0,
221.441,6.45905,2.50397,2.402,19.9203,80,0,
221.441,6.46332,2.50855,2.402,19.9203,80,0,
221.441,6.46667,2.50244,2.402,19.9203,80,0,
221.441,6.4682,2.50397,2.402,19.9203,80,0,
221.441,6.47308,2.50397,2.402,19.9203,80,0,
221.441,6.47278,2.50397,2.402,19.9203,80,0,
221.441,6.47858,2.50244,2.402,19.9203,80,0,
221.441,6.47858,2.49939,2.402,19.9203,80,0,
221.441,6.48315,2.50397,2.402,19.9203,80,0,
221.441,6.48621,2.50397,2.402,19.9203,80,0,
221.441,6.48804,2.50397,2.402,19.9203,80,0,
221.441,6.49261,2.50092,2.402,19.9203,80,0,
221.441,6.49261,2.50244,2.402,19.9203,80,0,
221.441,6.4978,2.50397,2.402,19.9203,80,0,
221.441,6.4978,2.50397,2.402,19.9203,80,0,
221.441,6.50238,2.50092,2.402,19.9203,80,0,
221.441,6.50482,2.50549,2.402,19.9203,80,0,
221.441,6.50787,2.50397,2.402,19.9203,80,0,
221.441,6.51215,2.50549,2.402,19.9203,80,0,
221.441,6.51215,2.50092,2.402,19.9203,80,0,
221.441,6.51733,2.50244,2.402,19.9203,80,0,
221.441,6.51703,2.50702,2.402,19.9203,80,0,
221.441,6.52283,2.50397,2.402,19.9203,80,0,
221.441,6.52588,2.50549,2.402,19.9203,80,0,
221.441,6.52771,2.50397,2.402,19.9203,80,0,
221.441,6.53137,2.49939,2.402,19.9203,80,0,
221.441,6.5329,2.50549,2.402,19.9203,80,0,
221.441,6.53687,2.50397,2.402,19.9203,80,0,
221.441,6.53809,2.50244,2.402,19.9203,80,0,
221.441,6.54205,2.50092,2.402,19.9203,80,0,
221.442,6.5448,2.50244,2.402,19.9203,80,0,
221.442,6.54755,2.50397,2.402,19.9203,80,0,
221.442,6.55121,2.50397,2.402,19.9203,80,0,
221.442,6.55121,2.50549,2.402,19.9203,80,0,
221.442,6.55701,2.50397,2.402,19.9203,80,0,
221.442,6.55701,2.50549,2.402,19.9203,80,0,
221.442,6.56219,2.50397,2.402,19.9203,80,0,
221.442,6.56372,2.50397,2.402,19.9203,80,0,
221.442,6.56616,2.50397,2.402,19.9203,80,0,
221.442,6.57074,2.50397,2.402,19.9203,80,0,
221.442,6.57074,2.50397,2.402,19.9203,80,0,
221.442,6.57623,2.50397,2.402,19.9203,80,0,
221.442,6.57623,2.50702,2.402,19.9203,80,0,
221.442,6.58081,2.50397,2.402,19.9203,80,0,
221.442,6.58386,2.50397,2.402,19.9203,80,0,
221.442,6.586,2.50549,2.402,19.9203,80,0,
221.442,6.58875,2.50397,2.402,19.9203,80,0,
221.442,6.59027,2.50244,2.402,19.9203,80,0,
221.442,6.59515,2.50244,2.402,19.9203,80,0,
221.442,6.59607,2.50397,2.402,19.9203,80,0,
221.442,6.60004,2.50397,2.402,19.9203,80,0,
221.442,6.60034,2.50549,2.402,19.9203,80,0,
221.442,6.60492,2.50397,2.402,19.9203,80,0,
221.442,6.60858,2.50549,2.402,19.9203,80,0,
221.442,6.61133,2.50397,2.402,19.9203,80,0,
221.442,6.61255,2.50092,2.402,19.9203,80,0,
221.442,6.61499,2.50549,2.402,19.9203,80,0,
221.442,6.61987,2.50397,2.402,19.9203,80,0,
221.442,6.62109,2.50549,2.402,19.9203,80,0,
221.442,6.62506,2.50702,2.402,19.9203,80,0,
221.443,6.62598,2.50702,2.402,19.9203,80,0,
221.443,6.63025,2.50092,2.402,19.9203,80,0,
221.443,6.62994,2.50244,2.402,19.9203,80,0,
221.443,6.63483,2.50244,2.402,19.9203,80,0,
221.443,6.63513,2.50244,2.402,19.9203,80,0,
221.443,6.64032,2.50549,2.402,19.9203,80,0,
221.443,6.64215,2.50397,2.402,19.9203,80,0,
221.443,6.64581,2.50397,2.402,19.9203,80,0,
221.443,6.64703,2.50397,2.402,19.9203,80,0,
221.443,6.64978,2.50397,2.402,19.9203,80,0,
221.443,6.65375,2.50549,2.402,19.9203,80,0,
221.443,6.65436,2.50244,2.402,19.9203,80,0,
221.443,6.65771,2.50244,2.402,19.9203,80,0,
221.443,6.65894,2.50397,2.402,19.9203,80,0,
221.443,6.66321,2.50244,2.402,19.9203,80,0,
221.443,6.66412,2.50549,2.402,19.9203,80,0,
221.443,6.66809,2.50244,2.402,19.9203,80,0,
221.443,6.6687,2.50702,2.402,19.9203,80,0,
221.443,6.67419,2.50397,2.402,19.9203,80,0,
221.443,6.67389,2.50397,2.402,19.9203,80,0,
221.443,6.67847,2.50549,2.402,19.9203,80,0,
221.443,6.67908,2.50244,2.402,19.9203,80,0,
221.443,6.68365,2.50549,2.402,19.9203,80,0,
221.443,6.68335,2.50092,2.402,19.9203,80,0,
221.443,6.68884,2.50397,2.402,19.9203,80,0,
221.443,6.68915,2.50397,2.402,19.9203,80,0,
221.443,6.69373,2.50244,2.402,19.9203,80,0,
221.443,6.69434,2.50397,2.402,19.9203,80,0,
221.443,6.69891,2.50244,2.402,19.9203,80,0,
221.444,6.69922,2.50702,2.402,19.9203,80,0,
221.444,6.70319,2.50549,2.402,19.9203,80,0,
221.444,6.7041,2.50397,2.402,19.9203,80,0,
221.444,6.70776,2.50549,2.402,19.9203,80,0,
221.444,6.70837,2.50397,2.402,19.9203,80,0,
221.444,6.71356,2.50549,2.402,19.9203,80,0,
221.444,6.71387,2.50244,2.402,19.9203,80,0,
221.444,6.71875,2.50397,2.402,19.9203,80,0,
221.444,6.71753,2.50549,2.402,19.9203,80,0,
221.444,6.72302,2.50702,2.402,19.9203,80,0,
221.444,6.72272,2.50549,2.402,19.9203,80,0,
221.444,6.72699,2.50702,2.402,19.9203,80,0,
221.444,6.72791,2.50549,2.402,19.9203,80,0,
221.444,6.73004,2.50397,2.402,19.9203,80,0,
221.444,6.73309,2.50244,2.402,19.9203,80,0,
221.444,6.73584,2.50702,2.402,19.9203,80,0,
221.444,6.73798,2.50397,2.402,19.9203,80,0,
221.444,6.73767,2.50092,2.402,19.5567,80,0,
221.444,6.74194,2.50092,2.402,19.5567,80,0,
221.444,6.74347,2.50702,2.402,19.5567,80,0,
221.444,6.74744,2.50397,2.402,19.5567,80,0,
221.444,6.74683,2.50244,2.402,19.5567,80,0,
221.444,6.75201,2.50397,2.402,19.5567,80,0,
221.444,6.75293,2.50397,2.402,19.5567,80,0,
221.444,6.75659,2.50397,2.402,19.5567,80,0,
221.444,6.75812,2.50702,2.402,19.5567,80,0,
221.444,6.7627,2.50549,2.402,19.5567,80,0,
221.444,6.76239,2.50397,2.402,19.5567,80,0,
221.444,6.76422,2.50549,2.402,19.5567,80,0,
221.444,6.76697,2.50702,2.402,19.5567,80,0,
221.445,6.76758,2.50549,2.402,19.5567,80,0,
221.445,6.77246,2.50549,2.402,19.5567,80,0,
221.445,6.77246,2.50397,2.402,19.5567,80,0,
221.445,6.77643,2.50244,2.402,19.5567,80,0,
221.445,6.77643,2.50397,2.402,19.5567,80,0,
221.445,6.78131,2.50549,2.402,19.5567,80,0,
221.445,6.78223,2.50702,2.402,19.5567,80,0,
221.445,6.78467,2.50092,2.402,19.5567,80,0,
221.445,6.78619,2.50397,2.402,19.5567,80,0,
221.445,6.78619,2.49939,2.402,19.5567,80,0,
221.445,6.79108,2.50244,2.402,19.5567,80,0,
221.445,6.79077,2.50244,2.402,19.5567,80,0,
221.445,6.79626,2.50244,2.402,19.5567,80,0,
221.445,6.79626,2.50397,2.402,19.5567,80,0,
221.445,6.79901,2.50397,2.402,19.5567,80,0,
221.445,6.80176,2.50549,2.402,19.5567,80,0,
221.445,6.80145,2.50244,2.402,19.5567,80,0,
221.445,6.80664,2.50092,2.402,19.5567,80,0,
221.445,6.80603,2.50549,2.402,19.5567,80,0,
221.445,6.8103,2.50244,2.402,19.5567,80,0,
221.445,6.81091,2.50702,2.402,19.5567,80,0,
221.445,6.81427,2.50092,2.402,19.5567,80,0,
221.445,6.81641,2.50397,2.402,19.5567,80,0,
221.445,6.8161,2.50244,2.402,19.5567,80,0,
221.445,6.82068,2.50549,2.402,19.5567,80,0,
221.445,6.82129,2.50244,2.402,19.5567,80,0,
221.445,6.82526,2.50244,2.402,19.5567,80,0,
221.445,6.82556,2.49939,2.402,19.5567,80,0,
221.445,6.82617,2.50855,2.402,19.5567,80,0,
221.445,6.83105,2.50549,2.402,19.5567,80,0,
221.446,6.83105,2.50397,2.402,19.5567,80,0,
221.446,6.83502,2.50397,2.402,19.5567,80,0,
221.446,6.83533,2.50397,2.402,19.5567,80,0,
221.446,6.83655,2.50397,2.402,19.5567,80,0,
221.446,6.84052,2.50244,2.402,19.5567,80,0,
221.446,6.84143,2.50244,2.402,19.5567,80,0,
221.446,6.84479,2.50244,2.402,19.5567,80,0,
221.446,6.84509,2.50244,2.402,19.5567,80,0,
221.446,6.8457,2.50855,2.402,19.5567,80,0,
221.446,6.85089,2.50244,2.402,19.5567,80,0,
221.446,6.85089,2.50397,2.402,19.5567,80,0,
221.446,6.85547,2.50397,2.402,19.5567,80,0,
221.446,6.85577,2.50549,2.402,19.5567,80,0,
221.446,6.85547,2.50397,2.402,19.5567,80,0,
221.446,6.86035,2.50702,2.402,19.5567,80,0,
221.446,6.86096,2.50702,2.402,19.5567,80,0,
221.446,6.86279,2.50397,2.402,19.5567,80,0,
221.446,6.86493,2.50244,2.402,19.5567,80,0,
221.446,6.86523,2.50549,2.402,19.5567,80,0,
221.446,6.86981,2.50397,2.402,19.5567,80,0,
221.446,6.87042,2.50244,2.402,19.5567,80,0,
221.446,6.86981,2.50549,2.402,19.5567,80,0,
221.446,6.875,2.50244,2.402,19.5567,80,0,
221.446,6.87439,2.50092,2.402,19.5567,80,0,
221.446,6.87744,2.50702,2.402,19.5567,80,0,
221.446,6.87958,2.50244,2.402,19.5567,80,0,
221.446,6.87988,2.50244,2.402,19.5567,80,0,
221.446,6.88507,2.50397,2.402,19.5567,80,0,
221.446,6.88416,2.50397,2.402,19.5567,80,0,
221.446,6.88385,2.50397,2.402,19.5567,80,0,
221.446,6.88995,2.49939,2.402,19.5567,80,0,
221.447,6.88995,2.50397,2.402,19.5567,80,0,
221.447,6.88934,2.50092,2.402,19.5567,80,0,
221.447,6.89453,2.50244,2.402,19.5567,80,0,
221.447,6.89484,2.50397,2.402,19.5567,80,0,
221.447,6.89697,2.50397,2.402,19.5567,80,0,
221.447,6.89941,2.49939,2.402,19.5567,80,0,
221.447,6.90002,2.50549,2.402,19.5567,80,0,
221.447,6.9043,2.50397,2.402,19.5567,80,0,
221.447,6.9043,2.50549,2.402,19.5567,80,0,
221.447,6.9043,2.50244,2.402,19.5567,80,0,
221.447,6.90826,2.50092,2.402,19.5567,80,0,
221.447,6.90948,2.50549,2.402,19.5567,80,0,
221.447,6.90918,2.50397,2.402,19.5567,80,0,
221.447,6.91528,2.50244,2.402,19.5567,80,0,
221.447,6.91437,2.50702,2.402,19.5567,80,0,
221.447,6.91406,2.50244,2.402,19.5567,80,0,
221.447,6.91986,2.50244,2.402,19.5567,80,0,
221.447,6.91925,2.50244,2.402,19.5567,80,0,
221.447,6.91925,2.50092,2.402,19.5567,80,0,
221.447,6.92413,2.50244,2.402,19.5567,80,0,
221.447,6.92352,2.50244,2.402,19.5567,80,0,
221.447,6.92413,2.50549,2.402,19.5567,80,0,
221.447,6.92841,2.50244,2.402,19.5567,80,0,
221.447,6.92932,2.50397,2.402,19.5567,80,0,
221.447,6.92932,2.50549,2.402,19.5567,80,0,
221.447,6.9342,2.50702,2.402,19.5567,80,0,
221.447,6.9339,2.50397,2.402,19.5567,80,0,
221.447,6.9339,2.50092,2.402,19.5567,80,0,
221.447,6.93878,2.50549,2.402,19.5567,80,0,
221.447,6.93878,2.50244,2.402,19.5567,80,0,
221.448,6.93878,2.50397,2.402,19.5567,80,0,
221.448,6.94336,2.50244,2.402,19.5567,80,0,
221.448,6.94427,2.50092,2.402,19.5567,80,0,
221.448,6.94336,2.50549,2.402,19.5567,80,0,
221.448,6.94763,2.50397,2.402,19.5567,80,0,
221.448,6.94824,2.50549,2.402,19.5567,80,0,
221.448,6.94794,2.49939,2.402,19.5567,80,0,
221.448,6.95068,2.50549,2.402,19.5567,80,0,
221.448,6.95343,2.50549,2.402,19.5567,80,0,
221.448,6.95251,2.50397,2.402,19.5567,80,0,
221.448,6.95374,2.50397,2.402,19.5567,80,0,
221.448,6.95801,2.50244,2.402,19.5567,80,0,
221.448,6.95831,2.50397,2.402,19.5567,80,0,
221.448,6.95831,2.50397,2.402,19.5567,80,0,
221.448,6.9632,2.50397,2.402,19.5567,80,0,
221.448,6.9632,2.50244,2.402,19.5567,80,0,
221.448,6.96259,2.50397,2.402,19.5567,80,0,
221.448,6.96594,2.50397,2.402,19.5567,80,0,
221.448,6.96777,2.50244,2.402,19.5567,80,0,
221.448,6.96777,2.50549,2.402,19.5567,80,0,
221.448,6.96777,2.50549,2.402,19.5567,80,0,
221.448,6.97296,2.50549,2.402,19.5567,80,0,
221.448,6.97266,2.50549,2.402,19.5567,80,0,
221.448,6.97296,2.49939,2.402,19.5567,80,0,
221.448,6.97571,2.50397,2.402,19.5567,80,0,
221.448,6.97754,2.50549,2.402,19.5567,80,0,
221.448,6.97845,2.50092,2.402,19.5567,80,0,
221.448,6.97784,2.50244,2.402,19.5567,80,0,
221.448,6.98212,2.51007,2.402,19.5567,80,0,
221.448,6.98273,2.50702,2.402,19.5567,80,0,
221.449,6.98242,2.50397,2.402,19.5567,80,0,
221.449,6.98242,2.50549,2.402,19.5567,80,0,
221.449,6.98761,2.50244,2.402,19.5567,80,0,
221.449,6.98792,2.50092,2.402,19.5567,80,0,
221.449,6.98792,2.50092,2.402,19.5567,80,0,
221.449,6.98792,2.50397,2.402,19.5567,80,0,
221.449,6.99219,2.50092,2.402,19.5567,80,0,
221.449,6.99219,2.50397,2.402,19.5567,80,0,
221.449,6.99219,2.50397,2.402,19.5567,80,0,
221.449,6.9928,2.50244,2.402,19.5567,80,0,
221.449,6.9986,2.50397,2.402,19.5567,80,0,
221.449,6.99768,2.50855,2.402,19.5567,80,0,
221.449,6.99738,2.50092,2.402,19.5567,80,0,
221.449,6.99768,2.50397,2.402,19.5567,80,0,
221.449,7.00287,2.50397,2.402,19.5567,80,0,
221.449,7.00256,2.50244,2.402,19.5567,80,0,
221.449,7.00256,2.50397,2.402,19.5567,80,0,
221.449,7.00256,2.50397,2.402,19.5567,80,0,
221.449,7.00775,2.50549,2.402,19.5567,80,0,
221.449,7.00714,2.50397,2.402,19.5567,80,0,
221.449,7.00714,2.50397,2.402,19.5567,80,0,
221.449,7.00745,2.50549,2.402,19.5567,80,0,
221.449,7.01111,2.50244,2.402,19.5567,80,0,
221.449,7.01202,2.50549,2.402,19.5567,80,0,
221.449,7.01233,2.50092,2.402,19.5567,80,0,
221.449,7.01202,2.50092,2.402,19.5567,80,0,
221.449,7.01172,2.50549,2.402,19.5567,80,0,
221.449,7.01599,2.50397,2.402,19.5567,80,0,
221.449,7.01691,2.50397,2.402,19.5567,80,0,
221.45,7.01691,2.50549,2.402,19.5567,80,0,
221.45,7.0166,2.50549,2.402,19.5567,80,0,
221.45,7.01965,2.50244,2.402,19.5567,80,0,
221.45,7.02209,2.50244,2.402,19.5567,80,0,
221.45,7.02148,2.50397,2.402,19.5567,80,0,
221.45,7.02179,2.50244,2.402,19.5567,80,0,
221.45,7.02209,2.50397,2.402,19.5567,80,0,
221.45,7.02515,2.50092,2.402,19.5567,80,0,
221.45,7.02667,2.50549,2.402,19.5567,80,0,
221.45,7.02606,2.50702,2.402,19.5567,80,0,
221.45,7.02728,2.50397,2.402,19.5567,80,0,
221.45,7.02667,2.49939,2.402,19.5567,80,0,
221.45,7.02698,2.50397,2.402,19.5567,80,0,
221.45,7.03156,2.50549,2.402,19.5567,80,0,
221.45,7.03156,2.50549,2.402,19.5567,80,0,
221.45,7.03156,2.50397,2.402,19.5567,80,0,
221.45,7.03125,2.50092,2.402,19.5567,80,0,
221.45,7.03186,2.50397,2.402,19.5567,80,0,
221.45,7.03552,2.50397,2.402,19.5567,80,0,
221.45,7.03674,2.50549,2.402,19.5567,80,0,
221.45,7.03613,2.50092,2.402,19.5567,80,0,
221.45,7.03613,2.50244,2.402,19.5567,80,0,
221.45,7.03644,2.50244,2.402,19.5567,80,0,
221.45,7.03644,2.50397,2.402,19.5567,80,0,
221.45,7.04163,2.50244,2.402,19.5567,80,0,
221.45,7.04102,2.50397,2.402,19.5567,80,0,
221.45,7.04193,2.50244,2.402,19.5567,80,0,
221.45,7.04163,2.50244,2.402,19.5567,80,0,
221.45,7.04163,2.50397,2.402,19.5567,80,0,
221.45,7.04163,2.50244,2.402,19.5567,80,0,
221.451,7.04559,2.50244,2.402,19.5567,80,0,
221.451,7.0462,2.50397,2.402,19.5567,80,0,
221.451,7.0462,2.50397,2.402,19.5567,80,0,
221.451,7.0462,2.50702,2.402,19.5567,80,0,
221.451,7.0462,2.50244,2.402,19.5567,80,0,
221.451,7.04651,2.50244,2.402,19.5567,80,0,
221.451,7.04712,2.50397,2.402,19.5567,80,0,
221.451,7.05109,2.50702,2.402,19.5567,80,0,
221.451,7.05109,2.50702,2.402,19.5567,80,0,
221.451,7.05109,2.50244,2.402,19.5567,80,0,
221.451,7.05109,2.50702,2.402,19.5567,80,0,
221.451,7.05139,2.50549,2.402,19.5567,80,0,
221.451,7.05078,2.50855,2.402,19.5567,80,0,
221.451,7.0517,2.50244,2.402,19.5567,80,0,
221.451,7.05475,2.50549,2.402,19.5567,80,0,
221.451,7.05658,2.50092,2.402,19.5567,80,0,
221.451,7.05688,2.50244,2.402,19.5567,80,0,
221.451,7.05597,2.50549,2.402,19.5567,80,0,
221.451,7.05566,2.50397,2.402,19.5567,80,0,
221.451,7.05627,2.50549,2.402,19.5567,80,0,
221.451,7.05658,2.50244,2.402,19.5567,80,0,
221.451,7.05597,2.50244,2.402,19.5567,80,0,
221.451,7.05658,2.49939,2.402,19.5567,80,0,
221.451,7.06146,2.50702,2.402,19.5567,80,0,
221.451,7.06116,2.50549,2.402,19.5567,80,0,
221.451,7.06116,2.50244,2.402,19.5567,80,0,
221.451,7.06055,2.50397,2.402,19.5567,80,0,
221.451,7.06085,2.50244,2.402,19.5567,80,0,
221.451,7.06177,2.50549,2.402,19.5567,80,0,
221.451,7.06055,2.50244,2.402,19.5567,80,0,
221.452,7.06146,2.50397,2.402,19.5567,80,0,
221.452,7.06085,2.50092,2.402,19.5567,80,0,
221.452,7.06177,2.50549,2.402,19.5567,80,0,
221.452,7.06512,2.50549,2.402,19.5567,80,0,
221.452,7.06573,2.50549,2.402,19.5567,80,0,
221.452,7.06635,2.50244,2.402,19.5567,80,0,
221.452,7.06635,2.50397,2.402,19.5567,80,0,
221.452,7.06573,2.50244,2.402,19.5567,80,0,
221.452,7.06665,2.50092,2.402,19.5567,80,0,
221.452,7.06573,2.50549,2.402,19.5567,80,0,
221.452,7.06604,2.50397,2.402,19.5567,80,0,
221.452,7.06543,2.50397,2.402,19.5567,80,0,
221.452,7.06604,2.50397,2.402,19.5567,80,0,
221.452,7.06573,2.50244,2.402,19.5567,80,0,
221.452,7.06635,2.50244,2.402,19.5567,80,0,
221.452,7.06635,2.50244,2.402,19.5567,80,0,
221.452,7.07062,2.50549,2.402,19.5567,80,0,
221.452,7.07031,2.50549,2.402,19.5567,80,0,
221.452,7.0697,2.50397,2.402,19.5567,80,0,
221.452,7.07092,2.50549,2.402,19.5567,80,0,
221.452,7.07092,2.50549,2.402,19.5567,80,0,
221.452,7.07092,2.50244,2.402,19.5567,80,0,
221.452,7.07062,2.50397,2.402,19.5567,80,0,
221.452,7.07092,2.50549,2.402,19.5567,80,0,
221.452,7.07123,2.50397,2.402,19.5567,80,0,
221.452,7.07092,2.50397,2.402,19.5567,80,0,
221.452,7.07092,2.50244,2.402,19.5567,80,0,
221.452,7.07062,2.50244,2.402,19.5567,80,0,
221.452,7.07123,2.50244,2.402,19.5567,80,0,
221.452,7.07123,2.50397,2.402,19.5567,80,0,
221.452,7.07092,2.50244,2.402,19.5567,80,0,
221.453,7.07153,2.50397,2.402,19.5567,80,0,
221.453,7.07092,2.50397,2.402,19.5567,80,0,
221.453,7.07062,2.50702,2.402,19.5567,80,0,
221.453,7.07062,2.50549,2.402,19.5567,80,0,
221.453,7.07092,2.50397,2.402,19.5567,80,0,
221.453,7.07092,2.50397,2.402,19.5567,80,0,
221.453,7.07001,2.50244,2.402,19.5567,80,0,
221.453,7.07123,2.50549,2.402,19.5567,80,0,
221.453,7.07031,2.50397,2.402,19.5567,80,0,
221.453,7.07062,2.50397,2.402,19.5567,80,0,
221.453,7.07123,2.50549,2.402,19.5567,80,0,
221.453,7.07153,2.50702,2.402,19.5567,80,0,
221.453,7.07062,2.50244,2.402,19.5567,80,0,
221.453,7.07062,2.50549,2.402,19.5567,80,0,
221.453,7.07092,2.50549,2.402,19.5567,80,0,
221.453,7.07092,2.50397,2.402,19.5567,80,0,
221.453,7.07123,2.50397,2.402,19.5567,80,0,
221.453,7.07031,2.50244,2.402,19.5567,80,0,
221.453,7.07062,2.50244,2.402,19.5567,80,0,
221.453,7.07123,2.50397,2.402,19.5567,80,0,
221.453,7.07062,2.50092,2.402,19.5567,80,0,
221.453,7.07062,2.50397,2.402,19.5567,80,0,
221.453,7.07092,2.50397,2.402,19.5567,80,0,
221.453,7.07184,2.50244,2.402,19.5567,80,0,
221.453,7.07062,2.50244,2.402,19.5567,80,0,
221.453,7.07031,2.50397,2.402,19.5567,80,0,
221.453,7.07184,2.50244,2.402,19.5567,80,0,
221.453,7.07123,2.50549,2.402,19.5567,80,0,
221.453,7.07092,2.50549,2.402,19.5567,80,0,
221.453,7.07092,2.50397,2.402,19.5567,80,0,
221.454,7.07092,2.50549,2.402,19.5567,80,0,
221.454,7.07062,2.50397,2.402,19.5567,80,0,
221.454,7.07092,2.50397,2.402,19.5567,80,0,
221.454,7.07123,2.50397,2.402,19.5567,80,0,
221.454,7.07153,2.50244,2.402,19.5567,80,0,
221.454,7.07123,2.50397,2.402,19.5567,80,0,
221.454,7.06757,2.50397,2.402,19.5567,80,0,
221.454,7.06604,2.50549,2.402,19.5567,80,0,
221.454,7.06604,2.50244,2.402,19.5567,80,0,
221.454,7.06573,2.50855,2.402,19.5567,80,0,
221.454,7.06635,2.50549,2.402,19.5567,80,0,
221.454,7.06604,2.50549,2.402,19.5567,80,0,
221.454,7.06604,2.50397,2.402,19.5567,80,0,
221.454,7.06604,2.50549,2.402,19.5567,80,0,
221.454,7.06573,2.50244,2.402,19.5567,80,0,
221.454,7.06665,2.50549,2.402,19.5567,80,0,
221.454,7.06604,2.50397,2.402,19.5567,80,0,
221.454,7.06512,2.50397,2.402,19.5567,80,0,
221.454,7.06604,2.50397,2.402,19.5567,80,0,
221.454,7.06146,2.50397,2.402,19.5567,80,0,
221.454,7.06085,2.50092,2.402,19.5567,80,0,
221.454,7.06146,2.50244,2.402,19.5567,80,0,
221.454,7.06116,2.50397,2.402,19.5567,80,0,
221.454,7.06085,2.50549,2.402,19.5567,80,0,
221.454,7.06055,2.50244,2.402,19.5567,80,0,
221.454,7.06055,2.50244,2.402,19.5567,80,0,
221.454,7.06146,2.50702,2.402,19.5567,80,0,
221.454,7.06146,2.50397,2.402,19.5567,80,0,
221.454,7.05994,2.50397,2.402,19.5567,80,0,
221.454,7.05658,2.49939,2.402,19.5567,80,0,
221.455,7.05597,2.50092,0.698,19.5567,80,0,
221.455,7.05566,2.50244,0.698,19.5567,80,0,
221.455,7.05658,2.50397,0.698,19.5567,80,0,
221.455,7.05627,2.50549,0.698,19.5567,80,0,
221.455,7.05658,2.50092,0.698,19.5567,80,0,
221.455,7.05627,2.50244,0.698,19.5567,80,0,
221.455,7.05597,2.50549,0.698,19.5567,80,0,
221.455,7.05566,2.50244,0.698,19.5567,80,0,
221.455,7.0517,2.50549,0.698,19.5567,80,0,
221.455,7.05139,2.50397,0.698,19.5567,80,0,
221.455,7.05139,2.50397,0.698,19.5567,80,0,
221.455,7.05078,2.50549,0.698,19.5567,80,0,
221.455,7.05109,2.50244,0.698,19.5567,80,0,
221.455,7.05109,2.50092,0.698,19.5567,80,0,
221.455,7.0517,2.50397,0.698,19.5567,80,0,
221.455,7.05017,2.50397,0.698,19.5567,80,0,
221.455,7.0462,2.50397,0.698,19.5567,80,0,
221.455,7.0459,2.50397,0.698,19.5567,80,0,
221.455,7.04712,2.50244,0.698,19.5567,80,0,
221.455,7.0462,2.50397,0.698,19.5567,80,0,
221.455,7.04681,2.50397,0.698,19.5567,80,0,
221.455,7.04651,2.50244,0.698,19.5567,80,0,
221.455,7.0459,2.50397,0.698,19.5567,80,0,
221.455,7.04102,2.50549,0.698,19.5567,80,0,
221.455,7.04132,2.50397,0.698,19.5567,80,0,
221.455,7.04163,2.50397,0.698,19.5567,80,0,
221.455,7.04163,2.50397,0.698,19.5567,80,0,
221.455,7.04163,2.50549,0.698,19.5567,80,0,
221.455,7.04132,2.50397,0.698,19.5567,80,0,
221.456,7.04132,2.50397,0.698,19.5567,80,0,
221.456,7.03766,2.50549,0.698,19.5567,80,0,
221.456,7.03644,2.50397,0.698,19.5567,80,0,
221.456,7.03674,2.50244,0.698,19.5567,80,0,
221.456,7.03583,2.50092,0.698,19.5567,80,0,
221.456,7.03674,2.50244,0.698,19.5567,80,0,
221.456,7.03705,2.50244,0.698,19.5567,80,0,
221.456,7.03156,2.50549,0.698,19.5567,80,0,
221.456,7.03186,2.50549,0.698,19.5567,80,0,
221.456,7.03125,2.49939,0.698,19.5567,80,0,
221.456,7.03156,2.50244,0.698,19.5567,80,0,
221.456,7.03094,2.50092,0.698,19.5567,80,0,
221.456,7.03217,2.50702,0.698,19.5567,80,0,
