2400-SECPT.acq
2 msec/sample
6 channels
RSP, X, RSPEC-R
Volts
EDA, Y, PPGED-R
microsiemens
ECG R-R
Seconds
Respiration Rate
BPM
C7 - EDR
Peaks
C14 - Control
Volts
min,CH1,CH14,CH40,CH42,CH47,CH54,
,90058,90058,90058,90058,90058,90058,
75.519,5.98328,17.0441,0.332,19.7498,442,5,
75.5191,5.98297,17.0456,0.332,19.7498,442,5,
75.5191,5.9787,17.0441,0.332,19.7498,442,5,
75.5191,5.97839,17.0456,0.332,19.7498,442,5,
75.5192,5.97809,17.0456,0.332,19.7498,442,5,
75.5192,5.97778,17.0425,0.332,19.7498,442,5,
75.5192,5.97809,17.0456,0.332,19.7498,442,5,
75.5193,5.97778,17.0456,0.332,19.7498,442,5,
75.5193,5.97382,17.0456,0.332,19.7498,442,5,
75.5193,5.9729,17.0456,0.332,19.7498,442,5,
75.5194,5.97351,17.0471,0.332,19.7498,442,5,
75.5194,5.9726,17.0425,0.332,19.7498,442,5,
75.5194,5.97382,17.0456,0.332,19.7498,442,5,
75.5195,5.96802,17.0471,0.332,19.7498,442,5,
75.5195,5.96771,17.0441,0.332,19.7498,442,5,
75.5195,5.96802,17.0456,0.332,19.7498,442,5,
75.5196,5.96802,17.0441,0.332,19.7498,442,5,
75.5196,5.96893,17.0593,0.332,19.7498,442,5,
75.5196,5.96313,17.0578,0.332,19.7498,442,5,
75.5197,5.96313,17.0563,0.332,19.7498,442,5,
75.5197,5.96313,17.0563,0.332,19.7498,442,5,
75.5197,5.96344,17.0563,0.332,19.7498,442,5,
75.5198,5.96283,17.0593,0.332,19.7498,442,5,
75.5198,5.95795,17.0563,0.332,19.7498,442,5,
75.5198,5.95856,17.0547,0.332,19.7498,442,5,
75.5199,5.95795,17.0563,0.332,19.7498,442,5,
75.5199,5.95856,17.0563,0.332,19.7498,442,5,
75.5199,5.95642,17.0547,0.332,19.7498,442,5,
75.52,5.95337,17.0563,0.332,19.7498,442,5,
75.52,5.95398,17.0578,0.332,19.7498,442,5,
75.52,5.95337,17.0578,0.332,19.7498,442,5,
75.5201,5.95337,17.0593,0.332,19.7498,442,5,
75.5201,5.94879,17.0563,0.332,19.7498,442,5,
75.5201,5.9491,17.0532,0.332,19.7498,442,5,
75.5202,5.94971,17.0563,0.332,19.7498,442,5,
75.5202,5.9491,17.0578,0.332,19.7498,442,5,
75.5202,5.94482,17.0563,0.332,19.7498,442,5,
75.5203,5.9436,17.0547,0.332,19.7498,442,5,
75.5203,5.94421,17.0563,0.332,19.7498,442,5,
75.5203,5.94513,17.0624,0.332,19.7498,442,5,
75.5204,5.9436,17.0685,0.332,19.7498,442,5,
75.5204,5.93872,17.0685,0.332,19.7498,442,5,
75.5204,5.93994,17.07,0.332,19.7498,442,5,
75.5205,5.93933,17.0685,0.332,19.7498,442,5,
75.5205,5.93903,17.0654,0.332,19.7498,442,5,
75.5205,5.93445,17.07,0.332,19.7498,442,5,
75.5206,5.93475,17.0685,0.332,19.7498,442,5,
75.5206,5.93445,17.0685,0.332,19.7498,442,5,
75.5206,5.93323,17.0685,0.332,19.7498,442,5,
75.5207,5.92896,17.0715,0.332,19.7498,442,5,
75.5207,5.92957,17.0685,0.332,19.7498,442,5,
75.5207,5.92926,17.067,0.332,19.7498,442,5,
75.5208,5.92896,17.067,0.332,19.7498,442,5,
75.5208,5.92438,17.0685,0.332,19.7498,442,5,
75.5208,5.92438,17.07,0.332,19.7498,442,5,
75.5209,5.92377,17.07,0.332,19.7498,442,5,
75.5209,5.92499,17.0685,0.332,19.7498,442,5,
75.5209,5.9201,17.067,0.332,19.7498,442,5,
75.521,5.91919,17.067,0.332,19.7498,442,5,
75.521,5.91919,17.067,0.332,19.7498,442,5,
75.521,5.9201,17.0685,0.332,19.7498,442,5,
75.5211,5.91675,17.07,0.332,19.7498,442,5,
75.5211,5.914,17.0685,0.332,19.7498,442,5,
75.5211,5.91461,17.067,0.332,19.7498,442,5,
75.5212,5.9137,17.067,0.332,19.7498,442,5,
75.5212,5.91248,17.07,0.332,19.7498,442,5,
75.5212,5.90973,17.0685,0.332,19.7498,442,5,
75.5213,5.90973,17.067,0.332,19.7498,442,5,
75.5213,5.91003,17.0685,0.332,19.7498,442,5,
75.5213,5.90668,17.0776,0.332,19.7498,442,5,
75.5214,5.90485,17.0807,0.332,19.7498,442,5,
75.5214,5.90454,17.0792,0.332,19.7498,442,5,
75.5214,5.90485,17.0776,0.332,19.7498,442,5,
75.5215,5.90424,17.0822,0.332,19.7498,442,5,
75.5215,5.89935,17.0822,0.332,19.7498,442,5,
75.5215,5.89935,17.0822,0.332,19.7498,442,5,
75.5216,5.89935,17.0792,0.332,19.7498,442,5,
75.5216,5.90027,17.0776,0.332,19.7498,442,5,
75.5216,5.89539,17.0822,0.332,19.7498,442,5,
75.5217,5.89478,17.0792,0.332,19.7498,442,5,
75.5217,5.89569,17.0792,0.332,19.7498,442,5,
75.5217,5.89569,17.0807,0.332,19.7498,442,5,
75.5218,5.89081,17.0822,0.332,19.7498,442,5,
75.5218,5.8902,17.0822,0.332,19.7498,442,5,
75.5218,5.88959,17.0807,0.332,19.7498,442,5,
75.5219,5.88989,17.0807,0.332,19.7498,442,5,
75.5219,5.88623,17.0807,0.332,19.7498,442,5,
75.5219,5.8844,17.0792,0.332,19.7498,442,5,
75.522,5.8847,17.0792,0.332,19.7498,442,5,
75.522,5.88531,17.0807,0.332,19.7498,442,5,
75.522,5.88165,17.0807,0.332,19.7498,442,5,
75.5221,5.88043,17.0792,0.332,19.7498,442,5,
75.5221,5.87982,17.0807,0.332,19.7498,442,5,
75.5221,5.88074,17.0792,0.332,19.7498,442,5,
75.5222,5.88013,17.0853,0.332,19.7498,442,5,
75.5222,5.87585,17.0807,0.332,19.7498,442,5,
75.5222,5.87524,17.0807,0.332,19.7498,442,5,
75.5223,5.87555,17.0792,0.332,19.7498,442,5,
75.5223,5.87524,17.0792,0.332,19.7498,442,5,
75.5223,5.87128,17.0822,0.332,19.7498,442,5,
75.5224,5.87097,17.0776,0.332,19.7498,442,5,
75.5224,5.87006,17.0776,0.332,19.7498,442,5,
75.5224,5.86975,17.0807,0.332,19.7498,442,5,
75.5225,5.87036,17.0792,0.332,19.7498,442,5,
75.5225,5.86517,17.0807,0.332,19.7498,442,5,
75.5225,5.86609,17.0792,0.332,19.7498,442,5,
75.5226,5.86578,17.0822,0.332,19.7498,442,5,
75.5226,5.86609,17.0822,0.332,19.7498,442,5,
75.5226,5.86365,17.0792,0.332,19.7498,442,5,
75.5227,5.86029,17.0807,0.332,19.7498,442,5,
75.5227,5.8609,17.0807,0.332,19.7498,442,5,
75.5227,5.86121,17.0776,0.332,19.7498,442,5,
75.5228,5.86121,17.0807,0.332,19.7498,442,5,
75.5228,5.85815,17.0822,0.332,19.7498,442,5,
75.5228,5.85571,17.0792,0.332,19.7498,442,5,
75.5229,5.85541,17.0792,0.332,19.7498,442,5,
75.5229,5.85632,17.0776,0.332,19.7498,442,5,
75.5229,5.85541,17.0837,0.332,19.7498,442,5,
75.523,5.85297,17.0776,0.332,19.7498,442,5,
75.523,5.85083,17.0807,0.332,19.7498,442,5,
75.523,5.85022,17.0792,0.332,19.7498,442,5,
75.5231,5.85144,17.0807,0.332,19.7498,442,5,
75.5231,5.85083,17.0776,0.332,19.7498,442,5,
75.5231,5.85114,17.0792,0.332,19.7498,442,5,
75.5232,5.84564,17.0792,0.332,19.7498,442,5,
75.5232,5.84656,17.0776,0.332,19.7498,442,5,
75.5232,5.84656,17.0807,0.332,19.7498,442,5,
75.5233,5.84625,17.0837,0.332,19.7498,442,5,
75.5233,5.84534,17.0807,0.332,19.7498,442,5,
75.5233,5.84137,17.0822,0.332,19.7498,442,5,
75.5234,5.84167,17.0807,0.332,19.7498,442,5,
75.5234,5.84137,17.0822,0.332,19.7498,442,5,
75.5234,5.84167,17.0761,0.332,19.7498,442,5,
75.5235,5.84076,17.0807,0.332,19.7498,442,5,
75.5235,5.84167,17.0792,0.332,19.7498,442,5,
75.5235,5.83679,17.0792,0.332,19.7498,442,5,
75.5236,5.83649,17.0822,0.332,19.7498,442,5,
75.5236,5.83618,17.0807,0.332,19.7498,442,5,
75.5236,5.83618,17.0792,0.332,19.7498,442,5,
75.5237,5.83649,17.0792,0.332,19.7498,442,5,
75.5237,5.83649,17.0776,0.332,19.7498,442,5,
75.5237,5.83282,17.0776,0.332,19.7498,442,5,
75.5238,5.83221,17.0807,0.332,19.7498,442,5,
75.5238,5.8316,17.0792,0.332,19.7498,442,5,
75.5238,5.8316,17.0837,0.332,19.7498,442,5,
75.5239,5.83191,17.0822,0.332,19.7498,442,5,
75.5239,5.8316,17.0822,0.332,19.7498,442,5,
75.5239,5.8316,17.0822,0.332,19.7498,442,5,
75.524,5.83099,17.0822,0.332,19.7498,442,5,
75.524,5.82642,17.0837,0.332,19.7498,442,5,
75.524,5.82672,17.0792,0.332,19.7498,442,5,
75.5241,5.82611,17.0822,0.332,19.7498,442,5,
75.5241,5.82703,17.0807,0.332,19.7498,442,5,
75.5241,5.82642,17.0807,0.332,19.7498,442,5,
75.5242,5.82703,17.0792,0.332,19.7498,442,5,
75.5242,5.82642,17.0776,0.332,19.7498,442,5,
75.5242,5.82672,17.0807,0.332,19.7498,442,5,
75.5243,5.82642,17.0792,0.332,19.7498,442,5,
75.5243,5.82642,17.0822,0.332,19.7498,442,5,
75.5243,5.82184,17.0776,0.332,19.7498,442,5,
75.5244,5.82184,17.0807,0.332,19.7498,442,5,
75.5244,5.82214,17.0822,0.332,19.7498,442,5,
75.5244,5.82184,17.0837,0.332,19.7498,442,5,
75.5245,5.82153,17.0807,0.332,19.7498,442,5,
75.5245,5.82153,17.0776,0.332,19.7498,442,5,
75.5245,5.82153,17.0792,0.332,19.7498,442,5,
75.5246,5.82153,17.0822,0.332,19.7498,442,5,
75.5246,5.82184,17.0807,0.332,19.7498,442,5,
75.5246,5.82123,17.0807,0.332,19.7498,442,5,
75.5247,5.82123,17.0822,0.332,19.7498,442,5,
75.5247,5.82153,17.0761,0.332,19.7498,442,5,
75.5247,5.82184,17.0792,0.332,19.7498,442,5,
75.5248,5.82092,17.0792,0.332,19.7498,442,5,
75.5248,5.82062,17.0792,0.332,19.7498,442,5,
75.5248,5.82062,17.0822,0.332,19.7498,442,5,
75.5249,5.82123,17.0807,0.332,19.7498,442,5,
75.5249,5.82092,17.0792,0.332,19.7498,442,5,
75.5249,5.82153,17.0837,0.332,19.7498,442,5,
75.525,5.82123,17.0807,0.332,19.7498,442,5,
75.525,5.82062,17.0792,0.332,19.7498,442,5,
75.525,5.82214,17.0792,0.332,19.7498,442,5,
75.5251,5.82184,17.0792,0.332,19.7498,442,5,
75.5251,5.82092,17.0792,0.332,19.7498,442,5,
75.5251,5.82153,17.0792,0.332,19.7498,442,5,
75.5252,5.82123,17.0776,0.332,19.7498,442,5,
75.5252,5.82611,17.0807,0.332,19.7498,442,5,
75.5252,5.82611,17.0837,0.332,19.7498,442,5,
75.5253,5.82581,17.0822,0.332,19.7498,442,5,
75.5253,5.82611,17.0792,0.332,19.7498,442,5,
75.5253,5.82581,17.0776,0.332,19.7498,442,5,
75.5254,5.82611,17.0807,0.332,19.7498,442,5,
75.5254,5.82611,17.0822,0.332,19.7498,442,5,
75.5254,5.82611,17.0792,0.332,19.7498,442,5,
75.5255,5.83099,17.0807,0.332,19.7498,442,5,
75.5255,5.8316,17.0807,0.332,19.7498,442,5,
75.5255,5.8313,17.0792,0.332,19.7498,442,5,
75.5256,5.83099,17.0792,0.332,19.7498,442,5,
75.5256,5.8313,17.0792,0.332,19.7498,442,5,
75.5256,5.8316,17.0807,0.332,19.7498,442,5,
75.5257,5.83557,17.0792,0.332,19.7498,442,5,
75.5257,5.83618,17.0776,0.332,19.7498,442,5,
75.5257,5.83618,17.0776,0.332,19.7498,442,5,
75.5258,5.83527,17.0792,0.332,19.7498,442,5,
75.5258,5.83618,17.0792,0.332,19.7498,442,5,
75.5258,5.84045,17.0807,0.332,19.7498,442,5,
75.5259,5.84106,17.0807,0.332,19.7498,442,5,
75.5259,5.84106,17.0807,0.332,19.7498,442,5,
75.5259,5.84137,17.0807,0.332,19.7498,442,5,
75.526,5.84534,17.0776,0.332,19.7498,442,5,
75.526,5.84534,17.0807,0.332,19.7498,442,5,
75.526,5.84625,17.0761,0.332,19.7498,442,5,
75.5261,5.84564,17.0792,0.332,19.7498,442,5,
75.5261,5.85052,17.0807,0.332,19.7498,442,5,
75.5261,5.85114,17.0792,0.332,19.7498,442,5,
75.5262,5.84961,17.0807,0.332,19.7498,442,5,
75.5262,5.85541,17.0792,0.332,19.7498,442,5,
75.5262,5.85541,17.0792,0.332,19.7498,442,5,
75.5263,5.85571,17.0776,0.332,19.7498,442,5,
75.5263,5.85846,17.0807,0.332,19.7498,442,5,
75.5263,5.8606,17.0807,0.332,19.7498,442,5,
75.5264,5.8609,17.0822,0.332,19.7498,442,5,
75.5264,5.86243,17.0837,0.332,19.7498,442,5,
75.5264,5.86578,17.0792,0.332,19.7498,442,5,
75.5265,5.86517,17.0822,0.332,19.7498,442,5,
75.5265,5.87036,17.0807,0.332,19.7498,442,5,
75.5265,5.86975,17.0792,0.332,19.7498,442,5,
75.5266,5.87036,17.0837,0.332,19.7498,442,5,
75.5266,5.87494,17.0807,0.332,19.7498,442,5,
75.5266,5.87585,17.0807,0.332,19.7498,442,5,
75.5267,5.87982,17.0822,0.332,19.7498,442,5,
75.5267,5.88074,17.0807,0.332,19.7498,442,5,
75.5267,5.88043,17.0792,0.332,19.7498,442,5,
75.5268,5.88531,17.0807,0.332,19.7498,442,5,
75.5268,5.88409,17.0807,0.332,19.7498,442,5,
75.5268,5.88989,17.0807,0.332,19.7498,442,5,
75.5269,5.8902,17.0792,0.332,19.7498,442,5,
75.5269,5.89355,17.0807,0.332,19.7498,442,5,
75.5269,5.89478,17.0807,0.332,19.7498,442,5,
75.527,5.89722,17.0822,0.332,19.7498,442,5,
75.527,5.89996,17.0837,0.332,19.7498,442,5,
75.527,5.90271,17.0807,0.332,19.7498,442,5,
75.5271,5.90424,17.0761,0.332,19.7498,442,5,
75.5271,5.90698,17.0853,0.332,19.7498,442,5,
75.5271,5.91003,17.0837,0.332,19.7498,442,5,
75.5272,5.91217,17.0792,0.332,19.7498,442,5,
75.5272,5.91461,17.0822,0.332,19.7498,442,5,
75.5272,5.91797,17.0822,0.332,19.7498,442,5,
75.5273,5.9198,17.0822,0.332,19.7498,442,5,
75.5273,5.92316,17.0807,0.332,19.7498,442,5,
75.5273,5.92468,17.0792,0.332,19.7498,442,5,
75.5274,5.92896,17.0792,0.332,19.7498,442,5,
75.5274,5.92926,17.0807,0.332,19.7498,442,5,
75.5274,5.93384,17.0807,0.332,19.7498,442,5,
75.5275,5.93445,17.0807,0.332,19.7498,442,5,
75.5275,5.93842,17.0792,0.332,19.7498,442,5,
75.5275,5.94147,17.0837,0.332,19.7498,442,5,
75.5276,5.94482,17.0792,0.332,19.7498,442,5,
75.5276,5.94879,17.0807,0.332,19.7498,442,5,
75.5276,5.94879,17.0776,0.332,19.7498,442,5,
75.5277,5.95276,17.0807,0.332,19.7498,442,5,
75.5277,5.95642,17.0792,0.332,19.7498,442,5,
75.5277,5.95856,17.0776,0.332,19.7498,442,5,
75.5278,5.96313,17.0807,0.332,19.7498,442,5,
75.5278,5.96619,17.0822,0.332,19.7498,442,5,
75.5278,5.96802,17.0792,0.332,19.7498,442,5,
75.5279,5.97198,17.0807,0.332,19.7498,442,5,
75.5279,5.97382,17.0807,0.332,19.7498,442,5,
75.5279,5.97809,17.0807,0.332,19.7498,442,5,
75.528,5.98297,17.0822,0.332,19.7498,442,5,
75.528,5.98297,17.0776,0.332,19.7498,442,5,
75.528,5.98785,17.0822,0.332,19.7498,442,5,
75.5281,5.99152,17.0822,0.332,19.7498,442,5,
75.5281,5.99304,17.0807,0.332,19.7498,442,5,
75.5281,5.99274,17.0776,0.332,19.7498,442,5,
75.5282,5.99243,17.0807,0.332,19.7498,442,5,
75.5282,5.99304,17.0822,0.332,19.7498,442,5,
75.5282,5.99182,17.0807,0.332,19.7498,442,5,
75.5283,6.01257,17.0822,0.332,19.7498,442,5,
75.5283,6.01471,17.0792,0.332,19.7498,442,5,
75.5283,6.01776,17.0792,0.332,19.7498,442,5,
75.5284,6.02234,17.0792,0.332,19.7498,442,5,
75.5284,6.02692,17.0807,0.332,19.7498,442,5,
75.5284,6.02722,17.0807,0.332,19.7498,442,5,
75.5285,6.0321,17.0807,0.332,19.7498,442,5,
75.5285,6.03638,17.0776,0.332,19.7498,442,5,
75.5285,6.03973,17.0807,0.332,19.7498,442,5,
75.5286,6.04187,17.0807,0.332,19.7498,442,5,
75.5286,6.04706,17.0822,0.332,19.7498,442,5,
75.5286,6.05072,17.0792,0.332,19.7498,442,5,
75.5287,6.05469,17.0792,0.332,19.7498,442,5,
75.5287,6.05682,17.067,0.332,19.7498,442,5,
75.5287,6.06171,17.0715,0.332,19.7498,442,5,
75.5288,6.06628,17.067,0.332,19.7498,442,5,
75.5288,6.06873,17.07,0.332,19.7498,442,5,
75.5288,6.07117,17.067,0.332,19.7498,442,5,
75.5289,6.07605,17.07,0.332,19.7498,442,5,
75.5289,6.08032,17.0685,0.332,19.7498,442,5,
75.5289,6.08429,17.0685,0.332,19.7498,442,5,
75.529,6.08612,17.0685,0.332,19.7498,442,5,
75.529,6.09131,17.0685,0.332,19.7498,442,5,
75.529,6.09467,17.0731,0.332,19.7498,442,5,
75.5291,6.09833,17.0685,0.332,19.7498,442,5,
75.5291,6.09985,17.07,0.332,19.7498,442,5,
75.5291,6.10077,17.07,0.332,19.7498,442,5,
75.5292,6.10107,17.0685,0.332,19.7498,442,5,
75.5292,6.10046,17.0685,0.332,19.7498,442,5,
75.5292,6.10046,17.067,0.332,19.7498,442,5,
75.5293,6.10016,17.07,0.332,19.7498,442,5,
75.5293,6.11816,17.0685,0.332,19.7498,442,5,
75.5293,6.12457,17.07,0.332,19.7498,442,5,
75.5294,6.12762,17.0685,0.332,19.7498,442,5,
75.5294,6.13007,17.0685,0.332,19.7498,442,5,
75.5294,6.13556,17.067,0.332,19.7498,442,5,
75.5295,6.13953,17.0685,0.332,19.7498,442,5,
75.5295,6.14441,17.067,0.332,19.7498,442,5,
75.5295,6.14471,17.0715,0.332,19.7498,442,5,
75.5296,6.1496,17.0685,0.332,19.7498,442,5,
75.5296,6.15387,17.0715,0.332,19.7498,442,5,
75.5296,6.15906,17.0685,0.332,19.7498,442,5,
75.5297,6.16119,17.0654,0.332,19.7498,442,5,
75.5297,6.16425,17.0685,0.332,19.7498,442,5,
75.5297,6.16943,17.067,0.332,19.7498,442,5,
75.5298,6.17371,17.0715,0.332,19.7498,442,5,
75.5298,6.17859,17.067,0.332,19.7498,442,5,
75.5298,6.18073,17.067,0.332,19.7498,442,5,
75.5299,6.18408,17.067,0.332,19.7498,442,5,
75.5299,6.18835,17.0654,0.332,19.7498,442,5,
75.5299,6.19293,17.07,0.332,19.7498,442,5,
75.53,6.19629,17.07,0.332,19.7498,442,5,
75.53,6.19934,17.0685,0.332,19.7498,442,5,
75.53,6.20361,17.0685,0.332,19.7498,442,5,
75.5301,6.2085,17.0685,0.332,19.7498,442,5,
75.5301,6.21277,17.07,0.332,19.7498,442,5,
75.5301,6.21643,17.07,0.332,19.7498,442,5,
75.5302,6.21826,17.0731,0.332,19.7498,442,5,
75.5302,6.22314,17.0715,0.332,19.7498,442,5,
75.5302,6.22772,17.0715,0.332,19.7498,442,5,
75.5303,6.23077,17.067,0.332,19.7498,442,5,
75.5303,6.2323,17.0685,0.332,19.7498,442,5,
75.5303,6.2384,17.07,0.332,19.7498,442,5,
75.5304,6.24268,17.067,0.332,19.7498,442,5,
75.5304,6.24695,17.07,0.332,19.7498,442,5,
75.5304,6.25,17.07,0.332,19.7498,442,5,
75.5305,6.25275,17.067,0.332,19.7498,442,5,
75.5305,6.25702,17.067,0.332,19.7498,442,5,
75.5305,6.2616,17.0654,0.332,19.7498,442,5,
75.5306,6.26495,17.0685,0.332,19.7498,442,5,
75.5306,6.26617,17.067,0.332,19.7498,442,5,
75.5306,6.27228,17.07,0.332,19.7498,442,5,
75.5307,6.27594,17.07,0.332,19.7498,442,5,
75.5307,6.27838,17.0654,0.332,19.7498,442,5,
75.5307,6.28143,17.0685,0.332,19.7498,442,5,
75.5308,6.28601,17.067,0.332,19.7498,442,5,
75.5308,6.29181,17.0731,0.332,19.7498,442,5,
75.5308,6.29425,17.0654,0.332,19.7498,442,5,
75.5309,6.29608,17.07,0.332,19.7498,442,5,
75.5309,6.30127,17.0685,0.332,19.7498,442,5,
75.5309,6.30585,17.0654,0.332,19.7498,442,5,
75.531,6.30859,17.067,0.332,19.7498,442,5,
75.531,6.31104,17.0715,0.332,19.7498,442,5,
75.531,6.31592,17.0685,0.332,19.7498,442,5,
75.5311,6.32019,17.067,0.332,19.7498,442,5,
75.5311,6.32385,17.0715,0.332,19.7498,442,5,
75.5311,6.32629,17.067,0.332,19.7498,442,5,
75.5312,6.33026,17.067,0.332,19.7498,442,5,
75.5312,6.33484,17.0685,0.332,19.7498,442,5,
75.5312,6.3385,17.07,0.332,19.7498,442,5,
75.5313,6.33972,17.0624,0.332,19.7498,442,5,
75.5313,6.34491,17.0563,0.332,19.7498,442,5,
75.5313,6.34979,17.0578,0.332,19.7498,442,5,
75.5314,6.3501,17.0563,0.332,19.7498,442,5,
75.5314,6.35529,17.0532,0.332,19.7498,442,5,
75.5314,6.36017,17.0593,0.332,19.7498,442,5,
75.5315,6.36353,17.0532,0.332,19.7498,442,5,
75.5315,6.36536,17.0593,0.332,19.7498,442,5,
75.5315,6.36993,17.0578,0.332,19.7498,442,5,
75.5316,6.37421,17.0547,0.332,19.7498,442,5,
75.5316,6.37482,17.0547,0.332,19.7498,442,5,
75.5316,6.38,17.0578,0.332,19.7498,442,5,
75.5317,6.38367,17.0563,0.332,19.7498,442,5,
75.5317,6.38763,17.0547,0.332,19.7498,442,5,
75.5317,6.39038,17.0547,0.332,19.7498,442,5,
75.5318,6.39465,17.0563,0.332,19.7498,442,5,
75.5318,6.3974,17.0563,0.332,19.7498,442,5,
75.5318,6.39893,17.0563,0.332,19.7498,442,5,
75.5319,6.40472,17.0532,0.332,19.7498,442,5,
75.5319,6.409,17.0547,0.332,19.7498,442,5,
75.5319,6.409,17.0578,0.332,19.7498,442,5,
75.532,6.41388,17.0563,0.332,19.7498,442,5,
75.532,6.41846,17.0578,0.332,19.7498,442,5,
75.532,6.41907,17.0547,0.332,19.7498,442,5,
75.5321,6.42395,17.0563,0.332,19.7498,442,5,
75.5321,6.42761,17.0578,0.332,19.7498,442,5,
75.5321,6.42853,17.0578,0.332,19.7498,442,5,
75.5322,6.43311,17.0547,0.332,19.7498,442,5,
75.5322,6.43768,17.0593,0.332,19.7498,442,5,
75.5322,6.4389,17.0547,0.332,19.7498,442,5,
75.5323,6.44318,17.0563,0.332,19.7498,442,5,
75.5323,6.44745,17.0563,0.332,19.7498,442,5,
75.5323,6.44806,17.0563,0.332,19.7498,442,5,
75.5324,6.45325,17.0563,0.332,19.7498,442,5,
75.5324,6.45813,17.0547,0.332,19.7498,442,5,
75.5324,6.45752,17.0532,0.332,19.7498,442,5,
75.5325,6.46271,17.0563,0.332,19.7498,442,5,
75.5325,6.46729,17.0547,0.332,19.7498,442,5,
75.5325,6.4679,17.0517,0.332,19.7498,442,5,
75.5326,6.47339,17.0425,0.332,19.7498,442,5,
75.5326,6.47614,17.0425,0.332,19.7498,442,5,
75.5326,6.47766,17.0441,0.332,19.7498,442,5,
75.5327,6.48224,17.041,0.332,19.7498,442,5,
75.5327,6.48224,17.0425,0.332,19.7498,442,5,
75.5327,6.48773,17.0471,0.332,19.7498,442,5,
75.5328,6.49231,17.0441,0.332,19.7498,442,5,
75.5328,6.49231,17.0425,0.332,19.7498,442,5,
75.5328,6.49811,17.041,0.332,19.7498,442,5,
75.5329,6.49933,17.0456,0.332,19.7498,442,5,
75.5329,6.50177,17.0471,0.332,19.7498,442,5,
75.5329,6.50574,17.0441,0.332,19.7498,442,5,
75.533,6.50696,17.0471,0.332,19.7498,442,5,
75.533,6.51215,17.0441,0.332,19.7498,442,5,
75.533,6.51459,17.0425,0.332,19.7498,442,5,
75.5331,6.51703,17.0441,0.332,19.7498,442,5,
75.5331,6.52191,17.0441,0.332,19.7498,442,5,
75.5331,6.52222,17.0425,0.332,19.7498,442,5,
75.5332,6.52649,17.0425,0.332,19.7498,442,5,
75.5332,6.52618,17.0441,0.332,19.7498,442,5,
75.5332,6.53168,17.0441,0.332,19.7498,442,5,
75.5333,6.53503,17.0425,0.332,19.7498,442,5,
75.5333,6.53656,17.0425,0.332,19.7498,442,5,
75.5333,6.54144,17.0441,0.332,19.7498,442,5,
75.5334,6.54083,17.0425,0.332,19.7498,442,5,
75.5334,6.54602,17.0441,0.332,19.7498,442,5,
75.5334,6.54633,17.0456,0.332,19.7498,442,5,
75.5335,6.55121,17.0441,0.332,19.7498,442,5,
75.5335,6.55151,17.041,0.332,19.7498,442,5,
75.5335,6.5567,17.0471,0.332,19.7498,442,5,
75.5336,6.55975,17.041,0.332,19.7498,442,5,
75.5336,6.56128,17.0456,0.332,19.7498,442,5,
75.5336,6.56464,17.038,0.332,19.7498,442,5,
75.5337,6.56616,17.0288,0.332,19.7498,442,5,
75.5337,6.57043,17.0334,0.332,19.7498,442,5,
75.5337,6.57104,17.0349,0.332,19.7498,442,5,
75.5338,6.57532,17.0319,0.332,19.7498,442,5,
75.5338,6.57501,17.0319,0.332,19.7498,442,5,
75.5338,6.5799,17.0319,0.332,19.7498,442,5,
75.5339,6.58051,17.0349,0.332,19.7498,442,5,
75.5339,6.58569,17.0273,0.332,19.7498,442,5,
75.5339,6.58478,17.0349,0.332,19.7498,442,5,
75.534,6.58997,17.0334,0.332,19.7498,442,5,
75.534,6.58997,17.0319,0.332,19.7498,442,5,
75.534,6.59546,17.0334,0.332,19.7498,442,5,
75.5341,6.59485,17.0334,0.332,19.7498,442,5,
75.5341,6.59943,17.0319,0.332,19.7498,442,5,
75.5341,6.59973,17.0288,0.332,19.7498,442,5,
75.5342,6.60431,17.0334,0.332,19.7498,442,5,
75.5342,6.604,17.0319,0.332,19.7498,442,5,
75.5342,6.60889,17.0334,0.332,19.7498,442,5,
75.5343,6.6095,17.0303,0.332,19.7498,442,5,
75.5343,6.61438,17.0319,0.332,19.7498,442,5,
75.5343,6.61499,17.0319,0.332,19.7498,442,5,
75.5344,6.61774,17.0303,0.332,19.7498,442,5,
75.5344,6.62048,17.0334,0.332,19.7498,442,5,
75.5344,6.62262,17.0319,0.332,19.7498,442,5,
75.5345,6.62445,17.0319,0.332,19.7498,442,5,
75.5345,6.62445,17.0334,0.332,19.7498,442,5,
75.5345,6.62903,17.0319,0.332,19.7498,442,5,
75.5346,6.62872,17.0319,0.332,19.7498,442,5,
75.5346,6.63422,17.0227,0.332,19.7498,442,5,
75.5346,6.63452,17.0197,0.332,19.7498,442,5,
75.5347,6.63879,17.0197,0.332,19.7498,442,5,
75.5347,6.63849,17.0197,0.332,19.7498,442,5,
75.5347,6.64246,17.0197,0.332,19.7498,442,5,
75.5348,6.64459,17.0212,0.332,19.7498,442,5,
75.5348,6.64398,17.0197,0.332,19.7498,442,5,
75.5348,6.64886,17.0181,0.332,19.7498,442,5,
75.5349,6.64917,17.0197,0.332,19.7498,442,5,
75.5349,6.65344,17.0197,0.332,19.7498,442,5,
75.5349,6.65405,17.0212,0.332,19.7498,442,5,
75.535,6.6568,17.0197,0.332,19.7498,442,5,
75.535,6.65924,17.0197,0.332,19.7498,442,5,
75.535,6.65894,17.0212,0.332,19.7498,442,5,
75.5351,6.66351,17.0197,0.332,19.7498,442,5,
75.5351,6.66351,17.0212,0.332,19.7498,442,5,
75.5351,6.66779,17.0227,0.332,19.7498,442,5,
75.5352,6.66901,17.0197,0.332,19.7498,442,5,
75.5352,6.66901,17.0212,0.332,19.7498,442,5,
75.5352,6.67358,17.0197,0.332,19.7498,442,5,
75.5353,6.67297,17.0197,0.332,19.7498,442,5,
75.5353,6.67786,17.0212,0.332,19.7498,442,5,
75.5353,6.67816,17.0197,0.332,19.7498,442,5,
75.5354,6.67908,17.0197,0.332,19.7498,442,5,
75.5354,6.68274,17.0166,0.332,19.7498,442,5,
75.5354,6.68304,17.0197,0.332,19.7498,442,5,
75.5355,6.68793,17.0212,0.332,19.7498,442,5,
75.5355,6.68823,17.009,0.332,19.7498,442,5,
75.5355,6.68884,17.0074,0.332,19.7498,442,5,
75.5356,6.69312,17.0074,0.332,19.7498,442,5,
75.5356,6.69312,17.0059,0.332,19.7498,442,5,
75.5356,6.69586,17.0059,0.332,19.7498,442,5,
75.5357,6.698,17.0074,0.332,19.7498,442,5,
75.5357,6.69861,17.0044,0.332,19.7498,442,5,
75.5357,6.70197,17.0074,0.332,19.7498,442,5,
75.5358,6.7038,17.009,0.332,19.7498,442,5,
75.5358,6.70288,17.009,0.332,19.7498,442,5,
75.5358,6.70837,17.0059,0.332,19.7498,442,5,
75.5359,6.70807,17.0105,0.332,19.7498,442,5,
75.5359,6.71112,17.0044,0.332,19.7498,442,5,
75.5359,6.71387,17.009,0.332,19.7498,442,5,
75.536,6.71326,17.0074,0.332,19.7498,442,5,
75.536,6.7157,17.0059,0.332,19.7498,442,5,
75.536,6.71783,17.0074,0.332,19.7498,442,5,
75.5361,6.71844,17.009,0.332,19.7498,442,5,
75.5361,6.7218,17.0059,0.332,19.7498,442,5,
75.5361,6.72302,17.009,0.332,19.7498,442,5,
75.5362,6.72272,17.0074,0.332,19.7498,442,5,
75.5362,6.72729,17.0074,0.332,19.7498,442,5,
75.5362,6.7276,17.0044,0.332,19.7498,442,5,
75.5363,6.72791,17.0074,0.332,19.7498,442,5,
75.5363,6.73248,17.0074,0.332,19.7498,442,5,
75.5363,6.73187,17.0029,0.332,19.7498,442,5,
75.5364,6.73218,17.009,0.332,19.7498,442,5,
75.5364,6.73767,17.0074,0.332,19.7498,442,5,
75.5364,6.73737,16.9968,0.332,19.7498,442,5,
75.5365,6.73767,16.9937,0.332,19.7498,442,5,
75.5365,6.74194,16.9922,0.332,19.7498,442,5,
75.5365,6.74194,16.9922,0.332,19.7498,442,5,
75.5366,6.74316,16.9922,0.332,19.7498,442,5,
75.5366,6.74683,16.9937,0.332,19.7498,442,5,
75.5366,6.74713,16.9952,0.332,19.7498,442,5,
75.5367,6.74744,16.9998,0.332,19.7498,442,5,
75.5367,6.75171,16.9937,0.332,19.7498,442,5,
75.5367,6.75171,16.9952,0.332,19.7498,442,5,
75.5368,6.75201,16.9937,0.332,19.7498,442,5,
75.5368,6.7569,16.9937,0.332,19.7498,442,5,
75.5368,6.7569,16.9937,0.332,19.7498,442,5,
75.5369,6.75629,16.9968,0.332,19.7498,442,5,
75.5369,6.75995,16.9968,0.332,19.7498,442,5,
75.5369,6.76178,16.9983,0.332,19.7498,442,5,
75.537,6.76117,16.9952,0.332,19.7498,442,5,
75.537,6.76147,16.9968,0.332,19.7498,442,5,
75.537,6.76697,16.9968,0.332,19.7498,442,5,
75.5371,6.76666,16.9983,0.332,19.7498,442,5,
75.5371,6.76697,16.9937,0.332,19.7498,442,5,
75.5371,6.77094,16.9937,0.332,19.7498,442,5,
75.5372,6.77155,16.9937,0.332,19.7498,442,5,
75.5372,6.77246,16.9952,0.332,19.7498,442,5,
75.5372,6.77277,16.9907,0.332,19.7498,442,5,
75.5373,6.77673,16.9983,0.332,19.7498,442,5,
75.5373,6.77673,16.983,0.332,19.7498,442,5,
75.5373,6.77673,16.983,0.332,19.7498,442,5,
75.5374,6.78101,16.9815,0.332,19.7498,442,5,
75.5374,6.78192,16.9815,0.332,19.7498,442,5,
75.5374,6.78162,16.9815,0.332,19.7498,442,5,
75.5375,6.78131,16.9815,0.332,19.7498,442,5,
75.5375,6.78589,16.98,0.332,19.7498,442,5,
75.5375,6.7865,16.9846,0.332,19.7498,442,5,
75.5376,6.7865,16.983,0.332,19.7498,442,5,
75.5376,6.7865,16.983,0.332,19.7498,442,5,
75.5376,6.79138,16.9785,0.332,19.7498,442,5,
75.5377,6.79077,16.9815,0.332,19.7498,442,5,
75.5377,6.79138,16.983,0.332,19.7498,442,5,
75.5377,6.79382,16.9861,0.332,19.7498,442,5,
75.5378,6.79688,16.9815,0.332,19.7498,442,5,
75.5378,6.79688,16.983,0.332,19.7498,442,5,
75.5378,6.79626,16.9815,0.332,19.7498,442,5,
75.5379,6.80054,16.983,0.332,19.7498,442,5,
75.5379,6.80054,16.9861,0.332,19.7498,442,5,
75.5379,6.80054,16.9815,0.332,19.7498,442,5,
75.538,6.80115,16.983,0.332,19.7498,442,5,
75.538,6.80511,16.98,0.332,19.7498,442,5,
75.538,6.80573,16.983,0.332,19.7498,442,5,
75.5381,6.80725,16.9815,0.332,19.7498,442,5,
75.5381,6.80542,16.983,0.332,19.7498,442,5,
75.5381,6.80878,16.9815,0.332,19.7498,442,5,
75.5382,6.81061,16.9785,0.332,19.7498,442,5,
75.5382,6.81091,16.9708,0.332,19.7498,442,5,
75.5382,6.81091,16.9708,0.332,19.7498,442,5,
75.5383,6.81396,16.9739,0.332,19.7498,442,5,
75.5383,6.81519,16.9708,0.332,19.7498,442,5,
75.5383,6.81641,16.9724,0.332,19.7498,442,5,
75.5384,6.81549,16.9693,0.332,19.7498,442,5,
75.5384,6.81549,16.9739,0.332,19.7498,442,5,
75.5384,6.82068,16.9708,0.332,19.7498,442,5,
75.5385,6.82007,16.9724,0.332,19.7498,442,5,
75.5385,6.81946,16.9678,0.332,19.7498,442,5,
75.5385,6.81976,16.9708,0.332,19.7498,442,5,
75.5386,6.82434,16.9724,0.332,19.7498,442,5,
75.5386,6.82495,16.9693,0.332,19.7498,442,5,
75.5386,6.82465,16.9724,0.332,19.7498,442,5,
75.5387,6.82556,16.9724,0.332,19.7498,442,5,
75.5387,6.82556,16.9724,0.332,19.7498,442,5,
75.5387,6.83044,16.9693,0.332,19.7498,442,5,
75.5388,6.83044,16.9708,0.332,19.7498,442,5,
75.5388,6.83044,16.9693,0.332,19.7498,442,5,
75.5388,6.83014,16.9693,0.332,19.7498,442,5,
75.5389,6.83258,16.9708,0.332,19.7498,442,5,
75.5389,6.83472,16.9708,0.332,19.7498,442,5,
75.5389,6.83502,16.9708,0.332,19.7498,442,5,
75.539,6.83502,16.9708,0.332,19.7498,442,5,
75.539,6.83502,16.9708,0.332,19.7498,442,5,
75.539,6.8396,16.9571,0.332,19.7498,442,5,
75.5391,6.84021,16.9617,0.332,19.7498,442,5,
75.5391,6.84082,16.9586,0.332,19.7498,442,5,
75.5391,6.84052,16.9586,0.332,19.7498,442,5,
75.5392,6.8399,16.954,0.332,19.7498,442,5,
75.5392,6.84448,16.9571,0.332,19.7498,442,5,
75.5392,6.8457,16.9571,0.332,19.7498,442,5,
75.5393,6.84448,16.9571,0.332,19.7498,442,5,
75.5393,6.84509,16.9601,0.332,19.7498,442,5,
75.5393,6.84479,16.9586,0.332,19.7498,442,5,
75.5394,6.84814,16.9601,0.332,19.7498,442,5,
75.5394,6.84967,16.9571,0.332,19.7498,442,5,
75.5394,6.85059,16.9571,0.332,19.7498,442,5,
75.5395,6.85028,16.9571,0.332,19.7498,442,5,
75.5395,6.84998,16.9586,0.332,19.7498,442,5,
75.5395,6.84967,16.9586,0.332,19.7498,442,5,
75.5396,6.85425,16.9586,0.332,19.7498,442,5,
75.5396,6.85547,16.9571,0.332,19.7498,442,5,
75.5396,6.85455,16.9601,0.332,19.7498,442,5,
75.5397,6.85516,16.9601,0.332,19.7498,442,5,
75.5397,6.85425,16.9601,0.332,19.7498,442,5,
75.5397,6.8576,16.9586,0.332,19.7498,442,5,
75.5398,6.85883,16.9571,0.332,19.7498,442,5,
75.5398,6.85944,16.9479,0.332,19.7498,442,5,
75.5398,6.85913,16.9464,0.332,19.7498,442,5,
75.5399,6.86066,16.9449,0.332,19.7498,442,5,
75.5399,6.85974,16.9449,0.332,19.7498,442,5,
75.5399,6.86218,16.9525,0.332,19.7498,442,5,
75.54,6.86401,16.9479,0.332,19.7498,442,5,
75.54,6.86462,16.9495,0.332,19.7498,442,5,
75.54,6.86462,16.9464,0.332,19.7498,442,5,
75.5401,6.86523,16.9479,0.332,19.7498,442,5,
75.5401,6.86432,16.9479,0.332,19.7498,442,5,
75.5401,6.86462,16.9418,0.332,19.7498,442,5,
75.5402,6.86951,16.9434,0.332,19.7498,442,5,
75.5402,6.86981,16.9434,0.332,19.7498,442,5,
75.5402,6.8692,16.9479,0.332,19.7498,442,5,
75.5403,6.87073,16.9434,0.332,19.7498,442,5,
75.5403,6.86981,16.9434,0.332,19.7498,442,5,
75.5403,6.8692,16.9449,0.332,19.7498,442,5,
75.5404,6.87225,16.9464,0.332,19.7498,442,5,
75.5404,6.87378,16.9434,0.332,19.7498,442,5,
75.5404,6.87408,16.9434,0.332,19.7498,442,5,
75.5405,6.87408,16.9495,0.332,19.7498,442,5,
75.5405,6.87439,16.9357,0.332,19.7498,442,5,
75.5405,6.87378,16.9327,0.332,19.7498,442,5,
75.5406,6.87408,16.9342,0.332,19.7498,442,5,
75.5406,6.87744,16.9373,0.332,19.7498,442,5,
75.5406,6.87958,16.9342,0.332,19.7498,442,5,
75.5407,6.87927,16.9342,0.332,19.7498,442,5,
75.5407,6.87897,16.9342,0.332,19.7498,442,5,
75.5407,6.87897,16.9373,0.332,19.7498,442,5,
75.5408,6.87927,16.9296,0.332,19.7498,442,5,
75.5408,6.87897,16.9327,0.332,19.7498,442,5,
75.5408,6.87927,16.9312,0.332,19.7498,442,5,
75.5409,6.88324,16.9342,0.332,19.7498,442,5,
75.5409,6.88416,16.9342,0.332,19.7498,442,5,
75.5409,6.88354,16.9342,0.332,19.7498,442,5,
75.541,6.88354,16.9342,0.332,19.7498,442,5,
75.541,6.88354,16.9312,0.332,19.7498,442,5,
75.541,6.88354,16.9312,0.332,19.7498,442,5,
75.5411,6.88416,16.9342,0.332,19.7498,442,5,
75.5411,6.88416,16.9327,0.332,19.7498,442,5,
75.5411,6.88873,16.9342,0.332,19.7498,442,5,
75.5412,6.88873,16.9312,0.332,19.7498,442,5,
75.5412,6.88904,16.9235,0.332,19.7498,442,5,
75.5412,6.88904,16.9205,0.332,19.7498,442,5,
75.5413,6.88965,16.9205,0.332,19.7498,442,5,
75.5413,6.88873,16.9235,0.332,19.7498,442,5,
75.5413,6.88873,16.922,0.332,19.7498,442,5,
75.5414,6.88904,16.922,0.332,19.7498,442,5,
75.5414,6.88965,16.922,0.332,19.7498,442,5,
75.5414,6.89423,16.9189,0.332,19.7498,442,5,
75.5415,6.89392,16.9205,0.332,19.7498,442,5,
75.5415,6.89362,16.9235,0.332,19.7498,442,5,
75.5415,6.89453,16.9235,0.332,19.7498,442,5,
75.5416,6.89362,16.9235,0.332,19.7498,442,5,
75.5416,6.89392,16.9205,0.332,19.7498,442,5,
75.5416,6.89331,16.925,0.332,19.7498,442,5,
75.5417,6.89423,16.9205,0.332,19.7498,442,5,
75.5417,6.89453,16.9205,0.332,19.7498,442,5,
75.5417,6.89911,16.9205,0.332,19.7498,442,5,
75.5418,6.89819,16.9189,0.332,19.7498,442,5,
75.5418,6.8985,16.9189,0.332,19.7498,442,5,
75.5418,6.8988,16.9205,0.332,19.7498,442,5,
75.5419,6.8985,16.9144,0.332,19.7498,442,5,
75.5419,6.8988,16.9098,0.332,19.7498,442,5,
75.5419,6.89911,16.9113,0.332,19.7498,442,5,
75.542,6.8988,16.9083,0.332,19.7498,442,5,
75.542,6.89941,16.9083,0.332,19.7498,442,5,
75.542,6.8985,16.9113,0.332,19.7498,442,5,
75.5421,6.90186,16.9067,0.332,19.7498,442,5,
75.5421,6.90277,16.9113,0.332,19.7498,442,5,
75.5421,6.90369,16.9098,0.332,19.7498,442,5,
75.5422,6.90338,16.9098,0.332,19.7498,442,5,
75.5422,6.90338,16.9098,0.332,19.7498,442,5,
75.5422,6.90369,16.9083,0.332,19.7498,442,5,
75.5423,6.90369,16.9128,0.332,19.7498,442,5,
75.5423,6.90338,16.9098,0.332,19.7498,442,5,
75.5423,6.90338,16.9098,0.332,19.7498,442,5,
75.5424,6.90399,16.9113,0.332,19.7498,442,5,
75.5424,6.90369,16.9113,0.332,19.7498,442,5,
75.5424,6.90338,16.9083,0.332,19.7498,442,5,
75.5425,6.90765,16.9083,0.332,19.7498,442,5,
75.5425,6.90826,16.9098,0.332,19.7498,442,5,
75.5425,6.90826,16.8976,0.332,19.7498,442,5,
75.5426,6.90857,16.8961,0.332,19.7498,442,5,
75.5426,6.90857,16.9006,0.332,19.7498,442,5,
75.5426,6.90948,16.8945,0.332,19.7498,442,5,
75.5427,6.90918,16.8961,0.332,19.7498,442,5,
75.5427,6.90826,16.893,0.332,19.7498,442,5,
75.5427,6.90857,16.8961,0.332,19.7498,442,5,
75.5428,6.90826,16.8961,0.332,19.7498,442,5,
75.5428,6.90857,16.8961,0.332,19.7498,442,5,
75.5428,6.90887,16.8961,0.332,19.7498,442,5,
75.5429,6.90796,16.8961,0.332,19.7498,442,5,
75.5429,6.91071,16.8976,0.332,19.7498,442,5,
75.5429,6.91376,16.893,0.332,19.7498,442,5,
75.543,6.91437,16.8915,0.332,19.7498,442,5,
75.543,6.91376,16.8945,0.332,19.7498,442,5,
75.543,6.91345,16.8945,0.332,19.7498,442,5,
75.5431,6.91345,16.8961,0.332,19.7498,442,5,
75.5431,6.91406,16.8945,0.332,19.7498,442,5,
75.5431,6.91345,16.8976,0.332,19.7498,442,5,
75.5432,6.91406,16.8839,0.332,19.7498,442,5,
75.5432,6.91345,16.8823,0.332,19.7498,442,5,
75.5432,6.91315,16.8854,0.332,19.7498,442,5,
75.5433,6.91345,16.8823,0.332,19.7498,442,5,
75.5433,6.91345,16.8808,0.332,19.7498,442,5,
75.5433,6.91345,16.8854,0.332,19.7498,442,5,
75.5434,6.91315,16.8823,0.332,19.7498,442,5,
75.5434,6.91345,16.8854,0.332,19.7498,442,5,
75.5434,6.91376,16.8854,0.332,19.7498,442,5,
75.5435,6.91315,16.8823,0.332,19.7498,442,5,
75.5435,6.91772,16.8839,0.332,19.7498,442,5,
75.5435,6.91833,16.8854,0.332,19.7498,442,5,
75.5436,6.91833,16.8869,0.332,19.7498,442,5,
75.5436,6.91864,16.8823,0.332,19.7498,442,5,
75.5436,6.91833,16.8854,0.332,19.7498,442,5,
75.5437,6.91803,16.8839,0.332,19.7498,442,5,
75.5437,6.91895,16.8839,0.332,19.7498,442,5,
75.5437,6.91864,16.8854,0.332,19.7498,442,5,
75.5438,6.91803,16.8823,0.332,19.7498,442,5,
75.5438,6.91803,16.8732,0.332,19.7498,442,5,
75.5438,6.91895,16.8716,0.332,19.7498,442,5,
75.5439,6.91833,16.8716,0.332,19.7498,442,5,
75.5439,6.91833,16.8732,0.332,19.7498,442,5,
75.5439,6.91803,16.8716,0.332,19.7498,442,5,
75.544,6.91864,16.8701,0.332,19.7498,442,5,
75.544,6.91803,16.8732,0.332,19.7498,442,5,
75.544,6.91864,16.8732,0.332,19.7498,442,5,
75.5441,6.91772,16.8716,0.332,19.7498,442,5,
75.5441,6.91833,16.8716,0.332,19.7498,442,5,
75.5441,6.91833,16.8716,0.332,19.7498,442,5,
75.5442,6.91895,16.8716,0.332,19.7498,442,5,
75.5442,6.91803,16.8671,0.332,19.7498,442,5,
75.5442,6.91803,16.8716,0.332,19.7498,442,5,
75.5443,6.91772,16.8716,0.332,19.7498,442,5,
75.5443,6.91803,16.8701,0.332,19.7498,442,5,
75.5443,6.91803,16.8732,0.332,19.7498,442,5,
75.5444,6.91833,16.8716,0.332,19.7498,442,5,
75.5444,6.91803,16.8671,0.332,19.7498,442,5,
75.5444,6.91833,16.864,0.332,19.7498,442,5,
75.5445,6.91803,16.861,0.332,19.7498,442,5,
75.5445,6.91803,16.861,0.332,19.7498,443,5,
75.5445,6.91864,16.861,0.332,19.7498,443,5,
75.5446,6.91833,16.861,0.332,19.7498,443,5,
75.5446,6.91925,16.8579,0.332,19.7498,443,5,
75.5446,6.91864,16.8579,0.332,19.7498,443,5,
75.5447,6.91803,16.861,0.332,19.7498,443,5,
75.5447,6.91803,16.8594,0.332,19.7498,443,5,
75.5447,6.91833,16.8594,0.332,19.7498,443,5,
75.5448,6.91833,16.8625,0.332,19.7498,443,5,
75.5448,6.91803,16.8655,0.332,19.7498,443,5,
75.5448,6.91833,16.8579,0.332,19.7498,443,5,
75.5449,6.91895,16.8564,0.332,19.7498,443,5,
75.5449,6.91803,16.8579,0.332,19.7498,443,5,
75.5449,6.91833,16.8564,0.332,19.7498,443,5,
75.545,6.91742,16.861,0.332,19.7498,443,5,
75.545,6.91803,16.8579,0.332,19.7498,443,5,
75.545,6.91895,16.8594,0.332,19.7498,443,5,
75.5451,6.91833,16.8594,0.332,19.7498,443,5,
75.5451,6.91772,16.8594,0.332,19.7498,443,5,
75.5451,6.91803,16.8472,0.332,19.7498,443,5,
75.5452,6.91833,16.8503,0.332,19.7498,443,5,
75.5452,6.91833,16.8442,0.332,19.7498,443,5,
75.5452,6.91864,16.8472,0.332,19.7498,443,5,
75.5453,6.91864,16.8488,0.332,19.7498,443,5,
75.5453,6.91833,16.8472,0.332,19.7498,443,5,
75.5453,6.91895,16.8503,0.332,19.7498,443,5,
75.5454,6.91895,16.8488,0.332,19.7498,443,5,
75.5454,6.91864,16.8457,0.332,19.7498,443,5,
75.5454,6.91895,16.8488,0.332,19.7498,443,5,
75.5455,6.91895,16.8427,0.332,19.7498,443,5,
75.5455,6.91895,16.8472,0.332,19.7498,443,5,
75.5455,6.91864,16.8457,0.332,19.7498,443,5,
75.5456,6.91895,16.8503,0.332,19.7498,443,5,
75.5456,6.91864,16.8488,0.332,19.7498,443,5,
75.5456,6.91925,16.8488,0.332,19.7498,443,5,
75.5457,6.91895,16.8457,0.332,19.7498,443,5,
75.5457,6.91895,16.8472,0.332,19.7498,443,5,
75.5457,6.91986,16.8457,0.332,19.7498,443,5,
75.5458,6.91833,16.8472,0.332,19.7498,443,5,
75.5458,6.91864,16.8335,0.332,19.7498,443,5,
75.5458,6.91833,16.8335,0.332,19.7498,443,5,
75.5459,6.91803,16.835,0.332,19.7498,443,5,
75.5459,6.91803,16.8365,0.332,19.7498,443,5,
75.5459,6.91772,16.8304,0.332,19.7498,443,5,
75.546,6.91833,16.832,0.332,19.7498,443,5,
75.546,6.91803,16.8365,0.332,19.7498,443,5,
75.546,6.91833,16.832,0.332,19.7498,443,5,
75.5461,6.91833,16.8365,0.332,19.7498,443,5,
75.5461,6.91742,16.835,0.332,19.7498,443,5,
75.5461,6.91772,16.8365,0.332,19.7498,443,5,
75.5462,6.91803,16.835,0.332,19.7498,443,5,
75.5462,6.91742,16.8365,0.332,19.7498,443,5,
75.5462,6.91803,16.8335,0.332,19.7498,443,5,
75.5463,6.91803,16.835,0.332,19.7498,443,5,
75.5463,6.91803,16.8365,0.332,19.7498,443,5,
75.5463,6.91742,16.835,0.332,19.7498,443,5,
75.5464,6.91833,16.835,0.332,19.7498,443,5,
75.5464,6.91803,16.835,0.332,19.7498,443,5,
75.5464,6.91833,16.835,0.332,19.7498,443,5,
75.5465,6.91345,16.835,0.776,19.7498,443,5,
75.5465,6.91315,16.8274,0.776,19.7498,443,5,
75.5465,6.91406,16.8213,0.776,19.7498,443,5,
75.5466,6.91315,16.8243,0.776,19.7498,443,5,
75.5466,6.91437,16.8198,0.776,19.7498,443,5,
75.5466,6.91315,16.8213,0.776,19.7498,443,5,
75.5467,6.91284,16.8228,0.776,19.7498,443,5,
75.5467,6.91345,16.8259,0.776,19.7498,443,5,
75.5467,6.91345,16.8213,0.776,19.7498,443,5,
75.5468,6.91376,16.8213,0.776,19.7498,443,5,
75.5468,6.91315,16.8259,0.776,19.7498,443,5,
75.5468,6.91345,16.8182,0.776,19.7498,443,5,
75.5469,6.91254,16.8213,0.776,19.7498,443,5,
75.5469,6.91345,16.8228,0.776,19.7498,443,5,
75.5469,6.91345,16.8259,0.776,19.7498,443,5,
75.547,6.91376,16.8167,0.776,19.7498,443,5,
75.547,6.91376,16.8228,0.776,19.7498,443,5,
75.547,6.91437,16.8228,0.776,19.7498,443,5,
75.5471,6.91284,16.8228,0.776,19.7498,443,5,
75.5471,6.90887,16.8259,0.776,19.7498,443,5,
75.5471,6.90796,16.8243,0.776,19.7498,443,5,
75.5472,6.90857,16.8213,0.776,19.7498,443,5,
75.5472,6.90857,16.8228,0.776,19.7498,443,5,
75.5472,6.90887,16.8213,0.776,19.7498,443,5,
75.5473,6.90796,16.8106,0.776,19.7498,443,5,
75.5473,6.90857,16.8091,0.776,19.7498,443,5,
75.5473,6.90826,16.8106,0.776,19.7498,443,5,
75.5474,6.90826,16.8121,0.776,19.7498,443,5,
75.5474,6.90857,16.8137,0.776,19.7498,443,5,
75.5474,6.90918,16.806,0.776,19.7498,443,5,
75.5475,6.90826,16.8121,0.776,19.7498,443,5,
75.5475,6.90918,16.8121,0.776,19.7498,443,5,
75.5475,6.90826,16.8121,0.776,19.7498,443,5,
75.5476,6.90826,16.8106,0.776,19.7498,443,5,
75.5476,6.90369,16.8137,0.776,19.7498,443,5,
75.5476,6.90338,16.8106,0.776,19.7498,443,5,
75.5477,6.90399,16.8137,0.776,19.7498,443,5,
75.5477,6.90369,16.8076,0.776,19.7498,443,5,
75.5477,6.90369,16.8106,0.776,19.7498,443,5,
75.5478,6.90308,16.8091,0.776,19.7498,443,5,
75.5478,6.9043,16.8121,0.776,19.7498,443,5,
75.5478,6.90399,16.8091,0.776,19.7498,443,5,
75.5479,6.90308,16.8091,0.776,19.7498,443,5,
75.5479,6.90399,16.8121,0.776,19.7498,443,5,
75.5479,6.90369,16.8121,0.776,19.7498,443,5,
75.548,6.90369,16.8091,0.776,19.7498,443,5,
75.548,6.9043,16.8121,0.776,19.7498,443,5,
75.548,6.90063,16.8091,0.776,19.7498,443,5,
75.5481,6.89941,16.8091,0.776,19.7498,443,5,
75.5481,6.8985,16.8106,0.776,19.7498,443,5,
75.5481,6.8988,16.8076,0.776,19.7498,443,5,
75.5482,6.89941,16.7954,0.776,19.7498,443,5,
75.5482,6.89819,16.7999,0.776,19.7498,443,5,
75.5482,6.89911,16.7984,0.776,19.7498,443,5,
75.5483,6.89911,16.7969,0.776,19.7498,443,5,
75.5483,6.8985,16.7999,0.776,19.7498,443,5,
75.5483,6.89911,16.7938,0.776,19.7498,443,5,
75.5484,6.8985,16.7969,0.776,19.7498,443,5,
75.5484,6.89819,16.7999,0.776,19.7498,443,5,
75.5484,6.89453,16.7984,0.776,19.7498,443,5,
75.5485,6.89362,16.7969,0.776,19.7498,443,5,
75.5485,6.89362,16.7999,0.776,19.7498,443,5,
75.5485,6.89423,16.7999,0.776,19.7498,443,5,
75.5486,6.89392,16.7984,0.776,19.7498,443,5,
75.5486,6.89392,16.7984,0.776,19.7498,443,5,
75.5486,6.89392,16.7954,0.776,19.7498,443,5,
75.5487,6.89362,16.7999,0.776,19.7498,443,5,
75.5487,6.89514,16.7999,0.776,19.7498,443,5,
75.5487,6.89423,16.7999,0.776,19.7498,443,5,
75.5488,6.89056,16.8015,0.776,19.7498,443,5,
75.5488,6.88843,16.8015,0.776,19.7498,443,5,
75.5488,6.88904,16.803,0.776,19.7498,443,5,
75.5489,6.88965,16.7969,0.776,19.7498,443,5,
75.5489,6.88873,16.8015,0.776,19.7498,443,5,
75.5489,6.88904,16.8015,0.776,19.7498,443,5,
75.549,6.88904,16.7969,0.776,19.7498,443,5,
75.549,6.88873,16.8015,0.776,19.7498,443,5,
75.549,6.88904,16.7954,0.776,19.7498,443,5,
75.5491,6.88965,16.7984,0.776,19.7498,443,5,
75.5491,6.88416,16.7954,0.776,19.7498,443,5,
75.5491,6.88385,16.7923,0.776,19.7498,443,5,
75.5492,6.88446,16.7999,0.776,19.7498,443,5,
75.5492,6.88477,16.7999,0.776,19.7498,443,5,
75.5492,6.88416,16.7999,0.776,19.7498,443,5,
75.5493,6.88385,16.7938,0.776,19.7498,443,5,
75.5493,6.88416,16.7877,0.776,19.7498,443,5,
75.5493,6.88416,16.7862,0.776,19.7498,443,5,
75.5494,6.88141,16.7831,0.776,19.7498,443,5,
75.5494,6.87897,16.7892,0.776,19.7498,443,5,
75.5494,6.87866,16.7877,0.776,19.7498,443,5,
75.5495,6.87927,16.7847,0.776,19.7498,443,5,
75.5495,6.87927,16.7862,0.776,19.7498,443,5,
75.5495,6.87866,16.7877,0.776,19.7498,443,5,
75.5496,6.87988,16.7892,0.776,19.7498,443,5,
75.5496,6.87958,16.7847,0.776,19.7498,443,5,
75.5496,6.87592,16.7847,0.776,19.7498,443,5,
75.5497,6.87592,16.7831,0.776,19.7498,443,5,
75.5497,6.87439,16.7847,0.776,19.7498,443,5,
75.5497,6.875,16.7831,0.776,19.7498,443,5,
75.5498,6.87469,16.7831,0.776,19.7498,443,5,
75.5498,6.87408,16.7816,0.776,19.7498,443,5,
75.5498,6.87408,16.7862,0.776,19.7498,443,5,
75.5499,6.87378,16.7847,0.776,19.7498,443,5,
75.5499,6.86951,16.7831,0.776,19.7498,443,5,
75.5499,6.87012,16.7847,0.776,19.7498,443,5,
75.55,6.86951,16.7847,0.776,19.7498,443,5,
75.55,6.86951,16.7847,0.776,19.7498,443,5,
75.55,6.87042,16.7877,0.776,19.7498,443,5,
75.5501,6.86981,16.7862,0.776,19.7498,443,5,
75.5501,6.8689,16.7892,0.776,19.7498,443,5,
75.5501,6.86554,16.7831,0.776,19.7498,443,5,
75.5502,6.86371,16.7847,0.776,19.7498,443,5,
75.5502,6.86432,16.7847,0.776,19.7498,443,5,
75.5502,6.86493,16.7862,0.776,19.7498,443,5,
75.5503,6.86401,16.7862,0.776,19.7498,443,5,
75.5503,6.86401,16.7831,0.776,19.7498,443,5,
75.5503,6.86127,16.7847,0.776,19.7498,443,5,
75.5504,6.85913,16.7831,0.776,19.7498,443,5,
75.5504,6.85974,16.7847,0.776,19.7498,443,5,
75.5504,6.85913,16.7847,0.776,19.7498,443,5,
75.5505,6.85974,16.7862,0.776,19.7498,443,5,
75.5505,6.86035,16.7862,0.776,19.7498,443,5,
75.5505,6.85944,16.7862,0.776,19.7498,443,5,
75.5506,6.85486,16.7831,0.776,19.7498,443,5,
75.5506,6.85486,16.7847,0.776,19.7498,443,5,
75.5506,6.85455,16.7816,0.776,19.7498,443,5,
75.5507,6.85486,16.7862,0.776,19.7498,443,5,
75.5507,6.85455,16.7862,0.776,19.7498,443,5,
75.5507,6.85455,16.7847,0.776,19.7498,443,5,
75.5508,6.85059,16.7892,0.776,19.7498,443,5,
75.5508,6.85059,16.7847,0.776,19.7498,443,5,
75.5508,6.85028,16.7862,0.776,19.7498,443,5,
75.5509,6.84998,16.7847,0.776,19.7498,443,5,
75.5509,6.84937,16.7877,0.776,19.7498,443,5,
75.5509,6.84998,16.7877,0.776,19.7498,443,5,
75.551,6.84509,16.7847,0.776,19.7498,443,5,
75.551,6.84448,16.7877,0.776,19.7498,443,5,
75.551,6.8457,16.7877,0.776,19.7498,443,5,
75.5511,6.84479,16.7862,0.776,19.7498,443,5,
75.5511,6.84509,16.7877,0.776,19.7498,443,5,
75.5511,6.84448,16.7862,0.776,19.7498,443,5,
75.5512,6.8396,16.7847,0.776,19.7498,443,5,
75.5512,6.8399,16.7862,0.776,19.7498,443,5,
75.5512,6.8396,16.7862,0.776,19.7498,443,5,
75.5513,6.8399,16.7862,0.776,19.7498,443,5,
75.5513,6.8399,16.7877,0.776,19.7498,443,5,
75.5513,6.83594,16.7847,0.776,19.7498,443,5,
75.5514,6.83441,16.7847,0.776,19.7498,443,5,
75.5514,6.83502,16.7862,0.776,19.7498,443,5,
75.5514,6.83502,16.7862,0.776,19.7498,443,5,
75.5515,6.83502,16.7892,0.776,19.7498,443,5,
75.5515,6.83563,16.7862,0.776,19.7498,443,5,
75.5515,6.83075,16.7847,0.776,19.7498,443,5,
75.5516,6.83014,16.7816,0.776,19.7498,443,5,
75.5516,6.82953,16.7877,0.776,19.7498,443,5,
75.5516,6.83014,16.7877,0.776,19.7498,443,5,
75.5517,6.83044,16.7892,0.776,19.7498,443,5,
75.5517,6.82739,16.7847,0.776,19.7498,443,5,
75.5517,6.82495,16.7862,0.776,19.7498,443,5,
75.5518,6.82587,16.7877,0.776,19.7498,443,5,
75.5518,6.82495,16.7831,0.776,19.7498,443,5,
75.5518,6.82587,16.7847,0.776,19.7498,443,5,
75.5519,6.82495,16.7862,0.776,19.7498,443,5,
75.5519,6.82495,16.7847,0.776,19.7498,443,5,
75.5519,6.82495,16.7862,0.776,19.7498,443,5,
75.552,6.82556,16.7877,0.776,19.7498,443,5,
75.552,6.82556,16.7831,0.776,19.7498,443,5,
75.552,6.82526,16.7862,0.776,19.7498,443,5,
75.5521,6.81915,16.7877,0.776,19.7498,443,5,
75.5521,6.81549,16.7847,0.776,19.7498,443,5,
75.5521,6.81549,16.7847,0.776,19.7498,443,5,
75.5522,6.8158,16.7847,0.776,19.7498,443,5,
75.5522,6.81152,16.7862,0.776,19.7498,443,5,
75.5522,6.81,16.7877,0.776,19.7498,443,5,
75.5523,6.81061,16.7877,0.776,19.7498,443,5,
75.5523,6.81061,16.7877,0.776,19.7498,443,5,
75.5523,6.81091,16.7831,0.776,19.7498,443,5,
75.5524,6.80725,16.7847,0.776,19.7498,443,5,
75.5524,6.80603,16.7831,0.776,19.7498,443,5,
75.5524,6.80511,16.7847,0.776,19.7498,443,5,
75.5525,6.80573,16.7831,0.776,19.7498,443,5,
75.5525,6.80603,16.7831,0.776,19.7498,443,5,
75.5525,6.80603,16.7862,0.776,19.7498,443,5,
75.5526,6.80176,16.7877,0.776,19.7498,443,5,
75.5526,6.80084,16.7847,0.776,19.7498,443,5,
75.5526,6.80084,16.7862,0.776,19.7498,443,5,
75.5527,6.80084,16.7847,0.776,19.7498,443,5,
75.5527,6.80084,16.7847,0.776,19.7498,443,5,
75.5527,6.79962,16.7831,0.776,19.7498,443,5,
75.5528,6.79596,16.7847,0.776,19.7498,443,5,
75.5528,6.79565,16.7847,0.776,19.7498,443,5,
75.5528,6.79596,16.7847,0.776,19.7498,443,5,
75.5529,6.79596,16.7862,0.776,19.7498,443,5,
75.5529,6.79565,16.7862,0.776,19.7498,443,5,
75.5529,6.79108,16.7877,0.776,19.7498,443,5,
75.553,6.79077,16.7877,0.776,19.7498,443,5,
75.553,6.79077,16.7877,0.776,19.7498,443,5,
75.553,6.79169,16.7831,0.776,19.7498,443,5,
75.5531,6.79077,16.7862,0.776,19.7498,443,5,
75.5531,6.78864,16.7892,0.776,19.7498,443,5,
75.5531,6.7868,16.7862,0.776,19.7498,443,5,
75.5532,6.78619,16.7877,0.776,19.7498,443,5,
75.5532,6.78558,16.7847,0.776,19.7498,443,5,
75.5532,6.78619,16.7923,0.776,19.7498,443,5,
75.5533,6.7865,16.7999,0.776,19.7498,443,5,
75.5533,6.78131,16.7984,0.776,19.7498,443,5,
75.5533,6.78101,16.8015,0.776,19.7498,443,5,
75.5534,6.78162,16.7969,0.776,19.7498,443,5,
75.5534,6.78131,16.7999,0.776,19.7498,443,5,
75.5534,6.78131,16.7984,0.776,19.7498,443,5,
75.5535,6.77856,16.7984,0.776,19.7498,443,5,
75.5535,6.77643,16.7984,0.776,19.7498,443,5,
75.5535,6.77612,16.7999,0.776,19.7498,443,5,
75.5536,6.77704,16.7999,0.776,19.7498,443,5,
75.5536,6.77612,16.8015,0.776,19.7498,443,5,
75.5536,6.77734,16.7984,0.776,19.7498,443,5,
75.5537,6.77185,16.7984,0.776,19.7498,443,5,
75.5537,6.77124,16.7984,0.776,19.7498,443,5,
75.5537,6.77124,16.7984,0.776,19.7498,443,5,
75.5538,6.77185,16.7969,0.776,19.7498,443,5,
75.5538,6.77094,16.8015,0.776,19.7498,443,5,
75.5538,6.76697,16.7999,0.776,19.7498,443,5,
75.5539,6.76605,16.7999,0.776,19.7498,443,5,
75.5539,6.76575,16.7999,0.776,19.7498,443,5,
75.5539,6.76636,16.7984,0.776,19.7498,443,5,
75.554,6.76636,16.7984,0.776,19.7498,443,5,
75.554,6.76636,16.7984,0.776,19.7498,443,5,
75.554,6.76117,16.7984,0.776,19.7498,443,5,
75.5541,6.76208,16.7984,0.776,19.7498,443,5,
75.5541,6.76178,16.7999,0.776,19.7498,443,5,
75.5541,6.76208,16.7969,0.776,19.7498,443,5,
75.5542,6.76147,16.7984,0.776,19.7498,443,5,
75.5542,6.75751,16.8015,0.776,19.7498,443,5,
75.5542,6.75659,16.8106,0.776,19.7498,443,5,
75.5543,6.7569,16.8106,0.776,19.7498,443,5,
75.5543,6.7569,16.8076,0.776,19.7498,443,5,
75.5543,6.75781,16.8106,0.776,19.7498,443,5,
75.5544,6.75262,16.8121,0.776,19.7498,443,5,
75.5544,6.7514,16.8137,0.776,19.7498,443,5,
75.5544,6.75232,16.8106,0.776,19.7498,443,5,
75.5545,6.75232,16.8121,0.776,19.7498,443,5,
75.5545,6.75171,16.8091,0.776,19.7498,443,5,
75.5545,6.74896,16.8091,0.776,19.7498,443,5,
75.5546,6.74713,16.8091,0.776,19.7498,443,5,
75.5546,6.74744,16.8121,0.776,19.7498,443,5,
75.5546,6.74744,16.8121,0.776,19.7498,443,5,
75.5547,6.74683,16.8076,0.776,19.7498,443,5,
75.5547,6.74438,16.8137,0.776,19.7498,443,5,
75.5547,6.74194,16.8121,0.776,19.7498,443,5,
75.5548,6.74255,16.8091,0.776,19.7498,443,5,
75.5548,6.74194,16.8106,0.776,19.7498,443,5,
75.5548,6.74255,16.8091,0.776,19.7498,443,5,
75.5549,6.74225,16.8091,0.776,19.7498,443,5,
75.5549,6.73676,16.8091,0.776,19.7498,443,5,
75.5549,6.73706,16.8106,0.776,19.7498,443,5,
75.555,6.73737,16.8243,0.776,19.7498,443,5,
75.555,6.73828,16.8228,0.776,19.7498,443,5,
75.555,6.73645,16.8259,0.776,19.7498,443,5,
75.5551,6.73218,16.8228,0.776,19.7498,443,5,
75.5551,6.73218,16.8213,0.776,19.7498,443,5,
75.5551,6.73157,16.8259,0.776,19.7498,443,5,
75.5552,6.73218,16.8243,0.776,19.7498,443,5,
75.5552,6.73218,16.8228,0.776,19.7498,443,5,
75.5552,6.72729,16.8228,0.776,19.7498,443,5,
75.5553,6.72729,16.8243,0.776,19.7498,443,5,
75.5553,6.72791,16.8259,0.776,19.7498,443,5,
75.5553,6.72699,16.8243,0.776,19.7498,443,5,
75.5554,6.7276,16.8228,0.776,19.7498,443,5,
75.5554,6.72241,16.8213,0.776,19.7498,443,5,
75.5554,6.72241,16.8243,0.776,19.7498,443,5,
75.5555,6.72272,16.8213,0.776,19.7498,443,5,
75.5555,6.72272,16.8274,0.776,19.7498,443,5,
75.5555,6.71936,16.8213,0.776,19.7498,443,5,
75.5556,6.71783,16.8228,0.776,19.7498,443,5,
75.5556,6.71753,16.8365,0.776,19.7498,443,5,
75.5556,6.71753,16.835,0.776,19.7498,443,5,
75.5557,6.71753,16.8365,0.776,19.7498,443,5,
75.5557,6.71509,16.835,0.776,19.7498,443,5,
75.5557,6.71295,16.8365,0.776,19.7498,443,5,
75.5558,6.71326,16.835,0.776,19.7498,443,5,
75.5558,6.71265,16.8335,0.776,19.7498,443,5,
75.5558,6.71265,16.835,0.776,19.7498,443,5,
75.5559,6.70929,16.835,0.776,19.7498,443,5,
75.5559,6.70807,16.8381,0.776,19.7498,443,5,
75.5559,6.70715,16.8365,0.776,19.7498,443,5,
75.556,6.70807,16.835,0.776,19.7498,443,5,
75.556,6.70807,16.8381,0.776,19.7498,443,5,
75.556,6.70319,16.835,0.776,19.7498,443,5,
75.5561,6.7038,16.8304,0.776,19.7498,443,5,
75.5561,6.70258,16.8381,0.776,19.7498,443,5,
75.5561,6.70319,16.8365,0.776,19.7498,443,5,
75.5562,6.70319,16.8472,0.776,19.7498,443,5,
75.5562,6.69922,16.8488,0.776,19.7498,443,5,
75.5562,6.698,16.8503,0.776,19.7498,443,5,
75.5563,6.698,16.8472,0.776,19.7498,443,5,
75.5563,6.69769,16.8488,0.776,19.7498,443,5,
75.5563,6.6983,16.8488,0.776,19.7498,443,5,
75.5564,6.69342,16.8472,0.776,19.7498,443,5,
75.5564,6.69342,16.8442,0.776,19.7498,443,5,
75.5564,6.69281,16.8488,0.776,19.7498,443,5,
75.5565,6.69281,16.8488,0.776,19.7498,443,5,
75.5565,6.6925,16.8488,0.776,19.7498,443,5,
75.5565,6.68884,16.8472,0.776,19.7498,443,5,
75.5566,6.68823,16.8457,0.776,19.7498,443,5,
75.5566,6.68793,16.8457,0.776,19.7498,443,5,
75.5566,6.68793,16.8488,0.776,19.7498,443,5,
75.5567,6.68518,16.8579,0.776,19.7498,443,5,
75.5567,6.68274,16.861,0.776,19.7498,443,5,
75.5567,6.68304,16.8594,0.776,19.7498,443,5,
75.5568,6.68365,16.8579,0.776,19.7498,443,5,
75.5568,6.68427,16.8594,0.776,19.7498,443,5,
75.5568,6.67999,16.861,0.776,19.7498,443,5,
75.5569,6.67877,16.8594,0.776,19.7498,443,5,
75.5569,6.67877,16.8625,0.776,19.7498,443,5,
75.5569,6.67908,16.8594,0.776,19.7498,443,5,
75.557,6.67847,16.8579,0.776,19.7498,443,5,
75.557,6.67328,16.861,0.776,19.7498,443,5,
75.557,6.67389,16.8594,0.776,19.7498,443,5,
75.5571,6.67389,16.8594,0.776,19.7498,443,5,
75.5571,6.67358,16.861,0.776,19.7498,443,5,
75.5571,6.67084,16.8732,0.776,19.7498,443,5,
75.5572,6.66931,16.8716,0.776,19.7498,443,5,
75.5572,6.66901,16.8747,0.776,19.7498,443,5,
75.5572,6.66992,16.8701,0.776,19.7498,443,5,
75.5573,6.66992,16.8716,0.776,19.7498,443,5,
75.5573,6.66412,16.8732,0.776,19.7498,443,5,
75.5573,6.66443,16.8732,0.776,19.7498,443,5,
75.5574,6.66412,16.8701,0.776,19.7498,443,5,
75.5574,6.66443,16.8716,0.776,19.7498,443,5,
75.5574,6.66382,16.8747,0.776,19.7498,443,5,
75.5575,6.65833,16.8732,0.776,19.7498,443,5,
75.5575,6.65894,16.8716,0.776,19.7498,443,5,
75.5575,6.65924,16.8716,0.776,19.7498,443,5,
75.5576,6.65863,16.8869,0.776,19.7498,443,5,
75.5576,6.65741,16.8869,0.776,19.7498,443,5,
75.5576,6.65405,16.8854,0.776,19.7498,443,5,
75.5577,6.65375,16.8839,0.776,19.7498,443,5,
75.5577,6.65344,16.8839,0.776,19.7498,443,5,
75.5577,6.65344,16.8823,0.776,19.7498,443,5,
75.5578,6.65131,16.8839,0.776,19.7498,443,5,
75.5578,6.64917,16.8854,0.776,19.7498,443,5,
75.5578,6.64856,16.8869,0.776,19.7498,443,5,
75.5579,6.64886,16.8839,0.776,19.7498,443,5,
75.5579,6.64886,16.8854,0.776,19.7498,443,5,
75.5579,6.64459,16.8854,0.776,19.7498,443,5,
75.558,6.64429,16.8976,0.776,19.7498,443,5,
75.558,6.64337,16.8976,0.776,19.7498,443,5,
75.558,6.64429,16.8976,0.776,19.7498,443,5,
75.5581,6.64429,16.8976,0.776,19.7498,443,5,
75.5581,6.6394,16.8976,0.776,19.7498,443,5,
75.5581,6.6391,16.8976,0.776,19.7498,443,5,
75.5582,6.63879,16.8945,0.776,19.7498,443,5,
75.5582,6.6394,16.8991,0.776,19.7498,443,5,
75.5582,6.6391,16.8976,0.776,19.7498,443,5,
75.5583,6.63452,16.8961,0.776,19.7498,443,5,
75.5583,6.63422,16.9006,0.776,19.7498,443,5,
75.5583,6.63483,16.8961,0.776,19.7498,443,5,
75.5584,6.63422,16.9083,0.776,19.7498,443,5,
75.5584,6.63391,16.9083,0.776,19.7498,443,5,
75.5584,6.62964,16.9067,0.776,19.7498,443,5,
75.5585,6.62933,16.9067,0.776,19.7498,443,5,
75.5585,6.62933,16.9098,0.776,19.7498,443,5,
75.5585,6.62964,16.9067,0.776,19.7498,443,5,
75.5586,6.62933,16.9083,0.776,19.7498,443,5,
75.5586,6.62506,16.9083,0.776,19.7498,443,5,
75.5586,6.62476,16.9067,0.776,19.7498,443,5,
75.5587,6.62415,16.9098,0.776,19.7498,443,5,
75.5587,6.62415,16.9098,0.776,19.7498,443,5,
75.5587,6.62384,16.9083,0.776,19.7498,443,5,
75.5588,6.61987,16.922,0.776,19.7498,443,5,
75.5588,6.61987,16.925,0.776,19.7498,443,5,
75.5588,6.61987,16.9205,0.776,19.7498,443,5,
75.5589,6.61957,16.9235,0.776,19.7498,443,5,
75.5589,6.62018,16.925,0.776,19.7498,443,5,
75.5589,6.61713,16.9189,0.776,19.7498,443,5,
75.559,6.61438,16.922,0.776,19.7498,443,5,
75.559,6.61499,16.922,0.776,19.7498,443,5,
75.559,6.61499,16.9205,0.776,19.7498,443,5,
75.5591,6.61407,16.9205,0.776,19.7498,443,5,
75.5591,6.6153,16.9189,0.776,19.7498,443,5,
75.5591,6.61011,16.9342,0.776,19.7498,443,5,
75.5592,6.6098,16.9357,0.776,19.7498,443,5,
75.5592,6.6095,16.9312,0.776,19.7498,443,5,
75.5592,6.6095,16.9342,0.776,19.7498,443,5,
75.5593,6.6098,16.9357,0.776,19.7498,443,5,
75.5593,6.60645,16.9373,0.776,19.7498,443,5,
75.5593,6.60431,16.9342,0.776,19.7498,443,5,
75.5594,6.60461,16.9342,0.776,19.7498,443,5,
75.5594,6.60461,16.9373,0.776,19.7498,443,5,
75.5594,6.60431,16.9327,0.776,19.7498,443,5,
75.5595,6.60461,16.9327,0.776,19.7498,443,5,
75.5595,6.60095,16.9464,0.776,19.7498,443,5,
75.5595,6.60004,16.9434,0.776,19.7498,443,5,
75.5596,6.60004,16.9479,0.776,19.7498,443,5,
75.5596,6.59973,16.9449,0.776,19.7498,443,5,
75.5596,6.60004,16.9464,0.776,19.7498,443,5,
75.5597,6.60004,16.9495,0.776,19.7498,443,5,
75.5597,6.59515,16.9449,0.776,19.7498,443,5,
75.5597,6.59546,16.9464,0.776,19.7498,443,5,
75.5598,6.59515,16.9449,0.776,19.7498,443,5,
75.5598,6.59546,16.9449,0.776,19.7498,443,5,
75.5598,6.59515,16.954,0.776,19.7498,443,5,
75.5599,6.59546,16.9617,0.776,19.7498,443,5,
75.5599,6.5921,16.9586,0.776,19.7498,443,5,
75.5599,6.58997,16.9601,0.776,19.7498,443,5,
75.56,6.58997,16.9571,0.776,19.7498,443,5,
75.56,6.58997,16.9556,0.776,19.7498,443,5,
75.56,6.59058,16.9556,0.776,19.7498,443,5,
75.5601,6.59088,16.9601,0.776,19.7498,443,5,
75.5601,6.58997,16.9586,0.776,19.7498,443,5,
75.5601,6.586,16.9586,0.776,19.7498,443,5,
75.5602,6.58478,16.9601,0.776,19.7498,443,5,
75.5602,6.586,16.9678,0.776,19.7498,443,5,
75.5602,6.58569,16.9739,0.776,19.7498,443,5,
75.5603,6.58569,16.9693,0.776,19.7498,443,5,
75.5603,6.58539,16.9708,0.776,19.7498,443,5,
75.5603,6.58508,16.9678,0.776,19.7498,443,5,
75.5604,6.58051,16.9693,0.776,19.7498,443,5,
75.5604,6.5802,16.9693,0.776,19.7498,443,5,
75.5604,6.5802,16.9708,0.776,19.7498,443,5,
75.5605,6.58051,16.9708,0.776,19.7498,443,5,
75.5605,6.58051,16.9708,0.776,19.7498,443,5,
75.5605,6.58051,16.9769,0.776,19.7498,443,5,
75.5606,6.5802,16.983,0.776,19.7498,443,5,
75.5606,6.57532,16.9846,0.776,19.7498,443,5,
75.5606,6.57562,16.9815,0.776,19.7498,443,5,
75.5607,6.57593,16.983,0.776,19.7498,443,5,
75.5607,6.57532,16.9815,0.776,19.7498,443,5,
75.5607,6.57593,16.9815,0.776,19.7498,443,5,
75.5608,6.57562,16.9846,0.776,19.7498,443,5,
75.5608,6.57562,16.98,0.776,19.7498,443,5,
75.5608,6.57104,16.9846,0.776,19.7498,443,5,
75.5609,6.57104,16.9922,0.776,19.7498,443,5,
75.5609,6.57135,16.9952,0.776,19.7498,443,5,
75.5609,6.57043,16.9952,0.776,19.7498,443,5,
75.561,6.57013,16.9922,0.776,19.7498,443,5,
75.561,6.57074,16.9968,0.776,19.7498,443,5,
75.561,6.57074,16.9952,0.776,19.7498,443,5,
75.5611,6.57043,16.9952,0.776,19.7498,443,5,
75.5611,6.56525,16.9952,0.776,19.7498,443,5,
75.5611,6.56586,16.9983,0.776,19.7498,443,5,
75.5612,6.56616,16.9968,0.776,19.7498,443,5,
75.5612,6.56586,16.9983,0.776,19.7498,443,5,
75.5612,6.56586,17.0074,0.776,19.7498,443,5,
75.5613,6.56616,17.009,0.776,19.7498,443,5,
75.5613,6.56525,17.009,0.776,19.7498,443,5,
75.5613,6.56494,17.009,0.776,19.7498,443,5,
75.5614,6.56067,17.0074,0.776,19.7498,443,5,
75.5614,6.56128,17.0074,0.776,19.7498,443,5,
75.5614,6.56097,17.0074,0.776,19.7498,443,5,
75.5615,6.56067,17.0059,0.776,19.7498,443,5,
75.5615,6.56097,17.0074,0.776,19.7498,443,5,
75.5615,6.56067,17.0059,0.776,19.7498,443,5,
75.5616,6.56036,17.0212,0.776,19.7498,443,5,
75.5616,6.56097,17.0242,0.776,19.7498,443,5,
75.5616,6.55548,17.0197,0.776,19.7498,443,5,
75.5617,6.55518,17.0197,0.776,19.7498,443,5,
75.5617,6.55579,17.0166,0.776,19.7498,443,5,
75.5617,6.55518,17.0212,0.776,19.7498,443,5,
75.5618,6.5564,17.0212,0.776,19.7498,443,5,
75.5618,6.55609,17.0212,0.776,19.7498,443,5,
75.5618,6.55579,17.0181,0.776,19.7498,443,5,
75.5619,6.5564,17.0319,0.776,19.7498,443,5,
75.5619,6.5506,17.0334,0.776,19.7498,443,5,
75.5619,6.5509,17.0303,0.776,19.7498,443,5,
75.562,6.5509,17.0349,0.776,19.7498,443,5,
75.562,6.55182,17.0288,0.776,19.7498,443,5,
75.562,6.5506,17.0349,0.776,19.7498,443,5,
75.5621,6.5506,17.0319,0.776,19.7498,443,5,
75.5621,6.5509,17.0303,0.776,19.7498,443,5,
75.5621,6.5506,17.0273,0.776,19.7498,443,5,
75.5622,6.54633,17.0425,0.776,19.7498,443,5,
75.5622,6.54602,17.0425,0.776,19.7498,443,5,
75.5622,6.54572,17.0441,0.776,19.7498,443,5,
75.5623,6.54572,17.0441,0.776,19.7498,443,5,
75.5623,6.54633,17.041,0.776,19.7498,443,5,
75.5623,6.54663,17.0441,0.776,19.7498,443,5,
75.5624,6.54602,17.0441,0.776,19.7498,443,5,
75.5624,6.54175,17.0441,0.776,19.7498,443,5,
75.5624,6.54144,17.0471,0.776,19.7498,443,5,
75.5625,6.54083,17.0563,0.776,19.7498,443,5,
75.5625,6.54144,17.0547,0.776,19.7498,443,5,
75.5625,6.54175,17.0563,0.776,19.7498,443,5,
75.5626,6.54175,17.0578,0.776,19.7498,443,5,
75.5626,6.54144,17.0532,0.776,19.7498,443,5,
75.5626,6.5387,17.0563,0.776,19.7498,443,5,
75.5627,6.53595,17.0547,0.776,19.7498,443,5,
75.5627,6.53656,17.0547,0.776,19.7498,443,5,
75.5627,6.53656,17.0563,0.776,19.7498,443,5,
75.5628,6.53687,17.07,0.776,19.7498,443,5,
75.5628,6.53564,17.067,0.776,19.7498,443,5,
75.5628,6.53656,17.0654,0.776,19.7498,443,5,
75.5629,6.53625,17.067,0.776,19.7498,443,5,
75.5629,6.53168,17.0715,0.776,19.7498,443,5,
75.5629,6.53137,17.07,0.776,19.7498,443,5,
75.563,6.53168,17.0685,0.776,19.7498,443,5,
75.563,6.53198,17.07,0.776,19.7498,443,5,
75.563,6.53198,17.067,0.776,19.7498,443,5,
75.5631,6.53168,17.0792,0.776,19.7498,443,5,
75.5631,6.53137,17.0792,0.776,19.7498,443,5,
75.5631,6.52649,17.0822,0.776,19.7498,443,5,
75.5632,6.52679,17.0807,0.776,19.7498,443,5,
75.5632,6.52649,17.0822,0.776,19.7498,443,5,
75.5632,6.52649,17.0776,0.776,19.7498,443,5,
75.5633,6.52649,17.0837,0.776,19.7498,443,5,
75.5633,6.52679,17.0776,0.776,19.7498,443,5,
75.5633,6.52344,17.0807,0.776,19.7498,443,5,
75.5634,6.5213,17.0914,0.776,19.7498,443,5,
75.5634,6.52191,17.0959,0.776,19.7498,443,5,
75.5634,6.5213,17.0929,0.776,19.7498,443,5,
75.5635,6.52191,17.0914,0.776,19.7498,443,5,
75.5635,6.521,17.0914,0.776,19.7498,443,5,
75.5635,6.52191,17.0929,0.776,19.7498,443,5,
75.5636,6.51947,17.0959,0.776,19.7498,443,5,
75.5636,6.51703,17.0959,0.776,19.7498,443,5,
75.5636,6.51703,17.0914,0.776,19.7498,443,5,
75.5637,6.51703,17.0898,0.776,19.7498,443,5,
75.5637,6.51703,17.1021,0.776,19.7498,443,5,
75.5637,6.51703,17.1066,0.776,19.7498,443,5,
75.5638,6.51672,17.1051,0.776,19.7498,443,5,
75.5638,6.51276,17.1051,0.776,19.7498,443,5,
75.5638,6.51123,17.1051,0.776,19.7498,443,5,
75.5639,6.51184,17.1051,0.776,19.7498,443,5,
75.5639,6.51245,17.1051,0.776,19.7498,443,5,
75.5639,6.51245,17.0975,0.776,19.7498,443,5,
75.564,6.51184,17.1036,0.776,19.7498,443,5,
75.564,6.51184,17.1066,0.776,19.7498,443,5,
75.564,6.50757,17.1143,0.776,19.7498,443,5,
75.5641,6.50726,17.1158,0.776,19.7498,443,5,
75.5641,6.50726,17.1158,0.776,19.7498,443,5,
75.5641,6.50696,17.1173,0.776,19.7498,443,5,
75.5642,6.50665,17.1204,0.776,19.7498,443,5,
75.5642,6.50696,17.1173,0.776,19.7498,443,5,
75.5642,6.50726,17.1158,0.776,19.7498,443,5,
75.5643,6.50208,17.1188,0.776,19.7498,443,5,
75.5643,6.50208,17.1188,0.776,19.7498,443,5,
75.5643,6.50177,17.1158,0.776,19.7498,443,5,
75.5644,6.50238,17.1158,0.776,19.7498,443,5,
75.5644,6.5033,17.131,0.776,19.7498,443,5,
75.5644,6.50238,17.1326,0.776,19.7498,443,5,
75.5645,6.50238,17.128,0.776,19.7498,443,5,
75.5645,6.4975,17.1265,0.776,19.7498,443,5,
75.5645,6.49811,17.131,0.776,19.7498,443,5,
75.5646,6.49719,17.1326,0.776,19.7498,443,5,
75.5646,6.49689,17.128,0.776,19.7498,443,5,
75.5646,6.4978,17.1326,0.776,19.7498,443,5,
75.5647,6.49689,17.131,0.776,19.7498,443,5,
75.5647,6.4978,17.131,0.776,19.7498,443,5,
75.5647,6.49231,17.1295,0.776,19.7498,443,5,
75.5648,6.4917,17.1402,0.776,19.7498,443,5,
75.5648,6.492,17.1478,0.776,19.7498,443,5,
75.5648,6.49292,17.1417,0.776,19.7498,443,5,
75.5649,6.49323,17.1433,0.776,19.7498,443,5,
75.5649,6.492,17.1433,0.776,19.7498,443,5,
75.5649,6.49231,17.1417,0.776,19.7498,443,5,
75.565,6.48804,17.1433,0.776,19.7498,443,5,
75.565,6.48743,17.1433,0.776,19.7498,443,5,
75.565,6.48804,17.1433,0.776,19.7498,443,5,
75.5651,6.48773,17.1433,0.776,19.7498,443,5,
75.5651,6.48712,17.1417,0.776,19.7498,443,5,
75.5651,6.48773,17.1433,0.776,19.7498,443,5,
75.5652,6.48773,17.1539,0.776,19.7498,443,5,
75.5652,6.48254,17.1555,0.776,19.7498,443,5,
75.5652,6.48193,17.1539,0.776,19.7498,443,5,
75.5653,6.48285,17.1539,0.776,19.7498,443,5,
75.5653,6.48315,17.1539,0.776,19.7498,443,5,
75.5653,6.48254,17.1524,0.776,19.7498,443,5,
75.5654,6.48254,17.1539,0.776,19.7498,443,5,
75.5654,6.48193,17.1539,0.776,19.7498,443,5,
75.5654,6.48224,17.1539,0.776,19.7498,443,5,
75.5655,6.47766,17.1555,0.776,19.7498,443,5,
75.5655,6.47766,17.1585,0.776,19.7498,443,5,
75.5655,6.47766,17.1539,0.776,19.7498,443,5,
75.5656,6.47797,17.1661,0.776,19.7498,443,5,
75.5656,6.47827,17.1631,0.776,19.7498,443,5,
75.5656,6.47736,17.1661,0.776,19.7498,443,5,
75.5657,6.47736,17.1677,0.776,19.7498,443,5,
75.5657,6.47522,17.1631,0.776,19.7498,443,5,
75.5657,6.47278,17.1661,0.776,19.7498,443,5,
75.5658,6.47278,17.1646,0.776,19.7498,443,5,
75.5658,6.47339,17.1646,0.776,19.7498,443,5,
75.5658,6.47217,17.1661,0.776,19.7498,443,5,
75.5659,6.47247,17.1677,0.776,19.7498,443,5,
75.5659,6.47278,17.1646,0.776,19.7498,443,5,
75.5659,6.47278,17.1677,0.776,19.7498,443,5,
75.566,6.47003,17.1783,0.776,19.7498,443,5,
75.566,6.46759,17.1799,0.776,19.7498,443,5,
75.566,6.46851,17.1783,0.776,19.7498,443,5,
75.5661,6.4679,17.1799,0.776,19.7498,443,5,
75.5661,6.4679,17.1799,0.776,19.7498,443,5,
75.5661,6.4679,17.1783,0.776,19.7498,443,5,
75.5662,6.4682,17.1783,0.776,19.7498,443,5,
75.5662,6.46759,17.1738,0.776,19.7498,443,5,
75.5662,6.46698,17.1783,0.776,19.7498,443,5,
75.5663,6.4624,17.1768,0.776,19.7498,443,5,
75.5663,6.46301,17.1783,0.776,19.7498,443,5,
75.5663,6.46362,17.1768,0.776,19.7498,443,5,
75.5664,6.46332,17.1829,0.776,19.7498,443,5,
75.5664,6.46362,17.189,0.776,19.7498,443,5,
75.5664,6.46362,17.1906,0.776,19.7498,443,5,
75.5665,6.46271,17.1906,0.776,19.7498,443,5,
75.5665,6.46332,17.1936,0.776,19.7498,443,5,
75.5665,6.45844,17.1875,0.776,19.7498,443,5,
75.5666,6.45874,17.1875,0.776,19.7498,443,5,
75.5666,6.45752,17.1906,0.776,19.7498,443,5,
75.5666,6.45813,17.1906,0.776,19.7498,443,5,
75.5667,6.45874,17.189,0.776,19.7498,443,5,
75.5667,6.45813,17.1906,0.776,19.7498,443,5,
75.5667,6.45752,17.189,0.776,19.7498,443,5,
75.5668,6.45752,17.189,0.776,19.7498,443,5,
75.5668,6.45813,17.2043,0.776,19.7498,443,5,
75.5668,6.45294,17.2028,0.776,19.7498,443,5,
75.5669,6.45233,17.2012,0.776,19.7498,443,5,
75.5669,6.45355,17.2028,0.776,19.7498,443,5,
75.5669,6.45294,17.2043,0.776,19.7498,443,5,
75.567,6.45325,17.2028,0.776,19.7498,443,5,
75.567,6.45325,17.2028,0.776,19.7498,443,5,
75.567,6.45294,17.2012,0.776,19.7498,443,5,
75.5671,6.45264,17.2043,0.776,19.7498,443,5,
75.5671,6.45325,17.2043,0.776,19.7498,443,5,
75.5671,6.44867,17.2012,0.776,19.7498,443,5,
75.5672,6.44836,17.2028,0,19.7498,443,5,
75.5672,6.44836,17.2012,0,19.7498,443,5,
75.5672,6.44775,17.2073,0,19.7498,443,5,
75.5673,6.44867,17.215,0,19.7498,443,5,
75.5673,6.44806,17.215,0,19.7498,443,5,
75.5673,6.44867,17.2165,0,19.7498,443,5,
75.5674,6.44836,17.215,0,19.7498,443,5,
75.5674,6.44836,17.2134,0,19.7498,443,5,
75.5674,6.44775,17.215,0,19.7498,443,5,
75.5675,6.44287,17.215,0,19.7498,443,5,
75.5675,6.44287,17.2134,0,19.7498,443,5,
75.5675,6.44379,17.2134,0,19.7498,443,5,
75.5676,6.44348,17.2134,0,19.7498,443,5,
75.5676,6.44348,17.2134,0,19.7498,443,5,
75.5676,6.44348,17.2134,0,19.7498,443,5,
75.5677,6.44287,17.2165,0,19.7498,443,5,
75.5677,6.44348,17.2302,0,19.7498,443,5,
75.5677,6.44379,17.2302,0,19.7498,443,5,
75.5678,6.44318,17.2272,0,19.7498,443,5,
75.5678,6.4389,17.2256,0,19.7498,443,5,
75.5678,6.43768,17.2272,0,19.7498,443,5,
75.5679,6.4386,17.2256,0,19.7498,443,5,
75.5679,6.43829,17.2256,0,19.7498,443,5,
75.5679,6.43799,17.2272,0,19.7498,443,5,
75.568,6.43829,17.2256,0,19.7498,443,5,
75.568,6.4389,17.2272,0,19.7498,443,5,
75.568,6.4386,17.2272,0,19.7498,443,5,
75.5681,6.43799,17.2272,0,19.7498,443,5,
75.5681,6.43829,17.2272,0,19.7498,443,5,
75.5681,6.4386,17.2379,0,19.7498,443,5,
75.5682,6.43463,17.2379,0,19.7498,443,5,
75.5682,6.43341,17.2394,0,19.7498,443,5,
75.5682,6.43341,17.2348,0,19.7498,443,5,
75.5683,6.43311,17.2424,0,19.7498,443,5,
75.5683,6.43341,17.2424,0,19.7498,443,5,
75.5683,6.43311,17.2409,0,19.7498,443,5,
75.5684,6.43311,17.2394,0,19.7498,443,5,
75.5684,6.43372,17.2363,0,19.7498,443,5,
75.5684,6.4328,17.2394,0,19.7498,443,5,
75.5685,6.43402,17.2379,0,19.7498,443,5,
75.5685,6.4328,17.2409,0,19.7498,443,5,
75.5685,6.43341,17.2363,0,19.7498,443,5,
75.5686,6.43402,17.2455,0,19.7498,443,5,
75.5686,6.42883,17.2531,0,19.7498,443,5,
75.5686,6.42883,17.2531,0,19.7498,443,5,
75.5687,6.42853,17.2531,0,19.7498,443,5,
75.5687,6.42883,17.2516,0,19.7498,443,5,
75.5687,6.42792,17.2531,0,19.7498,443,5,
75.5688,6.42883,17.2501,0,19.7498,443,5,
75.5688,6.42853,17.2516,0,19.7498,443,5,
75.5688,6.42944,17.2516,0,19.7498,443,5,
75.5689,6.42883,17.2501,0,19.7498,443,5,
75.5689,6.42883,17.2501,0,19.7498,443,5,
75.5689,6.42914,17.2501,0,19.7498,443,5,
75.569,6.42883,17.2501,0,19.7498,443,5,
75.569,6.42944,17.2501,0,19.7498,443,5,
75.569,6.42944,17.2623,0,19.7498,443,5,
75.5691,6.42609,17.2638,0,19.7498,443,5,
75.5691,6.42487,17.2638,0,19.7498,443,5,
75.5691,6.42426,17.2638,0,19.7498,443,5,
75.5692,6.42426,17.2623,0,19.7498,443,5,
75.5692,6.42487,17.2638,0,19.7498,443,5,
75.5692,6.42426,17.2623,0,19.7498,443,5,
75.5693,6.42334,17.2668,0,19.7498,443,5,
75.5693,6.42426,17.2668,0,19.7498,443,5,
75.5693,6.42365,17.2607,0,19.7498,443,5,
75.5694,6.42334,17.2638,0,19.7498,443,5,
75.5694,6.42365,17.2623,0,19.7498,443,5,
75.5694,6.42303,17.2653,0,19.7498,443,5,
75.5695,6.42303,17.2607,0,19.7498,443,5,
75.5695,6.42365,17.276,0,19.7498,443,5,
75.5695,6.42395,17.276,0,19.7498,443,5,
75.5696,6.42273,17.2775,0,19.7498,443,5,
75.5696,6.42365,17.276,0,19.7498,443,5,
75.5696,6.42334,17.273,0,19.7498,443,5,
75.5697,6.41846,17.2745,0,19.7498,443,5,
75.5697,6.41937,17.276,0,19.7498,443,5,
75.5697,6.41907,17.2745,0,19.7498,443,5,
75.5698,6.41815,17.2775,0,19.7498,443,5,
75.5698,6.41876,17.276,0,19.7498,443,5,
75.5698,6.41815,17.2745,0,19.7498,443,5,
75.5699,6.41937,17.2791,0,19.7498,443,5,
75.5699,6.41846,17.2775,0,19.7498,443,5,
75.5699,6.41846,17.2806,0,19.7498,443,5,
75.57,6.41846,17.2897,0,19.7498,443,5,
75.57,6.41846,17.2882,0,19.7498,443,5,
75.57,6.41846,17.2897,0,19.7498,443,5,
75.5701,6.41846,17.2867,0,19.7498,443,5,
75.5701,6.41907,17.2852,0,19.7498,443,5,
75.5701,6.41907,17.2867,0,19.7498,443,5,
75.5702,6.41846,17.2836,0,19.7498,443,5,
75.5702,6.41846,17.2913,0,19.7498,443,5,
75.5702,6.41876,17.2882,0,19.7498,443,5,
75.5703,6.41815,17.2897,2.434,19.7498,443,5,
75.5703,6.41937,17.2882,2.434,19.7498,443,5,
75.5703,6.41937,17.2897,2.434,19.7498,443,5,
75.5704,6.41876,17.2867,2.434,19.7498,443,5,
75.5704,6.41815,17.2882,2.434,19.7498,443,5,
75.5704,6.41907,17.3004,2.434,19.7498,443,5,
75.5705,6.41907,17.3004,2.434,19.7498,443,5,
75.5705,6.41846,17.3019,2.434,19.7498,443,5,
75.5705,6.41571,17.3004,2.434,19.7498,443,5,
75.5706,6.41357,17.3019,2.434,19.7498,443,5,
75.5706,6.41357,17.2989,2.434,19.7498,443,5,
75.5706,6.41327,17.3004,2.434,19.7498,443,5,
75.5707,6.41357,17.2989,2.434,19.7498,443,5,
75.5707,6.41357,17.2989,2.434,19.7498,443,5,
75.5707,6.41418,17.3004,2.434,19.7498,443,5,
75.5708,6.41388,17.3004,2.434,19.7498,443,5,
75.5708,6.41388,17.2989,2.434,19.7498,443,5,
75.5708,6.41357,17.3004,2.434,19.7498,443,5,
75.5709,6.41388,17.3004,2.434,19.7498,443,5,
75.5709,6.41388,17.3096,2.434,19.7498,443,5,
75.5709,6.41418,17.3111,2.434,19.7498,443,5,
75.571,6.41357,17.3096,2.434,19.7498,443,5,
75.571,6.41388,17.3111,2.434,19.7498,443,5,
75.571,6.41357,17.3126,2.434,19.7498,443,5,
75.5711,6.41388,17.3126,2.434,19.7498,443,5,
75.5711,6.41418,17.3126,2.434,19.7498,443,5,
75.5711,6.41418,17.3111,2.434,19.7498,443,5,
75.5712,6.41357,17.3111,2.434,19.7498,443,5,
75.5712,6.41449,17.3111,2.434,19.7498,443,5,
75.5712,6.41357,17.3141,2.434,19.7498,443,5,
75.5713,6.41357,17.3126,2.434,19.7498,443,5,
75.5713,6.41388,17.3126,2.434,19.7498,443,5,
75.5713,6.41388,17.3111,2.434,19.7498,443,5,
75.5714,6.41418,17.3187,2.434,19.7498,443,5,
75.5714,6.41418,17.3233,2.434,19.7498,443,5,
75.5714,6.41357,17.3248,2.434,19.7498,443,5,
75.5715,6.41327,17.3248,2.434,19.7498,443,5,
75.5715,6.41357,17.3264,2.434,19.7498,443,5,
75.5715,6.41418,17.3264,2.434,19.7498,443,5,
75.5716,6.41449,17.3233,2.434,19.7498,443,5,
75.5716,6.41449,17.3248,2.434,19.7498,443,5,
75.5716,6.4151,17.3248,2.434,19.7498,443,5,
75.5717,6.41449,17.3218,2.434,14.7929,443,5,
75.5717,6.41357,17.3248,2.434,14.7929,443,5,
75.5717,6.41388,17.3233,2.434,14.7929,443,5,
75.5718,6.41418,17.3218,2.434,14.7929,443,5,
75.5718,6.41449,17.3248,2.434,14.7929,443,5,
75.5718,6.41876,17.3294,2.434,14.7929,443,5,
75.5719,6.41846,17.337,2.434,14.7929,443,5,
75.5719,6.41846,17.334,2.434,14.7929,443,5,
75.5719,6.41876,17.3401,2.434,14.7929,443,5,
75.572,6.41907,17.3355,2.434,14.7929,443,5,
75.572,6.41846,17.3355,2.434,14.7929,443,5,
75.572,6.41846,17.337,2.434,14.7929,443,5,
75.5721,6.41907,17.3355,2.434,14.7929,443,5,
75.5721,6.41937,17.3386,2.434,14.7929,443,5,
75.5721,6.41876,17.3355,2.434,14.7929,443,5,
75.5722,6.41907,17.334,2.434,14.7929,443,5,
75.5722,6.41907,17.3386,2.434,14.7929,443,5,
75.5722,6.41846,17.3416,2.434,14.7929,443,5,
75.5723,6.41907,17.3477,2.434,14.7929,443,5,
75.5723,6.41968,17.3477,2.434,14.7929,443,5,
75.5723,6.41937,17.3477,2.434,14.7929,443,5,
75.5724,6.41907,17.3523,2.434,14.7929,443,5,
75.5724,6.41876,17.3492,2.434,14.7929,443,5,
75.5724,6.41907,17.3492,2.434,14.7929,443,5,
75.5725,6.41876,17.3492,2.434,14.7929,443,5,
75.5725,6.41907,17.3492,2.434,14.7929,443,5,
75.5725,6.41937,17.3492,2.434,14.7929,443,5,
75.5726,6.42212,17.3447,2.434,14.7929,443,5,
75.5726,6.42365,17.3477,2.434,14.7929,443,5,
75.5726,6.42395,17.3477,2.434,14.7929,443,5,
75.5727,6.42395,17.3492,2.434,14.7929,443,5,
75.5727,6.42426,17.363,2.434,14.7929,443,5,
75.5727,6.42426,17.3615,2.434,14.7929,443,5,
75.5728,6.42395,17.3584,2.434,14.7929,443,5,
75.5728,6.42334,17.3615,2.434,14.7929,443,5,
75.5728,6.42426,17.3584,2.434,14.7929,443,5,
75.5729,6.42395,17.3615,2.434,14.7929,443,5,
75.5729,6.42365,17.3615,2.434,14.7929,443,5,
75.5729,6.42426,17.3615,2.434,14.7929,443,5,
75.573,6.42426,17.3599,2.434,14.7929,443,5,
75.573,6.42365,17.3615,2.434,14.7929,443,5,
75.573,6.42426,17.3615,2.434,14.7929,443,5,
75.5731,6.42944,17.363,2.434,14.7929,443,5,
75.5731,6.42853,17.363,2.434,14.7929,443,5,
75.5731,6.42883,17.3721,2.434,14.7929,443,5,
75.5732,6.42853,17.3752,2.434,14.7929,443,5,
75.5732,6.42822,17.3706,2.434,14.7929,443,5,
75.5732,6.42883,17.3737,2.434,14.7929,443,5,
75.5733,6.42914,17.3752,2.434,14.7929,443,5,
75.5733,6.42944,17.3752,2.434,14.7929,443,5,
75.5733,6.42883,17.3737,2.434,14.7929,443,5,
75.5734,6.42853,17.3721,2.434,14.7929,443,5,
75.5734,6.42853,17.3737,2.434,14.7929,443,5,
75.5734,6.43311,17.3721,2.434,14.7929,443,5,
75.5735,6.43311,17.3706,2.434,14.7929,443,5,
75.5735,6.43341,17.3706,2.434,14.7929,443,5,
75.5735,6.4325,17.3752,2.434,14.7929,443,5,
75.5736,6.43341,17.3721,2.434,14.7929,443,5,
75.5736,6.4328,17.3859,2.434,14.7929,443,5,
75.5736,6.43341,17.3843,2.434,14.7929,443,5,
75.5737,6.43311,17.3843,2.434,14.7929,443,5,
75.5737,6.43341,17.3828,2.434,14.7929,443,5,
75.5737,6.43616,17.3843,2.434,14.7929,443,5,
75.5738,6.43829,17.3859,2.434,14.7929,443,5,
75.5738,6.43738,17.3828,2.434,14.7929,443,5,
75.5738,6.43799,17.3874,2.434,14.7929,443,5,
75.5739,6.4386,17.3859,2.434,14.7929,443,5,
75.5739,6.4386,17.3843,2.434,14.7929,443,5,
75.5739,6.4386,17.3889,2.434,14.7929,443,5,
75.574,6.43829,17.3828,2.434,14.7929,443,5,
75.574,6.43799,17.3859,2.434,14.7929,443,5,
75.574,6.44287,17.3859,2.434,14.7929,443,5,
75.5741,6.44287,17.3889,2.434,14.7929,443,5,
75.5741,6.44379,17.3874,2.434,14.7929,443,5,
75.5741,6.44318,17.3843,2.434,14.7929,443,5,
75.5742,6.44287,17.3981,2.434,14.7929,443,5,
75.5742,6.44287,17.3965,2.434,14.7929,443,5,
75.5742,6.44257,17.3965,2.434,14.7929,443,5,
75.5743,6.44287,17.4011,2.434,14.7929,443,5,
75.5743,6.44745,17.3965,2.434,14.7929,443,5,
75.5743,6.44806,17.3965,2.434,14.7929,443,5,
75.5744,6.44745,17.3965,2.434,14.7929,443,5,
75.5744,6.44836,17.3965,2.434,14.7929,443,5,
75.5744,6.44836,17.3935,2.434,14.7929,443,5,
75.5745,6.44836,17.395,2.434,14.7929,443,5,
75.5745,6.44775,17.3981,2.434,14.7929,443,5,
75.5745,6.45203,17.3981,2.434,14.7929,443,5,
75.5746,6.45355,17.3981,2.434,14.7929,443,5,
75.5746,6.45355,17.395,2.434,14.7929,443,5,
75.5746,6.45264,17.395,2.434,14.7929,443,5,
75.5747,6.45355,17.3981,2.434,14.7929,443,5,
75.5747,6.45294,17.3996,2.434,14.7929,443,5,
75.5747,6.45294,17.3981,2.434,14.7929,443,5,
75.5748,6.45294,17.3965,2.434,14.7929,443,5,
75.5748,6.45752,17.4118,2.434,14.7929,443,5,
75.5748,6.45782,17.4118,2.434,14.7929,443,5,
75.5749,6.45782,17.4103,2.434,14.7929,443,5,
75.5749,6.45752,17.4103,2.434,14.7929,443,5,
75.5749,6.45752,17.4088,2.434,14.7929,443,5,
75.575,6.45813,17.4118,2.434,14.7929,443,5,
75.575,6.46179,17.4118,2.434,14.7929,443,5,
75.575,6.4624,17.4088,2.434,14.7929,443,5,
75.5751,6.46271,17.4088,2.434,14.7929,443,5,
75.5751,6.46301,17.4072,2.434,14.7929,443,5,
75.5751,6.46271,17.4103,2.434,14.7929,443,5,
75.5752,6.46301,17.4088,2.434,14.7929,443,5,
75.5752,6.46271,17.4072,2.434,14.7929,443,5,
75.5752,6.46698,17.4103,2.434,14.7929,443,5,
75.5753,6.4679,17.4118,2.434,14.7929,443,5,
75.5753,6.46851,17.4103,2.434,14.7929,443,5,
75.5753,6.46759,17.4103,2.434,14.7929,443,5,
75.5754,6.4679,17.4103,2.434,14.7929,443,5,
75.5754,6.4679,17.4149,2.434,14.7929,443,5,
75.5754,6.47095,17.4088,2.434,14.7929,443,5,
75.5755,6.47186,17.4118,2.434,14.7929,443,5,
75.5755,6.47247,17.4103,2.434,14.7929,443,5,
75.5755,6.47308,17.4072,2.434,14.7929,443,5,
75.5756,6.47278,17.421,2.434,14.7929,443,5,
75.5756,6.47339,17.4225,2.434,14.7929,443,5,
75.5756,6.47339,17.4194,2.434,14.7929,443,5,
75.5757,6.47797,17.4194,2.434,14.7929,443,5,
75.5757,6.47797,17.4225,2.434,14.7929,443,5,
75.5757,6.47827,17.4194,2.434,14.7929,443,5,
75.5758,6.47766,17.421,2.434,14.7929,443,5,
75.5758,6.47827,17.4225,2.434,14.7929,443,5,
75.5758,6.47766,17.421,2.434,14.7929,443,5,
75.5759,6.48285,17.421,2.434,14.7929,443,5,
75.5759,6.48193,17.421,2.434,14.7929,443,5,
75.5759,6.48254,17.4225,2.434,14.7929,443,5,
75.576,6.48285,17.421,2.434,14.7929,443,5,
75.576,6.48224,17.4225,2.434,14.7929,443,5,
75.576,6.48285,17.4194,2.434,14.7929,443,5,
75.5761,6.48773,17.421,2.434,14.7929,443,5,
75.5761,6.48712,17.4225,2.434,14.7929,443,5,
75.5761,6.48712,17.4194,2.434,14.7929,443,5,
75.5762,6.48804,17.421,2.434,14.7929,443,5,
75.5762,6.48743,17.424,2.434,14.7929,443,5,
75.5762,6.48743,17.4225,2.434,14.7929,443,5,
75.5763,6.49231,17.4225,2.434,14.7929,443,5,
75.5763,6.492,17.4194,2.434,14.7929,443,5,
75.5763,6.49231,17.4194,2.434,14.7929,443,5,
75.5764,6.49261,17.4225,2.434,14.7929,443,5,
75.5764,6.49292,17.421,2.434,14.7929,443,5,
75.5764,6.49506,17.4225,2.434,14.7929,443,5,
75.5765,6.49719,17.4225,2.434,14.7929,443,5,
75.5765,6.4975,17.4225,2.434,14.7929,443,5,
75.5765,6.4978,17.4225,2.434,14.7929,443,5,
75.5766,6.49689,17.4225,2.434,14.7929,443,5,
75.5766,6.49689,17.4255,2.434,14.7929,443,5,
75.5766,6.50238,17.4301,2.434,14.7929,443,5,
75.5767,6.50269,17.4347,2.434,14.7929,443,5,
75.5767,6.50238,17.4347,2.434,14.7929,443,5,
75.5767,6.50299,17.4332,2.434,14.7929,443,5,
75.5768,6.50238,17.4362,2.434,14.7929,443,5,
75.5768,6.50513,17.4347,2.434,14.7929,443,5,
75.5768,6.50665,17.4347,2.434,14.7929,443,5,
75.5769,6.50665,17.4347,2.434,14.7929,443,5,
75.5769,6.50696,17.4377,2.434,14.7929,443,5,
75.5769,6.50665,17.4347,2.434,14.7929,443,5,
75.577,6.50757,17.4332,2.434,14.7929,443,5,
75.577,6.51276,17.4362,2.434,14.7929,443,5,
75.577,6.51154,17.4362,2.434,14.7929,443,5,
75.5771,6.51184,17.4362,2.434,14.7929,443,5,
75.5771,6.51215,17.4347,2.434,14.7929,443,5,
75.5771,6.51154,17.4301,2.434,14.7929,443,5,
75.5772,6.5152,17.4332,2.434,14.7929,443,5,
75.5772,6.51703,17.4362,2.434,14.7929,443,5,
75.5772,6.51672,17.4393,2.434,14.7929,443,5,
75.5773,6.51642,17.4332,2.434,14.7929,443,5,
75.5773,6.51703,17.4332,2.434,14.7929,443,5,
75.5773,6.51672,17.4347,2.434,14.7929,443,5,
75.5774,6.52222,17.4332,2.434,14.7929,443,5,
75.5774,6.52191,17.4347,2.434,14.7929,443,5,
75.5774,6.52161,17.4362,2.434,14.7929,443,5,
75.5775,6.52161,17.4316,2.434,14.7929,443,5,
75.5775,6.52222,17.4362,2.434,14.7929,443,5,
75.5775,6.52618,17.4332,2.434,14.7929,443,5,
75.5776,6.52618,17.4347,2.434,14.7929,443,5,
75.5776,6.52649,17.4316,2.434,14.7929,443,5,
75.5776,6.5271,17.4438,2.434,14.7929,443,5,
75.5777,6.52649,17.4469,2.434,14.7929,443,5,
75.5777,6.53137,17.4438,2.434,14.7929,443,5,
75.5777,6.53137,17.4469,2.434,14.7929,443,5,
75.5778,6.53198,17.4469,2.434,14.7929,443,5,
75.5778,6.53198,17.4454,2.434,14.7929,443,5,
75.5778,6.53137,17.45,2.434,14.7929,443,5,
75.5779,6.53625,17.4469,2.434,14.7929,443,5,
75.5779,6.53595,17.4469,2.434,14.7929,443,5,
75.5779,6.53656,17.4454,2.434,14.7929,443,5,
75.578,6.53687,17.4454,2.434,14.7929,443,5,
75.578,6.53595,17.4454,2.434,14.7929,443,5,
75.578,6.54114,17.4438,2.434,14.7929,443,5,
75.5781,6.54083,17.4438,2.434,14.7929,443,5,
75.5781,6.54175,17.4469,2.434,14.7929,443,5,
75.5781,6.54083,17.4469,2.434,14.7929,443,5,
75.5782,6.54114,17.4469,2.434,14.7929,443,5,
75.5782,6.54633,17.4454,2.434,14.7929,443,5,
75.5782,6.54602,17.45,2.434,14.7929,443,5,
75.5783,6.54633,17.4484,2.434,14.7929,443,5,
75.5783,6.54602,17.4469,2.434,14.7929,443,5,
75.5783,6.54724,17.4454,2.434,14.7929,443,5,
75.5784,6.5509,17.4454,2.434,14.7929,443,5,
75.5784,6.55121,17.4469,2.434,14.7929,443,5,
75.5784,6.5509,17.4469,2.434,14.7929,443,5,
75.5785,6.55151,17.4438,2.434,14.7929,443,5,
75.5785,6.55121,17.4454,2.434,14.7929,443,5,
75.5785,6.5567,17.4438,2.434,14.7929,443,5,
75.5786,6.55548,17.4469,2.434,14.7929,443,5,
75.5786,6.55609,17.4469,2.434,14.7929,443,5,
75.5786,6.55609,17.4606,2.434,14.7929,443,5,
75.5787,6.5564,17.4576,2.434,14.7929,443,5,
75.5787,6.56067,17.4622,2.434,14.7929,443,5,
75.5787,6.56067,17.4622,2.434,14.7929,443,5,
75.5788,6.56067,17.4591,2.434,14.7929,443,5,
75.5788,6.56158,17.4561,2.434,14.7929,443,5,
75.5788,6.56128,17.4606,2.434,14.7929,443,5,
75.5789,6.56525,17.4606,2.434,14.7929,443,5,
75.5789,6.56616,17.4545,2.434,14.7929,443,5,
75.5789,6.56616,17.4591,2.434,14.7929,443,5,
75.579,6.56555,17.4561,2.434,14.7929,443,5,
75.579,6.5686,17.4591,2.434,14.7929,443,5,
75.579,6.57104,17.4576,2.434,14.7929,443,5,
75.5791,6.57074,17.4622,2.434,14.7929,443,5,
75.5791,6.57074,17.4591,2.434,14.7929,443,5,
75.5791,6.57043,17.4622,2.434,14.7929,443,5,
75.5792,6.5741,17.4591,2.434,14.7929,443,5,
75.5792,6.57654,17.4561,2.434,14.7929,443,5,
75.5792,6.57501,17.4591,2.434,14.7929,443,5,
75.5793,6.57562,17.4591,2.434,14.7929,443,5,
75.5793,6.57593,17.4561,2.434,14.7929,443,5,
75.5793,6.5802,17.4576,2.434,14.7929,443,5,
75.5794,6.58081,17.4576,2.434,14.7929,443,5,
75.5794,6.58081,17.4561,2.434,14.7929,443,5,
75.5794,6.58112,17.4576,2.434,14.7929,443,5,
75.5795,6.5802,17.4576,2.434,14.7929,443,5,
75.5795,6.58478,17.4606,2.434,14.7929,443,5,
75.5795,6.58539,17.4561,2.434,14.7929,443,5,
75.5796,6.58569,17.4576,2.434,14.7929,443,5,
75.5796,6.58569,17.4622,2.434,14.7929,443,5,
75.5796,6.586,17.4576,2.434,14.7929,443,5,
75.5797,6.59027,17.4606,2.434,14.7929,443,5,
75.5797,6.59027,17.4637,2.434,14.7929,443,5,
75.5797,6.59027,17.4713,2.434,14.7929,443,5,
75.5798,6.59027,17.4728,2.434,14.7929,443,5,
75.5798,6.58966,17.4698,2.434,14.7929,443,5,
75.5798,6.59546,17.4683,2.434,14.7929,443,5,
75.5799,6.59515,17.4728,2.434,14.7929,443,5,
75.5799,6.59485,17.4744,2.434,14.7929,443,5,
75.5799,6.59546,17.4713,2.434,14.7929,443,5,
75.58,6.59546,17.4728,2.434,14.7929,443,5,
75.58,6.60004,17.4683,2.434,14.7929,443,5,
75.58,6.59973,17.4713,2.434,14.7929,443,5,
75.5801,6.60004,17.4728,2.434,14.7929,443,5,
75.5801,6.60034,17.4713,2.434,14.7929,443,5,
75.5801,6.60339,17.4713,2.434,14.7929,443,5,
75.5802,6.60492,17.4713,2.434,14.7929,443,5,
75.5802,6.60461,17.4728,2.434,14.7929,443,5,
75.5802,6.60461,17.4713,2.434,14.7929,443,5,
75.5803,6.60522,17.4713,2.434,14.7929,443,5,
75.5803,6.60919,17.4713,2.434,14.7929,443,5,
75.5803,6.61011,17.4698,2.434,14.7929,443,5,
75.5804,6.61011,17.4728,2.434,14.7929,443,5,
75.5804,6.6098,17.4698,2.434,14.7929,443,5,
75.5804,6.6095,17.4713,2.434,14.7929,443,5,
75.5805,6.61407,17.4683,2.434,14.7929,443,5,
75.5805,6.61469,17.4713,2.434,14.7929,443,5,
75.5805,6.61469,17.4698,2.434,14.7929,443,5,
75.5806,6.61469,17.4728,2.434,14.7929,443,5,
75.5806,6.61469,17.4713,2.434,14.7929,443,5,
75.5806,6.61987,17.4713,2.434,14.7929,443,5,
75.5807,6.61896,17.4713,2.434,14.7929,443,5,
75.5807,6.61957,17.4713,2.434,14.7929,443,5,
75.5807,6.61896,17.4744,2.434,14.7929,443,5,
75.5808,6.61987,17.4713,2.434,14.7929,443,5,
75.5808,6.62445,17.482,2.434,14.7929,443,5,
75.5808,6.62415,17.485,2.434,14.7929,443,5,
75.5809,6.62476,17.4835,2.434,14.7929,443,5,
75.5809,6.62567,17.482,2.434,14.7929,443,5,
75.5809,6.62476,17.4866,2.434,14.7929,443,5,
75.581,6.62964,17.482,2.434,14.7929,443,5,
75.581,6.62964,17.482,2.434,14.7929,443,5,
75.581,6.62964,17.4835,2.434,14.7929,443,5,
75.5811,6.62964,17.482,2.434,14.7929,443,5,
75.5811,6.63239,17.4835,2.434,14.7929,443,5,
75.5811,6.63391,17.4866,2.434,14.7929,443,5,
75.5812,6.63483,17.4835,2.434,14.7929,443,5,
75.5812,6.63452,17.4866,2.434,14.7929,443,5,
75.5812,6.63422,17.485,2.434,14.7929,443,5,
75.5813,6.6391,17.4835,2.434,14.7929,443,5,
75.5813,6.6394,17.4805,2.434,14.7929,443,5,
75.5813,6.63879,17.4835,2.434,14.7929,443,5,
75.5814,6.64001,17.482,2.434,14.7929,443,5,
75.5814,6.6394,17.485,2.434,14.7929,443,5,
75.5814,6.64337,17.4835,2.434,14.7929,443,5,
75.5815,6.64459,17.4835,2.434,14.7929,443,5,
75.5815,6.64429,17.485,2.434,14.7929,443,5,
75.5815,6.64459,17.485,2.434,14.7929,443,5,
75.5816,6.64429,17.4835,2.434,14.7929,443,5,
75.5816,6.64886,17.4866,2.434,14.7929,443,5,
75.5816,6.64948,17.4835,2.434,14.7929,443,5,
75.5817,6.64917,17.482,2.434,14.7929,443,5,
75.5817,6.64978,17.485,2.434,14.7929,443,5,
75.5817,6.64917,17.485,2.434,14.7929,443,5,
75.5818,6.65466,17.485,2.434,14.7929,443,5,
75.5818,6.65436,17.485,2.434,14.7929,443,5,
75.5818,6.65405,17.4805,2.434,14.7929,443,5,
75.5819,6.65497,17.485,2.434,14.7929,443,5,
75.5819,6.65497,17.485,2.434,14.7929,443,5,
75.5819,6.65924,17.4957,2.434,14.7929,443,5,
75.582,6.65894,17.4973,2.434,14.7929,443,5,
75.582,6.65955,17.4957,2.434,14.7929,443,5,
75.582,6.65924,17.4957,2.434,14.7929,443,5,
75.5821,6.66199,17.4973,2.434,14.7929,443,5,
75.5821,6.66351,17.4973,2.434,14.7929,443,5,
75.5821,6.6629,17.4988,2.434,14.7929,443,5,
75.5822,6.66321,17.4973,2.434,14.7929,443,5,
75.5822,6.66351,17.4942,2.434,14.7929,443,5,
75.5822,6.66626,17.4942,2.434,14.7929,443,5,
75.5823,6.6684,17.4942,2.434,14.7929,443,5,
75.5823,6.66901,17.4957,2.434,14.7929,443,5,
75.5823,6.6684,17.4988,2.434,14.7929,443,5,
75.5824,6.6687,17.4973,2.434,14.7929,443,5,
75.5824,6.67297,17.4973,2.434,14.7929,443,5,
75.5824,6.67297,17.5003,2.434,14.7929,443,5,
75.5825,6.67297,17.4973,2.434,14.7929,443,5,
75.5825,6.67297,17.4988,2.434,14.7929,443,5,
75.5825,6.67419,17.4927,2.434,14.7929,443,5,
75.5826,6.67725,17.4973,2.434,14.7929,443,5,
75.5826,6.67847,17.4988,2.434,14.7929,443,5,
75.5826,6.67816,17.4957,2.434,14.7929,443,5,
75.5827,6.67877,17.4896,2.434,14.7929,443,5,
75.5827,6.67816,17.4957,2.434,14.7929,443,5,
75.5827,6.68304,17.4927,2.434,14.7929,443,5,
75.5828,6.68304,17.4957,2.434,14.7929,443,5,
75.5828,6.68396,17.4973,2.434,14.7929,443,5,
75.5828,6.68304,17.4942,2.434,14.7929,443,5,
75.5829,6.68365,17.4973,2.434,14.7929,443,5,
75.5829,6.68823,17.4988,2.434,14.7929,443,5,
75.5829,6.68823,17.4942,2.434,14.7929,443,5,
75.583,6.68854,17.4973,2.434,14.7929,443,5,
75.583,6.68823,17.4957,2.434,14.7929,443,5,
75.583,6.68823,17.4957,2.434,14.7929,443,5,
75.5831,6.69281,17.4957,2.434,14.7929,443,5,
75.5831,6.69312,17.4957,2.434,14.7929,443,5,
75.5831,6.69281,17.4988,2.434,14.7929,443,5,
75.5832,6.69342,17.4988,2.434,14.7929,443,5,
75.5832,6.69556,17.4973,2.434,14.7929,443,5,
75.5832,6.6983,17.4988,2.434,14.7929,443,5,
75.5833,6.6983,17.5064,2.434,14.7929,443,5,
75.5833,6.698,17.5095,2.434,14.7929,443,5,
75.5833,6.698,17.5064,2.434,14.7929,443,5,
75.5834,6.70105,17.5064,2.434,14.7929,443,5,
75.5834,6.70227,17.5064,2.434,14.7929,443,5,
75.5834,6.70319,17.5095,2.434,14.7929,443,5,
75.5835,6.70288,17.5049,2.434,14.7929,443,5,
75.5835,6.70288,17.5049,2.434,14.7929,443,5,
75.5835,6.70563,17.5095,2.434,14.7929,443,5,
75.5836,6.70746,17.511,2.434,14.7929,443,5,
75.5836,6.70868,17.5095,2.434,14.7929,443,5,
75.5836,6.70868,17.5064,2.434,14.7929,443,5,
75.5837,6.70837,17.5095,2.434,14.7929,443,5,
75.5837,6.71143,17.5079,2.434,14.7929,443,5,
75.5837,6.71295,17.5095,2.434,14.7929,443,5,
75.5838,6.71265,17.5095,2.434,14.7929,443,5,
75.5838,6.71295,17.5064,2.434,14.7929,443,5,
75.5838,6.71326,17.5095,2.434,14.7929,443,5,
75.5839,6.71692,17.5079,2.434,14.7929,443,5,
75.5839,6.71814,17.5095,2.434,14.7929,443,5,
75.5839,6.71844,17.5095,2.434,14.7929,443,5,
75.584,6.71783,17.5095,2.434,14.7929,443,5,
75.584,6.71783,17.5095,2.434,14.7929,443,5,
75.584,6.71814,17.5049,2.434,14.7929,443,5,
75.5841,6.72241,17.5079,2.434,14.7929,443,5,
75.5841,6.72333,17.5095,2.434,14.7929,443,5,
75.5841,6.72241,17.5095,2.434,14.7929,443,5,
75.5842,6.72272,17.511,2.434,14.7929,443,5,
75.5842,6.72241,17.5095,2.434,14.7929,443,5,
75.5842,6.72729,17.5095,2.434,14.7929,443,5,
75.5843,6.72729,17.5125,2.434,14.7929,443,5,
75.5843,6.72852,17.5064,2.434,14.7929,443,5,
75.5843,6.72729,17.5049,2.434,14.7929,443,5,
75.5844,6.72729,17.5064,2.434,14.7929,443,5,
75.5844,6.73218,17.511,2.434,14.7929,443,5,
75.5844,6.73279,17.511,2.434,14.7929,443,5,
75.5845,6.73218,17.511,2.434,14.7929,443,5,
75.5845,6.73248,17.5079,2.434,14.7929,443,5,
75.5845,6.73218,17.511,2.434,14.7929,443,5,
75.5846,6.73615,17.5049,2.434,14.7929,443,5,
75.5846,6.73737,17.5095,2.434,14.7929,443,5,
75.5846,6.73706,17.5064,2.434,14.7929,443,5,
75.5847,6.73737,17.5095,2.434,14.7929,443,5,
75.5847,6.73767,17.5079,2.434,14.7929,443,5,
75.5847,6.73706,17.5079,2.434,14.7929,443,5,
75.5848,6.74255,17.5095,2.434,14.7929,443,5,
75.5848,6.74225,17.5064,2.434,14.7929,443,5,
75.5848,6.74225,17.5079,2.434,14.7929,443,5,
75.5849,6.74225,17.511,2.434,14.7929,443,5,
75.5849,6.74164,17.5095,2.434,14.7929,443,5,
75.5849,6.745,17.514,2.434,14.7929,443,5,
75.585,6.74683,17.5217,2.434,14.7929,443,5,
75.585,6.74805,17.5156,2.434,14.7929,443,5,
75.585,6.74713,17.5201,2.434,14.7929,443,5,
75.5851,6.74713,17.5186,2.434,14.7929,443,5,
75.5851,6.74683,17.5201,2.434,14.7929,443,5,
75.5851,6.75171,17.5186,2.434,14.7929,443,5,
75.5852,6.7514,17.5201,2.434,14.7929,443,5,
75.5852,6.75232,17.5201,2.434,14.7929,443,5,
75.5852,6.7514,17.5201,2.434,14.7929,443,5,
75.5853,6.75201,17.5232,2.434,14.7929,443,5,
75.5853,6.75232,17.5171,2.434,14.7929,443,5,
75.5853,6.75629,17.5217,2.434,14.7929,443,5,
75.5854,6.75781,17.5217,2.434,14.7929,443,5,
75.5854,6.7569,17.5217,2.434,14.7929,443,5,
75.5854,6.75751,17.5186,2.434,14.7929,443,5,
75.5855,6.75751,17.5201,2.434,14.7929,443,5,
75.5855,6.75934,17.5232,2.434,14.7929,443,5,
75.5855,6.76147,17.5201,2.434,14.7929,443,5,
75.5856,6.76178,17.5186,2.434,14.7929,443,5,
75.5856,6.76239,17.5217,2.434,14.7929,443,5,
75.5856,6.76147,17.5217,2.434,14.7929,443,5,
75.5857,6.76239,17.5186,2.434,14.7929,443,5,
75.5857,6.76483,17.5201,2.434,14.7929,443,5,
75.5857,6.76666,17.5186,2.434,14.7929,443,5,
75.5858,6.76697,17.5201,2.434,14.7929,443,5,
75.5858,6.76697,17.5171,2.434,14.7929,443,5,
75.5858,6.76697,17.5201,2.434,14.7929,443,5,
75.5859,6.76605,17.5217,2.434,14.7929,443,5,
75.5859,6.76971,17.5186,2.434,14.7929,443,5,
75.5859,6.77155,17.5171,2.434,14.7929,443,5,
75.586,6.77155,17.5186,2.434,14.7929,443,5,
75.586,6.77185,17.5186,2.434,14.7929,443,5,
75.586,6.77155,17.5201,2.434,14.7929,443,5,
75.5861,6.77155,17.5217,2.434,14.7929,443,5,
75.5861,6.77429,17.5201,2.434,14.7929,443,5,
75.5861,6.77612,17.5217,2.434,14.7929,443,5,
75.5862,6.77643,17.5217,2.434,14.7929,443,5,
75.5862,6.77612,17.5186,2.434,14.7929,443,5,
75.5862,6.77612,17.5217,2.434,14.7929,443,5,
75.5863,6.77612,17.5201,2.434,14.7929,443,5,
75.5863,6.77612,17.5201,2.434,14.7929,443,5,
75.5863,6.78101,17.5232,2.434,14.7929,443,5,
75.5864,6.78101,17.5232,2.434,14.7929,443,5,
75.5864,6.7807,17.5171,2.434,14.7929,443,5,
75.5864,6.78101,17.5201,2.434,14.7929,443,5,
75.5865,6.7804,17.5186,2.434,14.7929,443,5,
75.5865,6.78101,17.5156,2.434,14.7929,443,5,
75.5865,6.78589,17.5217,2.434,14.7929,443,5,
75.5866,6.78619,17.5186,2.434,14.7929,443,5,
75.5866,6.78589,17.5201,2.434,14.7929,443,5,
75.5866,6.78589,17.5186,2.434,14.7929,443,5,
75.5867,6.78528,17.5232,2.434,14.7929,443,5,
75.5867,6.78589,17.5217,2.434,14.7929,443,5,
75.5867,6.78955,17.5171,2.434,14.7929,443,5,
75.5868,6.79108,17.5201,2.434,14.7929,443,5,
75.5868,6.79077,17.5186,2.434,14.7929,443,5,
75.5868,6.79077,17.5186,2.434,14.7929,443,5,
75.5869,6.79138,17.5232,2.434,14.7929,443,5,
75.5869,6.79108,17.5217,2.434,14.7929,443,5,
75.5869,6.79077,17.5217,2.434,14.7929,443,5,
75.587,6.79535,17.5232,2.434,14.7929,443,5,
75.587,6.79626,17.5201,2.434,14.7929,443,5,
75.587,6.79626,17.5201,2.434,14.7929,443,5,
75.5871,6.79565,17.5323,2.434,14.7929,443,5,
75.5871,6.79565,17.5339,2.434,14.7929,443,5,
75.5871,6.79596,17.5354,2.434,14.7929,443,5,
75.5872,6.79596,17.5354,2.434,14.7929,443,5,
75.5872,6.80115,17.5339,2.434,14.7929,443,5,
75.5872,6.80084,17.5308,2.434,14.7929,443,5,
75.5873,6.80054,17.5308,2.434,14.7929,443,5,
75.5873,6.80115,17.5323,2.434,14.7929,443,5,
75.5873,6.79993,17.5323,2.434,14.7929,443,5,
75.5874,6.80084,17.5323,2.434,14.7929,443,5,
75.5874,6.80054,17.5339,2.434,14.7929,443,5,
75.5874,6.80603,17.5339,2.434,14.7929,443,5,
75.5875,6.80573,17.5339,2.434,14.7929,443,5,
75.5875,6.80573,17.5339,2.434,14.7929,443,5,
75.5875,6.80573,17.5323,2.434,14.7929,443,5,
75.5876,6.80603,17.5339,2.434,14.7929,443,5,
75.5876,6.80573,17.5323,2.434,14.7929,443,5,
75.5876,6.80664,17.5323,2.434,14.7929,443,5,
75.5877,6.8103,17.5323,2.434,14.7929,443,5,
75.5877,6.81122,17.5323,2.434,14.7929,443,5,
75.5877,6.8103,17.5339,2.434,14.7929,443,5,
75.5878,6.8103,17.5323,2.434,14.7929,443,5,
75.5878,6.8103,17.5308,2.434,14.7929,443,5,
75.5878,6.81,17.5323,2.434,14.7929,443,5,
75.5879,6.81061,17.5339,2.434,14.7929,443,5,
75.5879,6.81549,17.5308,2.434,14.7929,443,5,
75.5879,6.81549,17.5354,2.434,14.7929,443,5,
75.588,6.81549,17.5323,2.434,14.7929,443,5,
75.588,6.81519,17.5323,2.434,14.7929,443,5,
75.588,6.81519,17.5339,2.434,14.7929,443,5,
75.5881,6.8161,17.5323,2.434,14.7929,443,5,
75.5881,6.8161,17.5339,2.434,14.7929,443,5,
75.5881,6.81854,17.5339,2.434,14.7929,443,5,
75.5882,6.82068,17.5323,2.434,14.7929,443,5,
75.5882,6.81976,17.5339,2.434,14.7929,443,5,
75.5882,6.82068,17.5369,2.434,14.7929,443,5,
75.5883,6.82007,17.5323,2.434,14.7929,443,5,
75.5883,6.82007,17.5323,2.434,14.7929,443,5,
75.5883,6.82068,17.5369,2.434,14.7929,443,5,
75.5884,6.82007,17.5308,2.434,14.7929,443,5,
75.5884,6.82495,17.5354,2.434,14.7929,443,5,
75.5884,6.82617,17.5323,2.434,14.7929,443,5,
75.5885,6.82465,17.5339,2.434,14.7929,443,5,
75.5885,6.82526,17.5323,2.434,14.7929,443,5,
75.5885,6.82495,17.5323,2.434,14.7929,443,5,
75.5886,6.82526,17.5308,2.434,14.7929,443,5,
75.5886,6.82556,17.5293,2.434,14.7929,443,5,
75.5886,6.82617,17.5308,2.434,14.7929,443,5,
75.5887,6.83075,17.5339,2.434,14.7929,443,5,
75.5887,6.83044,17.5323,2.434,14.7929,443,5,
75.5887,6.83014,17.5308,2.434,14.7929,443,5,
75.5888,6.82983,17.5339,2.434,14.7929,443,5,
75.5888,6.83075,17.5354,2.434,14.7929,443,5,
75.5888,6.82983,17.5323,2.434,14.7929,443,5,
75.5889,6.83044,17.5278,2.434,14.7929,443,5,
75.5889,6.83044,17.5323,2.434,14.7929,443,5,
75.5889,6.83533,17.5323,2.434,14.7929,443,5,
75.589,6.83472,17.5308,2.434,14.7929,443,5,
75.589,6.83594,17.5293,2.434,14.7929,443,5,
75.589,6.83441,17.5339,2.434,14.7929,443,5,
75.5891,6.83594,17.5323,2.434,14.7929,443,5,
75.5891,6.83502,17.5323,2.434,14.7929,443,5,
75.5891,6.83533,17.5308,2.434,14.7929,443,5,
75.5892,6.83472,17.5354,2.434,14.7929,443,5,
75.5892,6.83655,17.5308,2.434,14.7929,443,5,
75.5892,6.8396,17.5339,2.434,14.7929,443,5,
75.5893,6.8396,17.5354,2.434,14.7929,443,5,
75.5893,6.84052,17.5293,2.434,14.7929,443,5,
75.5893,6.84021,17.5308,2.434,14.7929,443,5,
75.5894,6.8399,17.5354,2.434,14.7929,443,5,
75.5894,6.8399,17.5323,2.434,14.7929,443,5,
75.5894,6.84052,17.5354,2.434,14.7929,443,5,
75.5895,6.8399,17.5323,2.434,14.7929,443,5,
75.5895,6.84052,17.5339,2.434,14.7929,443,5,
75.5895,6.84052,17.5323,2.434,14.7929,443,5,
75.5896,6.84509,17.5339,2.434,14.7929,443,5,
75.5896,6.84509,17.5323,2.434,14.7929,443,5,
75.5896,6.84509,17.5339,2.434,14.7929,443,5,
75.5897,6.84418,17.5323,2.434,14.7929,443,5,
75.5897,6.8454,17.5323,2.434,14.7929,443,5,
75.5897,6.84479,17.5339,2.434,14.7929,443,5,
75.5898,6.8457,17.5308,2.434,14.7929,443,5,
75.5898,6.84479,17.5323,2.434,14.7929,443,5,
75.5898,6.8454,17.5339,2.434,14.7929,443,5,
75.5899,6.84479,17.5339,2.434,14.7929,443,5,
75.5899,6.84784,17.5308,2.434,14.7929,443,5,
75.5899,6.84998,17.5308,2.434,14.7929,443,5,
75.59,6.85059,17.5323,2.434,14.7929,443,5,
75.59,6.84998,17.5323,2.434,14.7929,443,5,
75.59,6.85059,17.5339,2.434,14.7929,443,5,
75.5901,6.85028,17.5323,2.434,14.7929,443,5,
75.5901,6.85028,17.5323,2.434,14.7929,443,5,
75.5901,6.84998,17.5308,2.434,14.7929,443,5,
75.5902,6.84937,17.5323,2.434,14.7929,443,5,
75.5902,6.84967,17.5323,2.434,14.7929,443,5,
75.5902,6.85059,17.5339,2.434,14.7929,443,5,
75.5903,6.85211,17.5354,2.434,14.7929,443,5,
75.5903,6.85486,17.5339,2.434,14.7929,443,5,
75.5903,6.85486,17.5339,2.434,14.7929,443,5,
75.5904,6.85394,17.5323,2.434,14.7929,443,5,
75.5904,6.85577,17.5339,2.434,14.7929,443,5,
75.5904,6.85577,17.5354,2.434,14.7929,443,5,
75.5905,6.85394,17.5308,2.434,14.7929,443,5,
75.5905,6.85547,17.5308,2.434,14.7929,443,5,
75.5905,6.85486,17.5323,2.434,14.7929,443,5,
75.5906,6.85455,17.5339,2.434,14.7929,443,5,
75.5906,6.85577,17.5415,2.434,14.7929,443,5,
75.5906,6.85455,17.5446,2.434,14.7929,443,5,
75.5907,6.85516,17.5446,2.434,14.7929,443,5,
75.5907,6.85944,17.5491,2.434,14.7929,443,5,
75.5907,6.86035,17.5461,2.434,14.7929,443,5,
75.5908,6.85974,17.543,2.434,14.7929,443,5,
75.5908,6.85974,17.5446,2.434,14.7929,443,5,
75.5908,6.85974,17.5446,2.434,14.7929,443,5,
75.5909,6.85883,17.5461,2.434,14.7929,443,5,
75.5909,6.86005,17.5446,2.434,14.7929,443,5,
75.5909,6.85974,17.5461,2.434,14.7929,443,5,
75.591,6.85944,17.5446,2.434,14.7929,443,5,
75.591,6.85974,17.5461,2.434,14.7929,443,5,
75.591,6.85974,17.543,2.434,14.7929,443,5,
75.5911,6.85974,17.5461,2.434,14.7929,443,5,
75.5911,6.86035,17.5446,2.434,14.7929,443,5,
75.5911,6.86371,17.5461,2.434,14.7929,443,5,
75.5912,6.86401,17.5446,2.434,14.7929,443,5,
75.5912,6.86523,17.5446,2.434,14.7929,443,5,
75.5912,6.86462,17.5446,2.434,14.7929,443,5,
75.5913,6.86462,17.5446,2.434,14.7929,443,5,
75.5913,6.86462,17.543,2.434,14.7929,443,5,
75.5913,6.86401,17.5446,2.434,14.7929,443,5,
75.5914,6.86493,17.5476,2.434,14.7929,443,5,
75.5914,6.86462,17.5461,2.434,14.7929,443,5,
75.5914,6.86523,17.5461,2.434,14.7929,443,5,
75.5915,6.86462,17.5461,2.434,14.7929,443,5,
75.5915,6.86432,17.543,2.434,14.7929,443,5,
75.5915,6.86401,17.5446,2.434,14.7929,443,5,
75.5916,6.86523,17.5446,2.434,14.7929,443,5,
75.5916,6.86951,17.5446,2.434,14.7929,443,5,
75.5916,6.8692,17.5476,2.434,14.7929,443,5,
75.5917,6.87012,17.543,2.434,14.7929,443,5,
75.5917,6.86981,17.5476,2.434,14.7929,443,5,
75.5917,6.86951,17.543,2.434,14.7929,443,5,
75.5918,6.8692,17.5446,2.434,14.7929,443,5,
75.5918,6.86981,17.543,2.434,14.7929,443,5,
75.5918,6.87012,17.5415,2.434,14.7929,443,5,
75.5919,6.86951,17.543,2.434,14.7929,443,5,
75.5919,6.86951,17.5446,2.434,14.7929,443,5,
75.5919,6.87012,17.5476,2.434,14.7929,443,5,
75.592,6.87012,17.5415,2.434,14.7929,443,5,
75.592,6.8689,17.5446,2.434,14.7929,443,5,
75.592,6.8692,17.5446,2.434,14.7929,443,5,
75.5921,6.86951,17.5446,2.434,14.7929,443,5,
75.5921,6.87469,17.5476,2.434,14.7929,443,5,
75.5921,6.87408,17.543,2.434,14.7929,443,5,
75.5922,6.87408,17.5446,2.434,14.7929,443,5,
75.5922,6.87469,17.543,2.434,14.7929,443,5,
75.5922,6.87439,17.5446,2.434,14.7929,443,5,
75.5923,6.87439,17.5446,2.434,14.7929,443,5,
75.5923,6.87469,17.543,2.434,14.7929,443,5,
75.5923,6.87439,17.5446,2.434,14.7929,443,5,
75.5924,6.87469,17.5461,2.434,14.7929,443,5,
75.5924,6.87469,17.5461,2.434,14.7929,443,5,
75.5924,6.87408,17.5461,2.434,14.7929,443,5,
75.5925,6.87439,17.5415,2.434,14.7929,443,5,
75.5925,6.87378,17.5446,2.434,14.7929,443,5,
75.5925,6.87439,17.5476,2.434,14.7929,443,5,
75.5926,6.87378,17.5461,2.434,14.7929,443,5,
75.5926,6.87378,17.543,2.434,14.7929,443,5,
75.5926,6.875,17.543,2.434,14.7929,443,5,
75.5927,6.87744,17.5446,2.434,14.7929,443,5,
75.5927,6.87866,17.5461,2.434,14.7929,443,5,
75.5927,6.87958,17.5476,2.434,14.7929,443,5,
75.5928,6.87897,17.5476,2.434,14.7929,443,5,
75.5928,6.87927,17.5415,2.434,14.7929,443,5,
75.5928,6.87866,17.543,2.434,14.7929,443,5,
75.5929,6.87958,17.5446,2.434,14.7929,443,5,
75.5929,6.87897,17.5476,2.434,14.7929,443,5,
75.5929,6.87958,17.5491,2.434,14.7929,443,5,
75.593,6.87897,17.5446,2.434,14.7929,443,5,
75.593,6.87927,17.5476,2.434,14.7929,443,5,
75.593,6.87897,17.5446,2.434,14.7929,443,5,
75.5931,6.87958,17.5446,2.434,14.7929,443,5,
75.5931,6.87866,17.5476,2.434,14.7929,443,5,
75.5931,6.87897,17.5446,2.434,14.7929,443,5,
75.5932,6.87988,17.543,2.434,14.7929,443,5,
75.5932,6.87927,17.5476,2.434,14.7929,443,5,
75.5932,6.87897,17.5446,2.434,14.7929,443,5,
75.5933,6.87958,17.5446,2.434,14.7929,443,5,
75.5933,6.88385,17.5476,2.434,14.7929,443,5,
75.5933,6.88538,17.5446,2.434,14.7929,443,5,
75.5934,6.88416,17.5491,2.434,14.7929,443,5,
75.5934,6.88446,17.5446,2.434,14.7929,443,5,
75.5934,6.88416,17.5461,2.434,14.7929,443,5,
75.5935,6.88385,17.5446,2.434,14.7929,443,5,
75.5935,6.88354,17.5446,2.434,14.7929,443,5,
75.5935,6.88385,17.543,2.434,14.7929,443,5,
75.5936,6.88385,17.5446,2.434,14.7929,443,5,
75.5936,6.88416,17.5446,2.434,14.7929,443,5,
75.5936,6.88416,17.543,2.434,14.7929,443,5,
75.5937,6.88354,17.5476,2.434,14.7929,443,5,
75.5937,6.88477,17.5446,2.434,14.7929,443,5,
75.5937,6.88416,17.543,2.434,14.7929,443,5,
75.5938,6.88385,17.5476,2.434,14.7929,443,5,
75.5938,6.88324,17.5446,2.434,14.7929,443,5,
75.5938,6.88354,17.5446,2.434,14.7929,443,5,
75.5939,6.88324,17.543,2.434,14.7929,443,5,
75.5939,6.88385,17.5476,2.434,14.7929,443,5,
75.5939,6.88385,17.5446,2.434,14.7929,443,5,
75.594,6.88385,17.5446,2.434,14.7929,443,5,
75.594,6.88782,17.5476,2.434,14.7929,443,5,
75.594,6.88965,17.543,2.434,14.7929,443,5,
75.5941,6.88904,17.543,2.434,14.7929,443,5,
75.5941,6.88873,17.5446,2.434,14.7929,443,5,
75.5941,6.88904,17.543,2.434,14.7929,443,5,
75.5942,6.88904,17.5491,2.434,14.7929,443,5,
75.5942,6.88904,17.5476,2.434,14.7929,443,5,
75.5942,6.88904,17.5461,2.434,14.7929,443,5,
75.5943,6.88934,17.5461,2.434,14.7929,443,5,
75.5943,6.88965,17.5461,2.434,14.7929,443,5,
75.5943,6.88965,17.5461,2.434,14.7929,443,5,
75.5944,6.88965,17.5446,2.434,14.7929,443,5,
75.5944,6.88995,17.543,2.434,14.7929,443,5,
75.5944,6.88995,17.5461,2.434,14.7929,443,5,
75.5945,6.88965,17.5446,2.434,14.7929,443,5,
75.5945,6.88965,17.5461,2.434,14.7929,443,5,
75.5945,6.88965,17.5446,2.434,14.7929,443,5,
75.5946,6.88904,17.543,2.434,14.7929,443,5,
75.5946,6.88873,17.5476,2.434,14.7929,443,5,
75.5946,6.88904,17.543,2.434,14.7929,443,5,
75.5947,6.88843,17.543,2.434,14.7929,443,5,
75.5947,6.88873,17.5446,2.434,14.7929,443,5,
75.5947,6.88873,17.5461,2.434,14.7929,443,5,
75.5948,6.88843,17.543,2.434,14.7929,443,5,
75.5948,6.88812,17.5446,2.434,14.7929,443,5,
75.5948,6.88965,17.5446,2.434,14.7929,443,5,
75.5949,6.88934,17.5461,2.434,14.7929,443,5,
75.5949,6.89331,17.5446,2.434,14.7929,443,5,
75.5949,6.89331,17.5461,2.434,14.7929,443,5,
75.595,6.89362,17.5446,2.434,14.7929,443,5,
75.595,6.89301,17.5415,2.434,14.7929,443,5,
75.595,6.89423,17.5461,2.434,14.7929,443,5,
75.5951,6.89392,17.5446,2.434,14.7929,443,5,
75.5951,6.89331,17.5446,2.434,14.7929,443,5,
75.5951,6.89453,17.5446,2.434,14.7929,443,5,
75.5952,6.89362,17.543,2.434,14.7929,443,5,
75.5952,6.89331,17.5446,2.434,14.7929,443,5,
75.5952,6.89423,17.5415,2.434,14.7929,443,5,
75.5953,6.89331,17.543,2.434,14.7929,443,5,
75.5953,6.89423,17.5476,2.434,14.7929,443,5,
75.5953,6.89362,17.5446,2.434,14.7929,443,5,
75.5954,6.89392,17.543,2.434,14.7929,443,5,
75.5954,6.89392,17.5415,2.434,14.7929,443,5,
75.5954,6.89362,17.543,2.434,14.7929,443,5,
75.5955,6.89423,17.543,2.434,14.7929,443,5,
75.5955,6.89392,17.5446,2.434,14.7929,443,5,
75.5955,6.89423,17.543,2.434,14.7929,443,5,
75.5956,6.89484,17.5461,2.434,14.7929,443,5,
75.5956,6.89362,17.5461,2.434,14.7929,443,5,
75.5956,6.89392,17.543,2.434,14.7929,443,5,
75.5957,6.89331,17.5461,2.434,14.7929,443,5,
75.5957,6.89331,17.543,2.434,14.7929,443,5,
75.5957,6.89362,17.5446,2.434,14.7929,443,5,
75.5958,6.89331,17.5461,2.434,14.7929,443,5,
75.5958,6.89392,17.5446,2.434,14.7929,443,5,
75.5958,6.89392,17.543,2.434,14.7929,443,5,
75.5959,6.89423,17.5415,2.434,14.7929,443,5,
75.5959,6.89362,17.5415,2.434,14.7929,443,5,
75.5959,6.89331,17.5476,2.434,14.7929,443,5,
75.596,6.89362,17.5415,2.434,14.7929,443,5,
75.596,6.89392,17.5476,2.434,14.7929,443,5,
75.596,6.89331,17.5446,2.434,14.7929,443,5,
75.5961,6.89423,17.5461,2.434,14.7929,443,5,
75.5961,6.89728,17.5446,2.434,14.7929,443,5,
75.5961,6.8988,17.5446,2.434,14.7929,443,5,
75.5962,6.89819,17.5476,2.434,14.7929,443,5,
75.5962,6.8985,17.543,2.434,14.7929,443,5,
75.5962,6.8988,17.5461,2.434,14.7929,443,5,
75.5963,6.89819,17.5461,2.434,14.7929,443,5,
75.5963,6.8988,17.5476,2.434,14.7929,443,5,
75.5963,6.8985,17.5446,2.434,14.7929,443,5,
75.5964,6.89911,17.54,2.434,14.7929,443,5,
75.5964,6.89819,17.5461,2.434,14.7929,443,5,
75.5964,6.89911,17.5476,2.434,14.7929,443,5,
75.5965,6.8988,17.5446,2.434,14.7929,443,5,
75.5965,6.89911,17.5476,2.434,14.7929,443,5,
75.5965,6.8988,17.5461,2.434,14.7929,443,5,
75.5966,6.8985,17.5476,2.434,14.7929,443,5,
75.5966,6.89911,17.5446,2.434,14.7929,443,5,
75.5966,6.8985,17.5446,2.434,14.7929,443,5,
75.5967,6.89819,17.5446,2.434,14.7929,443,5,
75.5967,6.8988,17.543,2.434,14.7929,443,5,
75.5967,6.89941,17.54,2.434,14.7929,443,5,
75.5968,6.89911,17.5461,2.434,14.7929,443,5,
75.5968,6.89911,17.5461,2.434,14.7929,443,5,
75.5968,6.8985,17.543,2.434,14.7929,443,5,
75.5969,6.89911,17.5446,2.434,14.7929,443,5,
75.5969,6.8985,17.5446,2.434,14.7929,443,5,
75.5969,6.89911,17.5461,2.434,14.7929,443,5,
75.597,6.89819,17.5415,2.434,14.7929,443,5,
75.597,6.89941,17.5461,2.434,14.7929,443,5,
75.597,6.89941,17.543,2.434,14.7929,443,5,
75.5971,6.89941,17.5446,2.434,14.7929,443,5,
75.5971,6.8988,17.5461,2.434,14.7929,443,5,
75.5971,6.89941,17.5461,2.434,14.7929,443,5,
75.5972,6.8988,17.5446,2.434,14.7929,443,5,
75.5972,6.89941,17.5476,2.434,14.7929,443,5,
75.5972,6.89911,17.5446,2.434,14.7929,443,5,
75.5973,6.89819,17.543,2.434,14.7929,443,5,
75.5973,6.89911,17.5461,2.434,14.7929,443,5,
75.5973,6.89941,17.5461,2.434,14.7929,443,5,
75.5974,6.89941,17.543,2.434,14.7929,443,5,
75.5974,6.8985,17.543,2.434,14.7929,443,5,
75.5974,6.89941,17.5461,2.434,14.7929,443,5,
75.5975,6.89911,17.543,2.434,14.7929,443,5,
75.5975,6.89911,17.5446,2.434,14.7929,443,5,
75.5975,6.89941,17.5446,2.434,14.7929,443,5,
75.5976,6.89911,17.5446,2.434,14.7929,443,5,
75.5976,6.89941,17.5415,2.434,14.7929,443,5,
75.5976,6.89911,17.543,2.434,14.7929,443,5,
75.5977,6.89941,17.5446,2.434,14.7929,443,5,
75.5977,6.8988,17.5446,2.434,14.7929,443,5,
75.5977,6.89911,17.5446,2.434,14.7929,443,5,
75.5978,6.8988,17.543,2.434,14.7929,443,5,
75.5978,6.89911,17.5461,2.434,14.7929,443,5,
75.5978,6.89972,17.5476,2.434,14.7929,443,5,
75.5979,6.8988,17.543,2.434,14.7929,443,5,
75.5979,6.89911,17.543,2.434,14.7929,443,5,
75.5979,6.8988,17.5461,2.434,14.7929,443,5,
75.598,6.89941,17.5446,2.434,14.7929,443,5,
75.598,6.89911,17.5446,2.434,14.7929,443,5,
75.598,6.89941,17.5446,2.434,14.7929,443,5,
75.5981,6.89819,17.543,2.434,14.7929,443,5,
75.5981,6.8988,17.5507,2.434,14.7929,443,5,
75.5981,6.8988,17.5446,2.434,14.7929,443,5,
75.5982,6.8985,17.5446,2.434,14.7929,443,5,
75.5982,6.89819,17.5446,2.434,14.7929,443,5,
75.5982,6.89819,17.5446,2.434,14.7929,443,5,
75.5983,6.8988,17.5446,2.434,14.7929,443,5,
75.5983,6.8988,17.5446,2.434,14.7929,443,5,
75.5983,6.8988,17.5461,2.434,14.7929,443,5,
75.5984,6.8988,17.5446,2.434,14.7929,443,5,
75.5984,6.89941,17.5568,2.434,14.7929,443,5,
75.5984,6.8988,17.5552,2.434,14.7929,443,5,
75.5985,6.89819,17.5537,2.434,14.7929,443,5,
75.5985,6.89941,17.5552,2.434,14.7929,443,5,
75.5985,6.8988,17.5583,2.434,14.7929,443,5,
75.5986,6.8988,17.5583,2.434,14.7929,443,5,
75.5986,6.89911,17.5583,2.434,14.7929,443,5,
75.5986,6.89911,17.5568,2.434,14.7929,443,5,
75.5987,6.8988,17.5552,2.434,14.7929,443,5,
75.5987,6.8985,17.5613,2.434,14.7929,443,5,
75.5987,6.8985,17.5583,2.434,14.7929,443,5,
75.5988,6.8985,17.5598,2.434,14.7929,443,5,
75.5988,6.8985,17.5552,2.434,14.7929,443,5,
75.5988,6.8985,17.5537,2.434,14.7929,443,5,
75.5989,6.8988,17.5568,2.434,14.7929,443,5,
75.5989,6.8988,17.5583,2.434,14.7929,443,5,
75.5989,6.8985,17.5598,2.434,14.7929,443,5,
75.599,6.8985,17.5583,2.434,14.7929,443,5,
75.599,6.89362,17.5552,0.406,14.7929,443,5,
75.599,6.89362,17.5598,0.406,14.7929,443,5,
75.5991,6.89392,17.5568,0.406,14.7929,443,5,
75.5991,6.89362,17.5568,0.406,14.7929,443,5,
75.5991,6.89301,17.5598,0.406,14.7929,443,5,
75.5992,6.89331,17.5598,0.406,14.7929,443,5,
75.5992,6.89362,17.5568,0.406,14.7929,443,5,
75.5992,6.89362,17.5583,0.406,14.7929,443,5,
75.5993,6.89331,17.5568,0.406,14.7929,443,5,
75.5993,6.89331,17.5583,0.406,14.7929,443,5,
75.5993,6.89392,17.5568,0.406,14.7929,443,5,
75.5994,6.89301,17.5568,0.406,14.7929,443,5,
75.5994,6.89362,17.5552,0.406,14.7929,443,5,
75.5994,6.89362,17.5552,0.406,14.7929,443,5,
75.5995,6.89392,17.5568,0.406,14.7929,443,5,
75.5995,6.89392,17.5568,0.406,14.7929,443,5,
75.5995,6.89362,17.5552,0.406,14.7929,443,5,
75.5996,6.89392,17.5552,0.406,14.7929,443,5,
75.5996,6.89362,17.5598,0.406,14.7929,444,5,
75.5996,6.89362,17.5568,0.406,14.7929,444,5,
75.5997,6.89301,17.5537,0.406,14.7929,444,5,
75.5997,6.89362,17.5583,0.406,14.7929,444,5,
75.5997,6.89331,17.5613,0.406,14.7929,444,5,
75.5998,6.89362,17.5568,0.406,14.7929,444,5,
75.5998,6.89331,17.5598,0.406,14.7929,444,5,
75.5998,6.89362,17.5583,0.406,14.7929,444,5,
75.5999,6.89362,17.5568,0.406,14.7929,444,5,
75.5999,6.89392,17.5583,0.406,14.7929,444,5,
75.5999,6.89392,17.5568,0.406,14.7929,444,5,
75.6,6.89392,17.5568,0.406,14.7929,444,5,
75.6,6.89362,17.5583,0.406,14.7929,444,5,
75.6,6.89392,17.5583,0.406,14.7929,444,5,
75.6001,6.89362,17.5583,0.406,14.7929,444,5,
75.6001,6.89453,17.5552,0.406,14.7929,444,5,
75.6001,6.89453,17.5552,0.406,14.7929,444,5,
75.6002,6.89392,17.5583,0.406,14.7929,444,5,
75.6002,6.89392,17.5552,0.406,14.7929,444,5,
75.6002,6.89331,17.5568,0.406,14.7929,444,5,
75.6003,6.89056,17.5583,0.406,14.7929,444,5,
75.6003,6.88904,17.5583,0.406,14.7929,444,5,
75.6003,6.88934,17.5552,0.406,14.7929,444,5,
75.6004,6.88904,17.5568,0.406,14.7929,444,5,
75.6004,6.88873,17.5568,0.406,14.7929,444,5,
75.6004,6.88904,17.5598,0.406,14.7929,444,5,
75.6005,6.88873,17.5583,0.406,14.7929,444,5,
75.6005,6.88843,17.5552,0.406,14.7929,444,5,
75.6005,6.88873,17.5552,0.406,14.7929,444,5,
75.6006,6.88873,17.5568,0.406,14.7929,444,5,
75.6006,6.88904,17.5537,0.406,14.7929,444,5,
75.6006,6.88904,17.5537,0.406,14.7929,444,5,
75.6007,6.88873,17.5583,0.406,14.7929,444,5,
75.6007,6.88843,17.5598,0.406,14.7929,444,5,
75.6007,6.88873,17.5583,0.406,14.7929,444,5,
75.6008,6.88843,17.5568,0.406,14.7929,444,5,
75.6008,6.88843,17.5598,0.406,14.7929,444,5,
75.6008,6.88904,17.5583,0.406,14.7929,444,5,
75.6009,6.88873,17.5568,0.406,14.7929,444,5,
75.6009,6.88904,17.5583,0.406,14.7929,444,5,
75.6009,6.88873,17.5598,0.406,14.7929,444,5,
75.601,6.88904,17.5568,0.406,14.7929,444,5,
75.601,6.88812,17.5583,0.406,14.7929,444,5,
75.601,6.88873,17.5598,0.406,14.7929,444,5,
75.6011,6.88873,17.5552,0.406,14.7929,444,5,
75.6011,6.88873,17.5583,0.406,14.7929,444,5,
75.6011,6.88812,17.5568,0.406,14.7929,444,5,
75.6012,6.88904,17.5568,0.406,14.7929,444,5,
75.6012,6.88904,17.5598,0.406,14.7929,444,5,
75.6012,6.88904,17.5568,0.406,14.7929,444,5,
75.6013,6.88873,17.5552,0.406,14.7929,444,5,
75.6013,6.88873,17.5568,0.406,14.7929,444,5,
75.6013,6.88354,17.5583,0.406,14.7929,444,5,
75.6014,6.88354,17.5583,0.406,14.7929,444,5,
75.6014,6.88324,17.5568,0.406,14.7929,444,5,
75.6014,6.88354,17.5537,0.406,14.7929,444,5,
75.6015,6.88416,17.5568,0.406,14.7929,444,5,
75.6015,6.88324,17.5537,0.406,14.7929,444,5,
75.6015,6.88385,17.5568,0.406,14.7929,444,5,
75.6016,6.88446,17.5552,0.406,14.7929,444,5,
75.6016,6.88385,17.5598,0.406,14.7929,444,5,
75.6016,6.88293,17.5583,0.406,14.7929,444,5,
75.6017,6.88446,17.5583,0.406,14.7929,444,5,
75.6017,6.88354,17.5583,0.406,14.7929,444,5,
75.6017,6.88354,17.5583,0.406,14.7929,444,5,
75.6018,6.88354,17.5598,0.406,14.7929,444,5,
75.6018,6.88416,17.5552,0.406,14.7929,444,5,
75.6018,6.88385,17.5583,0.406,14.7929,444,5,
75.6019,6.88385,17.5568,0.406,14.7929,444,5,
75.6019,6.88354,17.5568,0.406,14.7929,444,5,
75.6019,6.88354,17.5552,0.406,14.7929,444,5,
75.602,6.88446,17.5583,0.406,14.7929,444,5,
75.602,6.88385,17.5568,0.406,14.7929,444,5,
75.602,6.88385,17.5583,0.406,14.7929,444,5,
75.6021,6.88354,17.5552,0.406,14.7929,444,5,
75.6021,6.88385,17.5583,0.406,14.7929,444,5,
75.6021,6.88416,17.5568,0.406,14.7929,444,5,
75.6022,6.88385,17.5568,0.406,14.7929,444,5,
75.6022,6.88385,17.5583,0.406,14.7929,444,5,
75.6022,6.87897,17.5735,0.406,14.7929,444,5,
75.6023,6.87866,17.572,0.406,14.7929,444,5,
75.6023,6.87927,17.5705,0.406,14.7929,444,5,
75.6023,6.87927,17.569,0.406,14.7929,444,5,
75.6024,6.87958,17.572,0.406,14.7929,444,5,
75.6024,6.87866,17.569,0.406,14.7929,444,5,
75.6024,6.87897,17.569,0.406,14.7929,444,5,
75.6025,6.87958,17.5705,0.406,14.7929,444,5,
75.6025,6.87866,17.569,0.406,14.7929,444,5,
75.6025,6.87897,17.569,0.406,14.7929,444,5,
75.6026,6.87866,17.569,0.406,14.7929,444,5,
75.6026,6.87897,17.5674,0.406,14.7929,444,5,
75.6026,6.87927,17.569,0.406,14.7929,444,5,
75.6027,6.87866,17.569,0.406,14.7929,444,5,
75.6027,6.87897,17.572,0.406,14.7929,444,5,
75.6027,6.87897,17.569,0.406,14.7929,444,5,
75.6028,6.87897,17.569,0.406,14.7929,444,5,
75.6028,6.87958,17.5659,0.406,14.7929,444,5,
75.6028,6.87836,17.569,0.406,14.7929,444,5,
75.6029,6.87927,17.5659,0.406,14.7929,444,5,
75.6029,6.87927,17.5705,0.406,14.7929,444,5,
75.6029,6.87958,17.5674,0.406,14.7929,444,5,
75.603,6.87927,17.5705,0.406,14.7929,444,5,
75.603,6.87927,17.572,0.406,14.7929,444,5,
75.603,6.87927,17.569,0.406,14.7929,444,5,
75.6031,6.87439,17.5674,0.406,14.7929,444,5,
75.6031,6.87439,17.5705,0.406,14.7929,444,5,
75.6031,6.87408,17.5674,0.406,14.7929,444,5,
75.6032,6.87469,17.569,0.406,14.7929,444,5,
75.6032,6.87439,17.5705,0.406,14.7929,444,5,
75.6032,6.87408,17.569,0.406,14.7929,444,5,
75.6033,6.87408,17.569,0.406,14.7929,444,5,
75.6033,6.87439,17.5674,0.406,14.7929,444,5,
75.6033,6.87439,17.5659,0.406,14.7929,444,5,
75.6034,6.87469,17.5674,0.406,14.7929,444,5,
75.6034,6.87378,17.572,0.406,14.7929,444,5,
75.6034,6.87378,17.572,0.406,14.7929,444,5,
75.6035,6.87408,17.5674,0.406,14.7929,444,5,
75.6035,6.87439,17.569,0.406,14.7929,444,5,
75.6035,6.87439,17.5674,0.406,14.7929,444,5,
75.6036,6.87378,17.5659,0.406,14.7929,444,5,
75.6036,6.87378,17.572,0.406,14.7929,444,5,
75.6036,6.87378,17.5674,0.406,14.7929,444,5,
75.6037,6.87439,17.569,0.406,14.7929,444,5,
75.6037,6.87378,17.5705,0.406,14.7929,444,5,
75.6037,6.87408,17.572,0.406,14.7929,444,5,
75.6038,6.87439,17.5674,0.406,14.7929,444,5,
75.6038,6.87439,17.569,0.406,14.7929,444,5,
75.6038,6.87439,17.5705,0.406,14.7929,444,5,
75.6039,6.87439,17.569,0.406,14.7929,444,5,
75.6039,6.87012,17.5644,0.406,14.7929,444,5,
75.6039,6.86951,17.569,0.406,14.7929,444,5,
75.604,6.86981,17.5705,0.406,14.7929,444,5,
75.604,6.8692,17.5674,0.406,14.7929,444,5,
75.604,6.86951,17.569,0.406,14.7929,444,5,
75.6041,6.86981,17.569,0.406,14.7929,444,5,
75.6041,6.86981,17.5705,0.406,14.7929,444,5,
75.6041,6.8692,17.569,0.406,14.7929,444,5,
75.6042,6.86951,17.572,0.406,14.7929,444,5,
75.6042,6.87042,17.5705,0.406,14.7929,444,5,
75.6042,6.86859,17.5674,0.406,14.7929,444,5,
75.6043,6.86951,17.569,0.406,14.7929,444,5,
75.6043,6.86951,17.5705,0.406,14.7929,444,5,
75.6043,6.8692,17.5674,0.406,14.7929,444,5,
75.6044,6.87012,17.572,0.406,14.7929,444,5,
75.6044,6.8689,17.569,0.406,14.7929,444,5,
75.6044,6.87042,17.5705,0.406,14.7929,444,5,
75.6045,6.8692,17.5705,0.406,14.7929,444,5,
75.6045,6.87012,17.5674,0.406,14.7929,444,5,
75.6045,6.87012,17.5659,0.406,14.7929,444,5,
75.6046,6.86981,17.569,0.406,14.7929,444,5,
75.6046,6.87012,17.5705,0.406,14.7929,444,5,
75.6046,6.87012,17.5705,0.406,14.7929,444,5,
75.6047,6.86951,17.569,0.406,14.7929,444,5,
75.6047,6.86951,17.5705,0.406,14.7929,444,5,
75.6047,6.86493,17.5705,0.406,14.7929,444,5,
75.6048,6.86462,17.5705,0.406,14.7929,444,5,
75.6048,6.86523,17.569,0.406,14.7929,444,5,
75.6048,6.86493,17.569,0.406,14.7929,444,5,
75.6049,6.86554,17.569,0.406,14.7929,444,5,
75.6049,6.86462,17.5659,0.406,14.7929,444,5,
75.6049,6.86493,17.569,0.406,14.7929,444,5,
75.605,6.86554,17.5674,0.406,14.7929,444,5,
75.605,6.86554,17.572,0.406,14.7929,444,5,
75.605,6.86401,17.572,0.406,14.7929,444,5,
75.6051,6.86523,17.5705,0.406,14.7929,444,5,
75.6051,6.86462,17.5705,0.406,14.7929,444,5,
75.6051,6.86493,17.5659,0.406,14.7929,444,5,
75.6052,6.86462,17.5705,0.406,14.7929,444,5,
75.6052,6.86462,17.5705,0.406,14.7929,444,5,
75.6052,6.86462,17.5674,0.406,14.7929,444,5,
75.6053,6.86523,17.5705,0.406,14.7929,444,5,
75.6053,6.86462,17.5781,0.406,14.7929,444,5,
75.6053,6.86523,17.5797,0.406,14.7929,444,5,
75.6054,6.86432,17.5781,0.406,14.7929,444,5,
75.6054,6.86432,17.5827,0.406,14.7929,444,5,
75.6054,6.86462,17.5797,0.406,14.7929,444,5,
75.6055,6.86493,17.5812,0.406,14.7929,444,5,
75.6055,6.86432,17.5827,0.406,14.7929,444,5,
75.6055,6.86035,17.5812,0.406,14.7929,444,5,
75.6056,6.85944,17.5827,0.406,14.7929,444,5,
75.6056,6.86005,17.5812,0.406,14.7929,444,5,
75.6056,6.85944,17.5827,0.406,14.7929,444,5,
75.6057,6.85913,17.5781,0.406,14.7929,444,5,
75.6057,6.85974,17.5812,0.406,14.7929,444,5,
75.6057,6.85913,17.5812,0.406,14.7929,444,5,
75.6058,6.85944,17.5827,0.406,14.7929,444,5,
75.6058,6.85944,17.5827,0.406,14.7929,444,5,
75.6058,6.85913,17.5827,0.406,14.7929,444,5,
75.6059,6.86035,17.5781,0.406,14.7929,444,5,
75.6059,6.85944,17.5812,0.406,14.7929,444,5,
75.6059,6.85974,17.5812,0.406,14.7929,444,5,
75.606,6.85974,17.5812,0.406,14.7929,444,5,
75.606,6.85974,17.5812,0.406,14.7929,444,5,
75.606,6.86035,17.5827,0.406,14.7929,444,5,
75.6061,6.85974,17.5842,0.406,14.7929,444,5,
75.6061,6.85974,17.5827,0.406,14.7929,444,5,
75.6061,6.85974,17.5827,0.406,14.7929,444,5,
75.6062,6.85944,17.5812,0.406,14.7929,444,5,
75.6062,6.85883,17.5812,0.406,14.7929,444,5,
75.6062,6.86005,17.5812,0.406,14.7929,444,5,
75.6063,6.85547,17.5812,0.406,14.7929,444,5,
75.6063,6.85486,17.5858,0.406,14.7929,444,5,
75.6063,6.85455,17.5812,0.406,14.7929,444,5,
75.6064,6.85425,17.5781,0.406,14.7929,444,5,
75.6064,6.85547,17.5827,0.406,14.7929,444,5,
75.6064,6.85486,17.5812,0.406,14.7929,444,5,
75.6065,6.85425,17.5797,0.406,14.7929,444,5,
75.6065,6.85516,17.5812,0.406,14.7929,444,5,
75.6065,6.85577,17.5827,0.406,14.7929,444,5,
75.6066,6.85516,17.5812,0.406,14.7929,444,5,
75.6066,6.85516,17.5812,0.406,14.7929,444,5,
75.6066,6.85516,17.5842,0.406,14.7929,444,5,
75.6067,6.85516,17.5781,0.406,14.7929,444,5,
75.6067,6.85455,17.5812,0.406,14.7929,444,5,
75.6067,6.85547,17.5827,0.406,14.7929,444,5,
75.6068,6.85608,17.5842,0.406,14.7929,444,5,
75.6068,6.85547,17.5827,0.406,14.7929,444,5,
75.6068,6.85577,17.5827,0.406,14.7929,444,5,
75.6069,6.85577,17.5827,0.406,14.7929,444,5,
75.6069,6.85547,17.5812,0.406,14.7929,444,5,
75.6069,6.85455,17.5766,0.406,14.7929,444,5,
75.607,6.85089,17.5812,0.406,14.7929,444,5,
75.607,6.85028,17.5781,0.406,14.7929,444,5,
75.607,6.84967,17.5858,0.406,14.7929,444,5,
75.6071,6.85089,17.5873,0.406,14.7929,444,5,
75.6071,6.84967,17.5812,0.406,14.7929,444,5,
75.6071,6.84937,17.5827,0.406,14.7929,444,5,
75.6072,6.85059,17.5797,0.406,14.7929,444,5,
75.6072,6.84937,17.5827,0.406,14.7929,444,5,
75.6072,6.84998,17.5812,0.406,14.7929,444,5,
75.6073,6.85028,17.5827,0.406,14.7929,444,5,
75.6073,6.84906,17.5827,0.406,14.7929,444,5,
75.6073,6.84937,17.5812,0.406,14.7929,444,5,
75.6074,6.84937,17.5842,0.406,14.7929,444,5,
75.6074,6.84906,17.5827,0.406,14.7929,444,5,
75.6074,6.84906,17.5812,0.406,14.7929,444,5,
75.6075,6.84937,17.5812,0.406,14.7929,444,5,
75.6075,6.84998,17.5827,0.406,14.7929,444,5,
75.6075,6.84937,17.5842,0.406,14.7929,444,5,
75.6076,6.84967,17.5827,0.406,14.7929,444,5,
75.6076,6.84692,17.5812,0.406,14.7929,444,5,
75.6076,6.8454,17.5827,0.406,14.7929,444,5,
75.6077,6.84509,17.5812,0.406,14.7929,444,5,
75.6077,6.84479,17.5842,0.406,14.7929,444,5,
75.6077,6.84448,17.5812,0.406,14.7929,444,5,
75.6078,6.84448,17.5812,0.406,14.7929,444,5,
75.6078,6.84448,17.5781,0.406,14.7929,444,5,
75.6078,6.84509,17.5797,0.406,14.7929,444,5,
75.6079,6.84448,17.5827,0.406,14.7929,444,5,
75.6079,6.84479,17.5812,0.406,14.7929,444,5,
75.6079,6.8454,17.5812,0.406,14.7929,444,5,
75.608,6.84479,17.5842,0.406,14.7929,444,5,
75.608,6.84479,17.5842,0.406,14.7929,444,5,
75.608,6.8454,17.5797,0.406,14.7929,444,5,
75.6081,6.84509,17.5827,0.406,14.7929,444,5,
75.6081,6.84509,17.5812,0.406,14.7929,444,5,
75.6081,6.84479,17.5797,0.406,14.7929,444,5,
75.6082,6.84509,17.5812,0.406,14.7929,444,5,
75.6082,6.84509,17.5842,0.406,14.7929,444,5,
75.6082,6.84479,17.5842,0.406,14.7929,444,5,
75.6083,6.8399,17.5797,0.406,14.7929,444,5,
75.6083,6.84052,17.5812,0.406,14.7929,444,5,
75.6083,6.8399,17.5858,0.406,14.7929,444,5,
75.6084,6.83929,17.5827,0.406,14.7929,444,5,
75.6084,6.84052,17.5797,0.406,14.7929,444,5,
75.6084,6.84021,17.5797,0.406,14.7929,444,5,
75.6085,6.84021,17.5812,0.406,14.7929,444,5,
75.6085,6.8399,17.5873,0.406,14.7929,444,5,
75.6085,6.84052,17.5827,0.406,14.7929,444,5,
75.6086,6.8399,17.5812,0.406,14.7929,444,5,
75.6086,6.84021,17.5873,0.406,14.7929,444,5,
75.6086,6.8396,17.5919,0.406,14.7929,444,5,
