2700-SECPT.acq
200 msec/sample
6 channels
RSP, X, RSPEC-R
Volts
EDA, Y, PPGED-R
microsiemens
ECG R-R
Seconds
Respiration Rate
BPM
C7 - EDR
Peaks
C14 - Control
Volts
min,CH1,CH14,CH40,CH42,CH47,CH54,
,911,911,911,911,911,911,
225.17,4.81293,4.39148,2.408,17.0455,432,5,
225.173,4.81354,4.38995,2.408,17.0455,432,5,
225.177,4.6759,4.37775,2.408,17.0455,432,5,
225.18,4.50531,4.37775,2.408,17.0455,432,5,
225.183,4.24988,4.36554,2.408,17.0455,432,5,
225.187,3.85559,4.35486,2.408,17.0455,432,5,
225.19,3.19153,4.35486,0,17.0455,432,5,
225.193,2.97028,4.34418,0,17.0455,432,5,
225.197,3.35236,4.34113,0,17.0455,432,5,
225.2,3.81989,4.3396,0,17.0455,432,5,
225.203,4.15527,4.34265,0,17.0455,432,5,
225.207,4.33258,4.36707,0,17.0455,432,5,
225.21,4.41101,4.37775,0,17.0455,432,5,
225.213,4.46014,4.40369,0,17.0455,432,5,
225.217,4.53857,4.41742,0,17.0455,432,5,
225.22,4.60724,4.44336,0,17.0455,432,5,
225.223,4.67133,4.46472,2.768,17.0455,432,5,
225.227,4.81384,4.4754,2.768,17.0455,432,5,
225.23,4.81842,4.5044,2.768,17.0455,432,5,
225.233,4.64691,4.5166,2.768,17.0455,432,5,
225.237,4.2984,4.53796,0,17.0455,432,5,
225.24,3.93341,4.56238,0,17.0455,432,5,
225.243,3.64655,4.5639,0,17.0455,432,5,
225.247,3.41156,4.57916,0,17.0455,432,5,
225.25,3.23975,4.57306,0,17.0455,432,5,
225.253,3.1134,4.57306,3.198,17.0455,432,0,
225.257,2.9657,4.57306,0.376,17.0455,432,0,
225.26,2.87201,4.57459,0.376,17.0455,432,0,
225.263,2.83356,4.57611,0.376,17.0455,432,0,
225.267,2.82318,4.56238,0.376,17.0455,432,0,
225.27,2.79388,4.56696,0.376,17.0455,432,0,
225.273,2.7652,4.55322,0.376,17.0455,432,0,
225.277,2.79205,4.54712,0.376,17.0455,433,0,
225.28,2.91168,4.54865,0.376,17.0455,433,0,
225.283,3.06396,4.53644,0.376,17.0455,433,0,
225.287,3.2843,4.53796,0.376,17.0455,433,0,
225.29,3.53149,4.52271,0.376,17.0455,433,5,
225.293,3.69568,4.52728,0.376,17.0455,433,5,
225.297,3.76373,4.51202,1.918,17.0455,433,5,
225.3,3.79303,4.51355,1.918,17.0455,433,5,
225.303,3.76892,4.49982,1.918,17.0455,433,5,
225.307,3.66608,4.49829,1.918,17.0455,433,5,
225.31,3.58704,4.48608,1.918,17.0455,433,5,
225.313,3.52631,4.48761,1.918,17.0455,433,5,
225.317,3.4021,4.47846,1.918,17.0455,433,5,
225.32,3.4436,4.4632,1.902,17.0455,433,5,
225.323,3.6911,4.46472,1.902,17.0455,433,5,
225.327,3.91388,4.45404,1.902,17.0455,433,5,
225.33,4.24438,4.45099,1.902,17.0455,433,5,
225.333,4.57153,4.44031,1.902,17.0455,433,5,
225.337,4.64142,4.44031,0.612,17.0455,433,5,
225.34,4.53888,4.42505,0.612,17.0455,433,5,
225.343,4.36188,4.4281,0.612,17.0455,433,5,
225.347,4.19586,4.41589,0.612,17.0455,433,5,
225.35,3.99475,4.40521,0.612,17.0455,433,5,
225.353,3.82812,4.39148,0.612,17.0455,433,5,
225.357,3.66608,4.38995,0.612,17.0455,433,5,
225.36,3.56354,4.37775,0.612,17.0455,433,0,
225.363,3.47504,4.37775,0.612,17.0455,433,0,
225.367,3.41125,4.36401,0.612,17.0455,433,0,
225.37,3.48053,4.35028,0,17.0455,433,0,
225.373,3.67493,4.34113,0,17.0455,433,0,
225.377,3.95386,4.34265,0,17.0455,433,0,
225.38,4.23889,4.32587,0,17.0455,433,0,
225.383,4.4696,4.31671,0,17.0455,433,0,
225.387,4.60754,4.31671,0,17.0455,433,0,
225.39,4.63104,4.30603,2.892,17.0455,433,0,
225.393,4.55322,4.29077,2.892,17.0455,433,0,
225.397,4.41559,4.2923,2.892,17.0455,433,5,
225.4,4.24408,4.2923,2.892,17.0455,433,5,
225.403,4.02924,4.27704,2.892,0,433,5,
225.407,3.85773,4.26483,2.892,0,433,5,
225.41,3.72498,4.26788,2.892,0,433,5,
225.413,3.56567,4.26636,2.892,0,433,5,
225.417,3.46527,4.25415,2.268,0,433,5,
225.42,3.44116,4.25568,2.268,3.74111,433,0,
225.423,3.42072,4.245,2.268,3.74111,433,0,
225.427,3.37219,4.24194,0.362,3.74111,433,0,
225.43,3.39691,4.22058,0.362,3.74111,433,0,
225.433,3.6026,4.21906,0.362,3.74111,433,0,
225.437,3.92914,4.22211,0.362,3.74111,433,0,
225.44,4.18091,4.216,0.362,3.74111,433,0,
225.443,4.31366,4.20837,0.362,3.74111,433,5,
225.447,4.29749,4.20532,0.746,3.74111,433,5,
225.45,4.13666,4.2038,0.746,3.74111,433,5,
225.453,3.98956,4.20532,0.746,3.74111,433,5,
225.457,3.87726,4.20532,0.746,3.74111,433,5,
225.46,3.72528,4.21143,0.746,3.74111,433,5,
225.463,3.5733,4.20532,0.746,3.74111,433,5,
225.467,3.45245,4.19312,0.746,3.74111,433,5,
225.47,3.38745,4.19312,0.746,3.74111,433,5,
225.473,3.34259,4.17938,2.27,3.74111,433,5,
225.477,3.3432,4.18396,2.27,3.74111,433,5,
225.48,3.35754,4.18091,2.27,3.74111,433,5,
225.483,3.34778,4.16718,0.438,3.74111,433,5,
225.487,3.34808,4.17175,0.438,3.74111,433,5,
225.49,3.3725,4.1565,0.432,3.74111,433,5,
225.493,3.38684,4.15955,0.356,3.74111,433,5,
225.497,3.46619,4.14429,0.356,3.74111,433,5,
225.5,3.73505,4.13056,0.356,3.74111,433,5,
225.503,4.01917,4.13056,0.356,3.74111,433,5,
225.507,4.20532,4.1214,0.356,3.74111,433,5,
225.51,4.27368,4.11987,0.422,3.74111,433,5,
225.513,4.18091,4.10767,0.422,12.1902,433,5,
225.517,3.99902,4.10919,0.422,12.1902,433,5,
225.52,3.78784,4.10767,0.422,12.1902,433,5,
225.523,3.55347,4.09851,0.422,12.1902,433,5,
225.527,3.39264,4.09088,0.422,12.1902,433,5,
225.53,3.33344,4.08478,0.422,12.1902,433,5,
225.533,3.29376,4.08478,0.422,12.1902,433,5,
225.537,3.25531,4.08325,0.422,12.1902,433,5,
225.54,3.255,4.06952,2.262,12.1902,433,5,
225.543,3.29895,4.0741,2.262,12.1902,433,0,
225.547,3.3374,4.07105,2.262,12.1902,433,0,
225.55,3.43109,4.06036,2.262,12.1902,433,0,
225.553,3.68164,4.05579,2.262,12.1902,433,0,
225.557,4.0387,4.05426,2.262,12.1902,433,0,
225.56,4.33777,4.06036,2.262,12.1902,433,0,
225.563,4.51385,4.06036,2.262,17.8998,433,0,
225.567,4.60693,4.05731,2.262,17.8998,433,5,
225.57,4.60663,4.05884,1.09,17.8998,433,5,
225.573,4.51416,4.06189,1.09,17.8998,433,5,
225.577,4.42108,4.05579,1.09,17.8998,433,5,
225.58,4.30817,4.05884,1.09,17.8998,433,5,
225.583,4.12659,4.05884,1.09,17.8998,433,5,
225.587,3.94562,4.05579,1.09,17.8998,433,5,
225.59,3.7793,4.06036,1.09,17.8998,433,5,
225.593,3.60657,4.06189,0,17.8998,433,5,
225.597,3.41766,4.06036,0,17.8998,433,5,
225.6,3.30841,4.06036,2.556,17.8998,433,5,
225.603,3.28918,4.05731,2.556,17.8998,433,0,
225.607,3.27911,4.05884,2.556,17.8998,433,0,
225.61,3.27454,4.05884,2.556,17.8998,433,0,
225.613,3.34167,4.05884,2.556,17.8998,433,5,
225.617,3.55286,4.06036,2.556,17.8998,433,5,
225.62,3.82233,4.06036,2.556,17.8998,433,5,
225.623,4.09271,4.06036,2.556,17.8998,433,5,
225.627,4.31274,4.05579,2.556,15.9067,433,5,
225.63,4.37622,4.04816,2.556,15.9067,433,5,
225.633,4.35791,4.04663,2.556,15.9067,433,5,
225.637,4.31244,4.04816,1.216,15.9067,433,5,
225.64,4.19739,4.03595,1.216,15.9067,433,5,
225.643,4.03839,4.03137,1.216,15.9067,433,5,
225.647,3.9212,4.03595,1.216,15.9067,433,5,
225.65,3.73016,4.02222,1.216,15.9067,433,5,
225.653,3.50861,4.01917,1.216,15.9067,433,5,
225.657,3.36792,4.00696,0,15.9067,433,5,
225.66,3.30872,4.01001,2.34,15.9067,433,0,
225.663,3.27423,4.00848,2.34,15.9067,433,0,
225.667,3.23517,4.00086,0.334,15.9067,433,0,
225.67,3.24951,3.9978,0.334,15.9067,433,0,
225.673,3.36731,3.9856,0.334,15.9067,433,0,
225.677,3.60168,3.98407,0.334,15.9067,433,0,
225.68,3.79303,3.9856,0.334,15.9067,433,0,
225.683,3.95538,3.97186,0.334,17.7096,433,0,
225.687,4.07837,3.96118,0.334,17.7096,433,0,
225.69,4.05762,3.96118,0.714,17.7096,433,0,
225.693,3.9209,3.95966,0.714,17.7096,433,0,
225.697,3.75458,3.94898,0.714,17.7096,433,0,
225.7,3.5733,3.94745,0.714,17.7096,433,0,
225.703,3.31299,3.95203,0.714,17.7096,433,0,
225.707,3.11768,3.94898,0.714,17.7096,433,0,
225.71,3.02429,3.93677,0.714,17.7096,433,0,
225.713,2.84851,3.93677,0,17.7096,433,0,
225.717,2.68158,3.91998,2.474,17.7096,433,0,
225.72,2.8653,3.91235,2.474,17.7096,433,0,
225.723,3.27942,3.90778,2.474,17.7096,433,5,
225.727,3.71094,3.90015,2.474,17.7096,433,5,
225.73,4.14581,3.90167,2.474,17.7096,433,5,
225.733,4.52942,3.89862,2.474,17.7096,433,5,
225.737,4.76868,3.88641,2.474,17.7096,433,5,
225.74,4.87183,3.88641,2.474,18.8679,433,5,
225.743,4.92554,3.87726,2.474,18.8679,433,5,
225.747,4.96979,3.87573,2.474,18.8679,433,5,
225.75,4.98962,3.87726,2.474,18.8679,433,5,
225.753,5.01953,3.87421,2.474,18.8679,433,5,
225.757,4.95026,3.86353,0.416,18.8679,433,5,
225.76,4.60724,3.86047,0.416,18.8679,433,5,
225.763,4.22974,3.86047,0,18.8679,433,5,
225.767,3.92609,3.86353,0,18.8679,433,5,
225.77,3.70239,3.86658,0,18.8679,433,0,
225.773,3.49945,3.88641,0,18.8679,433,0,
225.777,3.32794,3.9032,3.184,18.8679,433,0,
225.78,3.21503,3.9505,3.184,18.8679,433,0,
225.783,3.14667,3.98712,3.184,18.8679,433,0,
225.787,3.05878,4.02222,3.184,18.8679,433,0,
225.79,2.97089,4.06189,3.184,18.8679,433,0,
225.793,2.9068,4.09699,3.184,18.8679,433,0,
225.797,2.86774,4.1214,3.184,18.8679,433,0,
225.8,2.79419,4.13361,3.184,18.8679,433,0,
225.803,2.74445,4.15497,3.184,18.8679,433,0,
225.807,2.73468,4.1565,3.184,18.8679,433,0,
225.81,2.7356,4.17328,3.184,18.8679,433,0,
225.813,2.72583,4.18091,3.184,18.8679,433,0,
225.817,2.7597,4.18244,0,18.8679,433,0,
225.82,2.95105,4.18244,0,18.8679,433,0,
225.823,3.22571,4.19464,0,18.8679,433,0,
225.827,3.43109,4.20837,0,18.8679,433,0,
225.83,3.54675,4.20532,2.688,18.8679,433,5,
225.833,3.5788,4.2038,2.688,18.8679,433,5,
225.837,3.53882,4.20685,2.688,18.8679,433,5,
225.84,3.49976,4.19617,2.688,18.8679,433,5,
225.843,3.50006,4.18244,2.688,18.8679,433,5,
225.847,3.49487,4.18244,2.688,18.8679,434,5,
225.85,3.4848,4.17175,2.688,18.8679,434,5,
225.853,3.48999,4.15802,2.688,18.8679,434,5,
225.857,3.49976,4.14581,2.688,18.8679,434,5,
225.86,3.46954,4.13361,0,18.8679,434,5,
225.863,3.40637,4.1214,0,18.8679,434,5,
225.867,3.30841,4.10767,0,18.8679,434,5,
225.87,3.10852,4.09699,0,18.8679,434,5,
225.873,2.88696,4.08325,0,18.8679,434,5,
225.877,2.74963,4.06952,0,18.8679,434,5,
225.88,2.69135,4.05884,3.392,18.8679,434,0,
225.883,2.64679,4.04816,3.392,18.8679,434,0,
225.887,2.61261,4.02985,0.338,18.8679,434,0,
225.89,2.67181,4.02222,0.338,18.8679,434,0,
225.893,2.88239,4.01154,0.338,18.8679,434,0,
225.897,3.11707,4.01154,0.338,18.8679,434,0,
225.9,3.26477,3.9978,0.338,18.8679,434,0,
225.903,3.38715,3.9856,0.338,18.8679,434,0,
225.907,3.50037,3.9856,0.338,18.8679,434,0,
225.91,3.52417,3.97186,0.6,18.8679,434,0,
225.913,3.41614,3.97186,0.6,18.8679,434,0,
225.917,3.27423,3.97492,0.6,18.8679,434,5,
225.92,3.0838,3.97644,0.6,18.8679,434,5,
225.923,2.83295,3.97034,0.6,18.8679,434,5,
225.927,2.65198,3.97644,0.6,18.8679,434,5,
225.93,2.5592,3.97492,0.6,18.8679,434,5,
225.933,2.50977,3.97492,2.274,18.8679,434,5,
225.937,2.42676,3.97492,2.274,18.8679,434,5,
225.94,2.4173,3.97492,0.338,18.8679,434,5,
225.943,2.46155,3.97339,0.338,18.8679,434,5,
225.947,2.45148,3.97339,0.338,18.8679,434,5,
225.95,2.59766,3.97339,0.338,18.8679,434,5,
225.953,2.94617,3.97644,0.338,18.8679,434,5,
225.957,3.27484,3.97186,0.338,18.8679,434,5,
225.96,3.39691,3.96423,0.338,4.4359,434,5,
225.963,3.39203,3.95966,0.338,4.4359,434,5,
225.967,3.33801,3.94898,1.002,4.4359,434,5,
225.97,3.27393,3.94898,1.002,4.4359,434,5,
225.973,3.26935,3.93829,1.002,4.4359,434,5,
225.977,3.29865,3.93982,1.002,4.4359,434,5,
225.98,3.31299,3.91388,1.002,4.4359,434,5,
225.983,3.29895,3.91541,1.002,4.4359,434,5,
225.987,3.25012,3.90167,1.002,4.4359,434,5,
225.99,3.10272,3.90015,1.002,4.4359,434,5,
225.993,2.90192,3.89099,0,4.4359,434,5,
225.997,2.75024,3.87879,0,4.4359,434,5,
226,2.60345,3.87573,0,4.4359,434,5,
226.003,2.50549,3.86353,2.91,4.4359,434,5,
226.007,2.40173,3.862,2.91,4.4359,434,5,
226.01,2.25708,3.85285,2.91,4.4359,434,5,
226.013,2.22076,3.85285,2.91,4.4359,434,0,
226.017,2.3584,3.84064,2.91,4.4359,434,0,
226.02,2.71973,3.83759,2.91,4.4359,434,0,
226.023,3.1662,3.82843,2.91,4.4359,434,0,
226.027,3.50006,3.82843,2.91,4.4359,434,0,
226.03,3.63647,3.81622,2.91,14.771,434,0,
226.033,3.66638,3.81317,2.91,14.771,434,0,
226.037,3.64655,3.80554,2.91,14.771,434,0,
226.04,3.54889,3.80249,1.152,14.771,434,0,
226.043,3.39172,3.80402,1.152,14.771,434,0,
226.047,3.26019,3.80402,1.152,14.771,434,0,
226.05,3.17657,3.78876,1.152,14.771,434,0,
226.053,3.05908,3.79334,1.152,14.771,434,0,
226.057,2.89154,3.78113,1.152,14.771,434,0,
226.06,2.76978,3.77808,0,14.771,434,5,
226.063,2.68066,3.77503,2.43,14.771,434,5,
226.067,2.55432,3.76587,2.43,14.771,434,5,
226.07,2.47589,3.76587,2.43,14.771,434,5,
226.073,2.4704,3.76587,2.43,14.771,434,5,
226.077,2.46124,3.75519,2.43,14.771,434,5,
226.08,2.38739,3.75214,2.43,14.771,434,5,
226.083,2.40753,3.75366,2.43,14.771,434,5,
226.087,2.57385,3.75671,2.43,14.771,434,5,
226.09,2.86743,3.73993,2.43,14.771,434,5,
226.093,3.24036,3.74451,2.43,14.771,434,5,
226.097,3.52905,3.74146,2.43,14.245,434,5,
226.1,3.67584,3.72925,1.782,14.245,434,5,
226.103,3.75,3.72925,1.782,14.245,434,5,
226.107,3.76953,3.73077,1.782,14.245,434,5,
226.11,3.66638,3.72925,1.782,14.245,434,5,
226.113,3.49945,3.71704,1.782,14.245,434,5,
226.117,3.36212,3.71552,1.782,14.245,434,5,
226.12,3.21014,3.71704,1.782,14.245,434,5,
226.123,2.99927,3.71552,1.782,14.245,434,5,
226.127,2.82013,3.70331,1.782,14.245,434,5,
226.13,2.71088,3.70331,0,14.245,434,5,
226.133,2.6474,3.70483,2.38,14.245,434,0,
226.137,2.53967,3.70331,2.38,14.245,434,0,
226.14,2.4762,3.69263,2.38,14.245,434,0,
226.143,2.47467,3.69415,2.38,14.245,434,0,
226.147,2.48566,3.69263,2.38,14.245,434,0,
226.15,2.48047,3.68347,2.38,14.245,434,0,
226.153,2.40173,3.67889,0.804,14.245,434,0,
226.157,2.42645,3.685,0.62,14.245,434,0,
226.16,2.63306,3.68195,0.62,14.245,434,0,
226.163,3.00049,3.68042,0.62,14.245,434,0,
226.167,3.29865,3.66669,0.62,14.111,434,0,
226.17,3.46527,3.66974,0.62,14.111,434,0,
226.173,3.52448,3.66821,0.448,14.111,434,0,
226.177,3.46527,3.66516,0.448,14.111,434,0,
226.18,3.32764,3.65601,0.448,14.111,434,0,
226.183,3.22998,3.65448,0.448,14.111,434,0,
226.187,3.14667,3.65601,0.448,14.111,434,0,
226.19,2.99561,3.65753,0.448,14.111,434,0,
226.193,2.79999,3.64227,0.448,14.111,434,0,
226.197,2.65717,3.64533,0.448,14.111,434,0,
226.2,2.57416,3.64227,0,14.111,434,0,
226.203,2.4823,3.63159,0,14.111,434,0,
226.207,2.42615,3.63159,2.498,14.111,434,0,
226.21,2.43195,3.61786,2.498,14.111,434,0,
226.213,2.45178,3.60718,2.498,14.111,434,0,
226.217,2.43652,3.60413,2.498,14.111,434,0,
226.22,2.46674,3.60718,2.498,14.111,434,0,
226.223,2.71576,3.60565,2.498,14.111,434,0,
226.227,3.11798,3.5965,2.498,14.111,434,0,
226.23,3.4021,3.59345,2.498,14.111,434,0,
226.233,3.65112,3.59497,2.498,14.111,434,0,
226.237,3.86719,3.58124,2.498,15.9659,434,0,
226.24,3.9502,3.58429,2.498,15.9659,434,0,
226.243,3.87177,3.57971,1.26,15.9659,434,0,
226.247,3.71948,3.58429,1.26,15.9659,434,0,
226.25,3.59253,3.58276,1.26,15.9659,434,0,
226.253,3.42682,3.57971,1.26,15.9659,434,0,
226.257,3.23578,3.57819,1.26,15.9659,434,0,
226.26,3.11707,3.56903,1.26,15.9659,434,0,
226.263,3.01514,3.56903,0,15.9659,434,0,
226.267,2.883,3.56903,0,15.9659,434,0,
226.27,2.71545,3.57056,0,15.9659,434,0,
226.273,2.59369,3.57056,2.844,15.9659,434,0,
226.277,2.53937,3.57208,2.844,15.9659,434,0,
226.28,2.54425,3.57208,2.844,15.9659,434,0,
226.283,2.55951,3.56751,2.844,15.9659,434,0,
226.287,2.56958,3.55835,2.844,15.9659,434,0,
226.29,2.72552,3.55835,2.844,15.9659,434,0,
226.293,3.06335,3.5614,2.844,15.9659,434,0,
226.297,3.35236,3.55988,2.844,14.6413,434,0,
226.3,3.48511,3.55835,2.844,14.6413,434,0,
226.303,3.61237,3.55835,2.844,14.6413,434,0,
226.307,3.77869,3.5614,2.844,14.6413,434,0,
226.31,3.88184,3.54462,1.254,14.6413,434,0,
226.313,3.80859,3.54767,1.254,14.6413,434,0,
226.317,3.67584,3.5492,1.254,14.6413,434,0,
226.32,3.55743,3.54614,1.254,14.6413,434,5,
226.323,3.38257,3.53394,1.254,14.6413,434,5,
226.327,3.21533,3.53394,1.254,14.6413,434,5,
226.33,3.11279,3.53394,1.254,14.6413,434,5,
226.333,2.99042,3.52326,0,14.6413,434,5,
226.337,2.80884,3.52326,0,14.6413,434,5,
226.34,2.67151,3.5202,0,14.6413,434,5,
226.343,2.57416,3.51868,2.83,14.6413,434,0,
226.347,2.4942,3.50647,2.83,14.6413,434,0,
226.35,2.42218,3.50952,2.83,14.6413,434,0,
226.353,2.43713,3.508,2.83,14.6413,434,0,
226.357,2.59247,3.50647,2.83,14.6413,434,0,
226.36,2.94708,3.49426,2.83,14.6413,434,0,
226.363,3.32672,3.49579,2.83,14.6413,434,0,
226.367,3.62152,3.49579,2.83,14.6413,434,0,
226.37,3.76343,3.49884,2.83,14.985,434,0,
226.373,3.70483,3.50037,1.174,14.985,434,0,
226.377,3.50922,3.48358,1.174,14.985,434,0,
226.38,3.37219,3.48663,1.174,14.985,434,0,
226.383,3.29407,3.48358,1.174,14.985,434,0,
226.387,3.20129,3.48663,1.174,14.985,434,0,
226.39,3.04871,3.48511,1.174,14.985,434,0,
226.393,2.92145,3.4729,1.174,14.985,434,0,
226.397,2.79449,3.47138,1.174,14.985,434,0,
226.4,2.66693,3.47138,0,14.985,434,0,
226.403,2.56378,3.4729,2.542,14.985,434,0,
226.407,2.51556,3.45917,2.542,14.985,434,0,
226.41,2.49542,3.45917,2.542,14.985,434,0,
226.413,2.44598,3.45764,0.4,14.985,434,0,
226.417,2.22717,3.45917,0.4,14.985,434,0,
226.42,2.30286,3.44849,0.4,14.985,434,0,
226.423,2.65808,3.44544,0.4,14.985,434,0,
226.427,3.04871,3.44544,0.4,14.985,434,0,
226.43,3.32336,3.44544,0.4,15.6904,434,0,
226.433,3.50983,3.43628,0.4,15.6904,434,0,
226.437,3.59283,3.43323,0.4,15.6904,434,0,
226.44,3.47473,3.43628,0.882,15.6904,434,0,
226.443,3.30353,3.42407,0.882,15.6904,434,0,
226.447,3.18634,3.42255,0.882,15.6904,434,0,
226.45,3.05237,3.42102,0.882,15.6904,434,0,
226.453,2.82379,3.42255,0.882,15.6904,434,0,
226.457,2.65686,3.41339,0.882,15.6904,434,0,
226.46,2.6178,3.40729,0.882,15.6904,434,5,
226.463,2.57416,3.41339,2.268,15.6904,434,5,
226.467,2.51495,3.41034,2.268,15.6904,434,5,
226.47,2.48596,3.41034,2.268,15.6904,434,0,
226.473,2.48108,3.41187,2.268,15.6904,434,0,
226.477,2.43256,3.41339,0.48,15.6904,434,0,
226.48,2.46033,3.41034,0.48,15.6904,434,0,
226.483,2.70111,3.39966,0.48,15.6904,434,0,
226.487,3.08289,3.39966,0.48,15.6904,434,0,
226.49,3.3609,3.39966,0.48,16.1987,434,0,
226.493,3.54858,3.39966,0.48,16.1987,434,0,
226.497,3.7735,3.39508,0.48,16.1987,434,0,
226.5,3.97552,3.38593,0.48,16.1987,434,0,
226.503,3.95569,3.38745,0.956,16.1987,434,0,
226.507,3.82416,3.38745,0.956,16.1987,434,0,
226.51,3.68073,3.38593,0.956,16.1987,434,5,
226.513,3.50952,3.37372,0.956,16.1987,434,5,
226.517,3.31818,3.37677,0.956,16.1987,434,5,
226.52,3.20618,3.37372,0.956,16.1987,434,5,
226.523,3.14697,3.37677,0,16.1987,434,5,
226.527,3.01514,3.37525,0,16.1987,434,5,
226.53,2.86163,3.37219,0,16.1987,434,5,
226.533,2.74506,3.37525,2.802,16.1987,434,5,
226.537,2.68616,3.37372,2.802,16.1987,434,0,
226.54,2.6239,3.37372,2.802,16.1987,434,0,
226.543,2.53967,3.37067,0.344,16.1987,434,0,
226.547,2.46613,3.36914,0.346,16.1987,434,0,
226.55,2.46643,3.37677,0.346,16.1987,434,0,
226.553,2.53448,3.37219,0.346,16.1987,434,0,
226.557,2.68616,3.37372,0.346,16.1987,434,0,
226.56,2.95441,3.35999,0.346,16.1987,434,0,
226.563,3.23486,3.35846,0.346,16.1987,434,0,
226.567,3.45062,3.36151,0.346,13.3511,434,0,
226.57,3.59406,3.35236,0.346,13.3511,434,0,
226.573,3.70087,3.34931,0.346,13.3511,434,0,
226.577,3.75488,3.34931,0.346,13.3511,434,0,
226.58,3.73474,3.34931,1.002,13.3511,434,0,
226.583,3.67065,3.3371,1.002,13.3511,434,0,
226.587,3.61664,3.33405,1.002,13.3511,434,5,
226.59,3.51959,3.3371,1.002,13.3511,434,5,
226.593,3.37219,3.33862,1.002,13.3511,434,5,
226.597,3.26416,3.32337,1.002,13.3511,434,5,
226.6,3.15155,3.32642,0,13.3511,434,5,
226.603,2.99622,3.32184,0,13.3511,434,5,
226.607,2.86346,3.31421,0,13.3511,434,5,
226.61,2.74536,3.31421,2.922,13.3511,434,5,
226.613,2.60345,3.29895,2.922,13.3511,434,5,
226.617,2.51984,3.30048,2.922,13.3511,434,5,
226.62,2.46063,3.302,2.922,13.3511,434,5,
226.623,2.44141,3.29743,2.922,13.3511,434,0,
226.627,2.60071,3.30048,2.922,13.3511,434,0,
226.63,2.88086,3.29895,2.922,13.3511,434,0,
226.633,3.255,3.28522,2.922,13.3511,434,0,
226.637,3.54736,3.29285,2.922,13.3511,434,0,
226.64,3.64624,3.2898,2.922,14.2383,434,0,
226.643,3.53912,3.28674,1.292,14.2383,434,0,
226.647,3.39355,3.27759,1.292,14.2383,434,0,
226.65,3.26508,3.27606,1.292,14.2383,434,0,
226.653,3.05969,3.27606,1.292,14.2383,434,0,
226.657,2.84698,3.27606,1.292,14.2383,434,0,
226.66,2.70569,3.26996,1.292,14.2383,434,5,
226.663,2.58301,3.2608,1.292,14.2383,434,5,
226.667,2.50519,3.26233,1.292,14.2383,434,5,
226.67,2.50549,3.26538,0,14.2383,434,5,
226.673,2.48566,3.26386,2.348,14.2383,434,5,
226.677,2.43591,3.2486,2.348,14.2383,434,5,
226.68,2.60406,3.2486,2.348,14.2383,434,5,
226.683,3.0191,3.25165,2.348,14.2383,434,5,
226.687,3.39661,3.25012,2.348,14.2383,434,0,
226.69,3.5733,3.2486,2.348,19.2555,434,0,
226.693,3.53363,3.24097,0.768,19.2555,434,0,
226.697,3.40637,3.23792,0.768,19.2555,434,0,
226.7,3.26416,3.24097,0.768,19.2555,434,0,
226.703,3.10181,3.23792,0.768,19.2555,434,0,
226.707,2.94098,3.24097,0.768,19.2555,434,0,
226.71,2.78931,3.24097,0.768,19.2555,434,0,
226.713,2.63763,3.22876,0.768,19.2555,434,0,
226.717,2.48596,3.22876,0.768,19.2555,434,0,
226.72,2.43164,3.22876,0,19.2555,434,0,
226.723,2.45605,3.22571,2.256,19.2555,434,0,
226.727,2.49542,3.21503,2.256,19.2555,434,0,
226.73,2.62726,3.21503,2.256,19.2555,434,0,
226.733,2.99042,3.21503,2.256,19.2555,434,0,
226.737,3.36395,3.21503,2.256,19.2555,434,0,
226.74,3.59772,3.2135,2.256,19.9336,434,0,
226.743,3.6853,3.21503,2.256,19.9336,434,0,
226.747,3.64105,3.20282,0.754,19.9336,434,5,
226.75,3.47931,3.20435,0.754,19.9336,434,5,
226.753,3.25958,3.20282,0.754,19.9336,434,5,
226.757,3.12561,3.20129,0.754,19.9336,434,5,
226.76,3.04504,3.20282,0.754,19.9336,434,5,
226.763,2.87354,3.19214,0.754,19.9336,434,5,
226.767,2.69958,3.18909,0.754,19.9336,434,5,
226.77,2.59338,3.18909,0.754,19.9336,434,5,
226.773,2.51984,3.18909,2.3,19.9336,434,5,
226.777,2.46643,3.17993,2.3,19.9336,434,5,
226.78,2.45178,3.18146,2.3,19.9336,434,5,
226.783,2.44141,3.17841,2.3,19.9336,434,0,
226.787,2.26074,3.17841,0.554,19.9336,434,0,
226.79,2.30072,3.1662,0.554,19.9336,434,0,
226.793,2.66815,3.16467,0.554,19.9336,434,0,
226.797,3.10974,3.16315,0.554,19.9336,434,0,
226.8,3.4259,3.16467,0.554,19.9336,434,0,
226.803,3.62213,3.1662,0.554,16.19,434,0,
226.807,3.72467,3.16467,0.554,16.19,434,5,
226.81,3.69049,3.15247,0.852,16.19,434,5,
226.813,3.53912,3.15247,0.852,16.19,434,5,
226.817,3.3667,3.15399,0.852,16.19,434,5,
226.82,3.25439,3.15247,0.852,16.19,434,5,
226.823,3.13202,3.15247,0.852,16.19,434,5,
226.827,3.0191,3.15247,0.852,16.19,434,5,
226.83,2.89246,3.14026,0.852,16.19,434,5,
226.833,2.73987,3.14026,0,16.19,434,5,
226.837,2.61322,3.14179,0,16.19,434,5,
226.84,2.56866,3.14179,2.572,16.19,434,5,
226.843,2.5589,3.14026,2.572,16.19,434,5,
226.847,2.46185,3.13873,0.344,16.19,434,5,
226.85,2.4762,3.13263,0.344,16.19,434,5,
226.853,2.72491,3.12653,0.344,16.19,434,5,
226.857,3.07251,3.12805,0.344,16.19,434,0,
226.86,3.30261,3.1311,0.344,16.3488,434,0,
226.863,3.44055,3.12958,0.344,16.3488,434,0,
226.867,3.64807,3.11737,0.344,16.3488,434,0,
226.87,3.94226,3.1189,0.344,16.3488,434,0,
226.873,4.20471,3.1189,0.344,16.3488,434,0,
226.877,4.39087,3.1189,0.344,16.3488,434,0,
226.88,4.48364,3.10211,0.344,16.3488,434,5,
226.883,4.40582,3.10364,0.754,16.3488,434,5,
226.887,4.16992,3.10669,0.754,16.3488,434,5,
226.89,3.93219,3.10516,0.754,16.3488,434,5,
226.893,3.73505,3.10516,0,16.3488,434,5,
226.897,3.55865,3.10669,0,16.3488,434,5,
226.9,3.42133,3.09448,0,16.3488,434,5,
226.903,3.3139,3.09448,0,16.3488,434,5,
226.907,3.20587,3.09143,0,16.3488,434,0,
226.91,3.07831,3.09754,0,16.3488,434,0,
226.913,2.89246,3.09448,0,16.3488,434,0,
226.917,2.73041,3.09448,3.606,16.3488,434,0,
226.92,2.63702,3.10516,3.606,16.3488,434,0,
226.923,2.55524,3.10364,3.606,16.3488,434,0,
226.927,2.48108,3.10822,3.606,16.3488,434,0,
226.93,2.47101,3.10669,3.606,16.3488,434,0,
226.933,2.5,3.10516,3.606,16.3488,434,0,
226.937,2.46429,3.10669,3.606,16.3488,434,0,
226.94,2.32849,3.10516,3.606,16.3488,434,0,
226.943,2.37488,3.09296,3.606,16.3488,434,0,
226.947,2.63336,3.09143,3.606,16.3488,434,0,
226.95,2.90192,3.08991,3.606,16.3488,434,0,
226.953,3.16589,3.09143,0,16.3488,434,0,
226.957,3.41614,3.09143,0,16.3488,434,0,
226.96,3.56323,3.09296,1.844,11.0092,434,0,
226.963,3.48297,3.09296,1.844,11.0092,434,0,
226.967,3.33832,3.08075,1.844,11.0092,434,0,
226.97,3.23975,3.07922,1.844,11.0092,434,5,
226.973,3.12683,3.07922,1.844,11.0092,434,5,
226.977,3.01453,3.08075,1.844,11.0092,434,5,
226.98,2.92633,3.0838,1.844,11.0092,434,0,
226.983,2.80884,3.06702,1.844,11.0092,434,0,
226.987,2.63245,3.07007,0,11.0092,434,0,
226.99,2.52502,3.06854,0,11.0092,434,0,
226.993,2.48596,3.06854,2.618,11.0092,434,0,
226.997,2.48016,3.06702,2.618,11.0092,434,0,
227,2.45575,3.05481,2.618,11.0092,434,0,
227.003,2.45667,3.05786,2.618,11.0092,434,0,
227.007,2.47101,3.05328,2.618,11.0092,434,0,
227.01,2.46613,3.05786,2.618,11.0092,434,0,
227.013,2.46582,3.04413,2.618,11.0092,434,0,
227.017,2.51068,3.04413,2.618,11.0092,434,5,
227.02,2.6767,3.04718,2.618,11.0092,434,5,
227.023,2.89764,3.04413,2.618,11.0092,434,5,
227.027,3.18573,3.04566,2.618,11.0092,434,5,
227.03,3.40149,3.03192,0,12.621,434,5,
227.033,3.43536,3.03497,2.136,12.621,434,5,
227.037,3.35785,3.03192,2.136,12.621,434,5,
227.04,3.23517,3.03345,2.136,12.621,434,5,
227.043,3.09875,3.02429,2.136,12.621,434,5,
227.047,3.01483,3.02124,2.136,12.621,434,5,
227.05,2.92145,3.01972,2.136,12.621,434,5,
227.053,2.76978,3.01972,2.136,12.621,434,5,
227.057,2.69623,3.00598,2.136,12.621,434,5,
227.06,2.67731,3.00903,2.136,12.621,434,5,
227.063,2.59338,3.00751,0,12.621,434,5,
227.067,2.54425,2.99378,2.276,12.621,434,5,
227.07,2.53998,2.99378,2.276,12.621,434,0,
227.073,2.49084,2.9953,0.372,12.621,434,0,
227.077,2.40753,2.99988,0.372,12.621,434,0,
227.08,2.3822,2.9953,0.476,12.621,434,0,
227.083,2.38739,2.9953,0.476,12.621,434,0,
227.087,2.41699,2.98004,0.476,12.621,434,0,
227.09,2.55463,2.98004,0.476,12.621,434,0,
227.093,2.87292,2.98309,0.476,12.621,434,0,
227.097,3.21045,2.97852,0.476,12.621,434,0,
227.1,3.32764,2.98767,0.476,14.6628,434,0,
227.103,3.21991,2.98462,0.968,14.6628,434,0,
227.107,3.09845,2.96784,0.968,14.6628,434,0,
227.11,2.98981,2.96936,0.968,14.6628,434,0,
227.113,2.84302,2.97089,0.968,14.6628,434,0,
227.117,2.7005,2.97241,0.968,14.6628,434,0,
227.12,2.60315,2.95563,0.968,14.6628,434,0,
227.123,2.55859,2.95715,0.968,14.6628,434,0,
227.127,2.49054,2.95868,0.968,14.6628,434,0,
227.13,2.42737,2.95868,0.968,14.6628,434,0,
227.133,2.4118,2.95563,0,14.6628,434,0,
227.137,2.38739,2.94647,2.402,14.6628,434,0,
227.14,2.28058,2.94952,2.402,14.6628,434,0,
227.143,2.2113,2.94495,2.402,14.6628,434,0,
227.147,2.25403,2.94647,2.402,14.6628,434,0,
227.15,2.44598,2.94495,2.402,14.6628,434,0,
227.153,2.72095,2.93579,2.402,14.6628,434,0,
227.157,3.05817,2.93274,2.402,14.6628,434,5,
227.16,3.2843,2.93579,2.402,16.269,434,5,
227.163,3.26385,2.93274,1.286,16.269,434,5,
227.167,3.16162,2.93121,1.286,16.269,434,5,
227.17,3.0542,2.93274,1.286,16.269,434,5,
227.173,2.86072,2.92053,1.286,16.269,434,5,
227.177,2.71027,2.92053,1.286,16.269,434,5,
227.18,2.62329,2.92358,1.286,16.269,434,5,
227.183,2.51038,2.92053,1.286,16.269,434,5,
227.187,2.40173,2.90833,1.286,16.269,434,5,
227.19,2.34894,2.90833,1.286,16.269,434,5,
227.193,2.33917,2.9068,0,16.269,434,5,
227.197,2.35382,2.91138,0,16.269,434,0,
227.2,2.28577,2.90985,2.444,16.269,434,0,
227.203,2.21558,2.90833,2.444,16.269,434,0,
227.207,2.37,2.89459,2.444,16.269,434,0,
227.21,2.73102,2.89459,2.444,16.269,434,0,
227.213,3.07037,2.89612,2.444,16.269,434,0,
227.217,3.31299,2.89307,2.444,16.269,434,0,
227.22,3.53363,2.89917,2.444,18.3599,434,0,
227.223,3.60596,2.89002,2.444,18.3599,434,0,
227.227,3.45001,2.88696,0.824,18.3599,434,0,
227.23,3.25439,2.88544,0.824,18.3599,434,0,
227.233,3.10822,2.88544,0.824,18.3599,434,5,
227.237,2.96326,2.88544,0.824,18.3599,434,5,
227.24,2.84119,2.88696,0.824,18.3599,434,5,
227.243,2.73102,2.87323,0.824,18.3599,434,5,
227.247,2.60803,2.87628,0.824,18.3599,434,5,
227.25,2.46613,2.87476,0,18.3599,434,5,
227.253,2.39777,2.87171,2.5,18.3599,434,5,
227.257,2.39716,2.87476,2.5,18.3599,434,0,
227.26,2.34314,2.87323,0.342,18.3599,434,0,
227.263,2.26013,2.87171,0.342,18.3599,434,0,
227.267,2.23053,2.85797,0.492,18.3599,434,0,
227.27,2.43652,2.86255,0.492,18.3599,434,0,
227.273,2.81799,2.86102,0.492,18.3599,434,0,
227.277,3.1369,2.86102,0.492,18.3599,434,0,
227.28,3.40637,2.8595,0.492,18.3599,434,0,
227.283,3.573,2.8595,0.492,16.1204,434,0,
227.287,3.4848,2.86102,0.388,16.1204,434,0,
227.29,3.26965,2.84882,0.388,16.1204,434,0,
227.293,3.11737,2.84882,0.388,16.1204,434,0,
227.297,3.01025,2.84882,0.388,16.1204,434,0,
227.3,2.89215,2.84729,0.388,16.1204,434,0,
227.303,2.73071,2.84729,0.388,16.1204,434,0,
227.307,2.61749,2.85034,0.388,16.1204,434,0,
227.31,2.55402,2.84577,2.286,16.1204,434,0,
227.313,2.51007,2.83356,2.286,16.1204,434,0,
227.317,2.44171,2.83508,2.286,16.1204,434,0,
227.32,2.40173,2.83356,2.286,16.1204,434,0,
227.323,2.40234,2.83203,2.286,16.1204,434,0,
227.327,2.40723,2.83661,2.286,16.1204,434,0,
227.33,2.50977,2.83814,2.286,16.1204,434,0,
227.333,2.80396,2.83661,2.286,16.1204,434,0,
227.337,3.15155,2.8183,2.286,16.1204,434,0,
227.34,3.36182,2.82288,2.286,16.0342,434,0,
227.343,3.41125,2.82593,2.286,16.0342,434,0,
227.347,3.35297,2.8244,1.456,16.0342,434,5,
227.35,3.23547,2.8244,1.456,16.0342,434,5,
227.353,3.07861,2.82288,1.456,16.0342,434,5,
227.357,2.98035,2.82135,1.456,16.0342,434,5,
227.36,2.9126,2.8122,1.456,16.0342,434,5,
227.363,2.78992,2.80914,1.456,16.0342,434,5,
227.367,2.64038,2.81067,1.456,16.0342,434,5,
227.37,2.53906,2.8122,1.456,16.0342,434,5,
227.373,2.46033,2.80914,0,16.0342,434,5,
227.377,2.39746,2.81067,2.422,16.0342,434,5,
227.38,2.43652,2.81067,2.422,16.0342,434,5,
227.383,2.67914,2.8122,2.422,16.0342,434,5,
227.387,2.97455,2.8122,2.422,16.0342,434,5,
227.39,3.21564,2.79846,2.422,19.6207,434,5,
227.393,3.32306,2.79694,2.422,19.6207,434,5,
227.397,3.25531,2.79999,0.636,19.6207,434,5,
227.4,3.12317,2.79846,0.636,19.6207,434,5,
227.403,3.03925,2.80304,0.636,19.6207,434,5,
227.407,2.95135,2.78778,0.636,19.6207,434,5,
227.41,2.80426,2.78626,0.636,19.6207,434,5,
227.413,2.68646,2.78473,0.636,19.6207,434,5,
227.417,2.60345,2.7832,0.636,19.6207,434,5,
227.42,2.56439,2.78168,0.636,19.6207,434,0,
227.423,2.48108,2.77252,0,19.6207,434,0,
227.427,2.40265,2.771,2.42,19.6207,434,0,
227.43,2.50977,2.77252,2.42,19.6207,434,0,
227.433,2.87262,2.77557,2.42,19.6207,434,0,
227.437,3.23029,2.771,2.42,19.6207,434,0,
227.44,3.48022,2.77405,2.42,19.6207,434,0,
227.443,3.67554,2.76337,2.42,19.9601,434,0,
227.447,3.80371,2.76184,2.42,19.9601,434,0,
227.45,3.75,2.76337,0.48,19.9601,434,0,
227.453,3.53912,2.76337,0.48,19.9601,434,0,
227.457,3.28888,2.76184,0.48,19.9601,434,5,
227.46,3.10883,2.76032,0.48,19.9601,434,5,
227.463,3.00903,2.74963,0.48,19.9601,434,5,
227.467,2.9657,2.74811,0.48,19.9601,434,5,
227.47,2.88788,2.75116,0.48,19.9601,434,5,
227.473,2.7301,2.74811,0,19.9601,434,5,
227.477,2.60284,2.74658,0,19.9601,434,5,
227.48,2.56409,2.74811,2.614,19.9601,434,5,
227.483,2.55951,2.74963,2.614,19.9601,434,0,
227.487,2.49023,2.74811,0.34,19.9601,434,0,
227.49,2.46124,2.75269,0.352,19.9601,434,0,
227.493,2.58331,2.74811,0.352,19.9601,434,0,
227.497,2.87476,2.74963,0.352,19.9601,434,0,
227.5,3.13202,2.74811,0.352,19.9601,434,0,
227.503,3.30872,2.74658,0.352,16.5746,434,0,
227.507,3.45032,2.73438,0.352,16.5746,434,0,
227.51,3.4848,2.7359,0.42,16.5746,434,0,
227.513,3.35754,2.7359,0.42,16.5746,434,0,
227.517,3.20557,2.7359,0.42,16.5746,434,0,
227.52,3.13751,2.73895,0.42,16.5746,434,0,
227.523,3.09814,2.73743,0.42,16.5746,434,0,
227.527,2.97089,2.72522,0.42,16.5746,434,0,
227.53,2.84363,2.72675,0.42,16.5746,434,0,
227.533,2.75482,2.72217,0,16.5746,434,0,
227.537,2.63214,2.72217,0,16.5746,434,0,
227.54,2.51068,2.72675,0,16.5746,434,0,
227.543,2.45544,2.71301,2.702,16.5746,434,0,
227.547,2.51984,2.70996,2.702,16.5746,434,0,
227.55,2.72278,2.70844,2.702,16.5746,434,0,
227.553,3.01392,2.71301,2.702,16.5746,434,0,
227.557,3.31787,2.70996,2.702,16.5746,434,0,
227.56,3.47992,2.71149,2.702,17.2414,434,0,
227.563,3.45978,2.69928,2.702,17.2414,434,0,
227.567,3.36273,2.70081,0.778,17.2414,434,0,
227.57,3.26447,2.69013,0.778,17.2414,434,5,
227.573,3.14331,2.68707,0.778,17.2414,434,5,
227.577,3.05878,2.68707,0.778,17.2414,434,5,
227.58,3.01941,2.6886,0.778,17.2414,434,0,
227.583,2.95624,2.6886,0.778,17.2414,434,0,
227.587,2.81403,2.68555,0.778,17.2414,434,0,
227.59,2.75574,2.67792,0.778,17.2414,434,0,
227.593,2.77039,2.67487,0,17.2414,434,0,
227.597,2.86285,2.67487,0,17.2414,434,0,
227.6,2.95593,2.67792,0,17.2414,434,0,
227.603,3.00446,2.67639,0,17.2414,434,0,
227.607,3.14178,2.65961,0,17.2414,434,0,
227.61,3.41644,2.66266,0,17.2414,434,0,
227.613,3.73688,2.66266,0,17.2414,434,0,
227.617,4.11774,2.66419,0,17.2414,434,5,
227.62,4.43542,2.66419,0,17.2414,434,5,
227.623,4.59717,2.66266,3.758,15.9659,434,5,
227.627,4.54376,2.66266,3.758,15.9659,434,5,
227.63,4.19617,2.65198,3.758,15.9659,434,5,
227.633,3.69812,2.65198,3.758,15.9659,434,5,
227.637,3.27454,2.65045,3.758,15.9659,434,5,
227.64,3.06427,2.6474,3.758,15.9659,434,5,
227.643,2.94342,2.64893,3.758,15.9659,434,5,
227.647,2.88727,2.63825,3.758,15.9659,434,5,
227.65,2.85309,2.6413,3.758,15.9659,434,0,
227.653,2.80884,2.63825,3.758,15.9659,434,0,
227.657,2.74048,2.63672,0,15.9659,434,0,
227.66,2.71088,2.63825,0,15.9659,434,0,
227.663,2.70081,2.63825,0,15.9659,434,0,
227.667,2.70081,2.63519,0,15.9659,434,0,
227.67,2.65228,2.64282,2.554,15.9659,434,0,
227.673,2.56439,2.63825,0.684,15.9659,434,0,
227.677,2.6474,2.63825,0.684,15.9659,434,0,
227.68,2.84882,2.63825,0.684,15.9659,434,0,
227.683,3.03375,2.63977,0.684,15.9659,434,0,
227.687,3.19122,2.63977,0.684,15.9659,434,0,
227.69,3.34747,2.63977,0.684,15.9659,434,5,
227.693,3.40942,2.63977,0.684,15.9659,434,5,
227.697,3.33313,2.63672,0.506,15.9659,434,5,
227.7,3.26447,2.63977,0.506,15.9659,434,5,
227.703,3.23029,2.64282,0.506,15.9659,434,5,
227.707,3.18604,2.62756,0.506,15.9659,434,5,
227.71,3.18573,2.62451,0.506,15.9659,434,5,
227.713,3.20038,2.62756,0.506,15.9659,434,5,
227.717,3.18604,2.62604,0,15.9659,434,5,
227.72,3.17108,2.62756,0,15.9659,434,5,
227.723,3.16681,2.62604,0,15.9659,434,5,
227.727,3.11279,2.62756,2.682,15.9659,434,5,
227.73,3.05878,2.62909,2.682,15.9659,434,5,
227.733,3.01971,2.62451,0.48,15.9659,434,0,
227.737,2.95258,2.62604,0.48,15.9659,434,0,
227.74,2.84088,2.61383,0.48,15.9659,434,0,
227.743,2.77893,2.61383,0.69,15.9659,434,0,
227.747,2.87292,2.61231,0.69,15.9659,434,0,
227.75,3.06366,2.61536,0.69,15.9659,434,0,
227.753,3.2251,2.61078,0.69,15.9659,434,0,
227.757,3.35022,2.61841,0.69,15.9659,434,0,
227.76,3.4848,2.61383,0.69,15.9659,434,0,
227.763,3.53424,2.61383,0.69,15.9659,434,0,
227.767,3.43079,2.60162,0.404,15.9659,434,0,
227.77,3.30322,2.60162,0.404,15.9659,434,0,
227.773,3.25043,2.60315,0.404,15.9659,434,0,
227.777,3.23029,2.60162,0.404,15.9659,434,0,
227.78,3.15826,2.6001,0.404,15.9659,434,0,
227.783,3.08838,2.60468,0.404,15.9659,434,0,
227.787,3.05359,2.59094,0.404,15.9659,434,0,
227.79,3.01483,2.59247,2.274,15.9659,434,0,
227.793,2.88696,2.59247,2.274,15.9659,434,0,
227.797,2.74963,2.58942,2.274,15.9659,434,0,
227.8,2.89185,2.58789,2.274,15.9659,434,0,
227.803,3.14728,2.59094,2.274,15.9659,434,0,
227.807,3.32886,2.58942,2.274,15.9659,434,0,
227.81,3.49976,2.57874,2.274,15.9659,434,0,
227.813,3.65662,2.57721,2.274,15.9659,434,0,
227.817,3.65601,2.57416,0.836,15.9659,434,0,
227.82,3.53882,2.58026,0.836,15.9659,434,0,
227.823,3.42407,2.57874,0.836,15.9659,434,0,
227.827,3.32825,2.56195,0.836,15.9659,434,0,
227.83,3.22021,2.56348,0.836,15.9659,434,0,
227.833,3.14209,2.56653,0.836,15.9659,434,0,
227.837,3.10272,2.565,0.836,15.9659,434,0,
227.84,3.04901,2.565,0,15.9659,434,0,
227.843,2.88757,2.565,0,15.9659,434,0,
227.847,2.69592,2.5528,0,15.9659,434,0,
227.85,2.65259,2.55127,2.796,15.9659,434,0,
227.853,2.86774,2.55585,2.796,15.9659,434,0,
227.857,3.15186,2.55127,2.796,15.9659,434,0,
227.86,3.39172,2.55432,2.796,15.9659,434,0,
227.863,3.573,2.55585,2.796,4.18468,434,0,
227.867,3.64136,2.55127,2.796,4.18468,434,0,
227.87,3.57819,2.54059,0.432,4.18468,434,0,
227.873,3.48969,2.54059,0.432,4.18468,434,0,
227.877,3.37708,2.54059,0.432,4.18468,434,0,
227.88,3.23059,2.54059,0.432,4.18468,434,0,
227.883,3.13263,2.53754,0.432,4.18468,434,0,
227.887,3.08807,2.54059,0.432,4.18468,434,0,
227.89,3.03833,2.53906,0.432,4.18468,434,0,
227.893,2.95593,2.52838,0,4.18468,434,0,
227.897,2.83112,2.52991,0,4.18468,434,0,
227.9,2.7063,2.5238,0,4.18468,434,0,
227.903,2.66205,2.52838,2.74,4.18468,434,0,
227.907,2.836,2.52991,2.74,4.18468,434,0,
227.91,3.20129,2.52686,2.74,4.18468,434,0,
227.913,3.49548,2.51465,2.74,4.18468,434,0,
227.917,3.64136,2.5177,2.74,18.7149,434,0,
227.92,3.79333,2.51465,2.74,18.7149,434,0,
227.923,3.97034,2.51465,2.74,18.7149,434,5,
227.927,3.9798,2.51618,2.74,18.7149,434,5,
227.93,3.87268,2.51618,0.466,18.7149,434,5,
227.933,3.75458,2.51465,0.466,18.7149,434,5,
227.937,3.60748,2.50855,0.466,18.7149,434,5,
227.94,3.43994,2.50702,0.466,18.7149,434,5,
227.943,3.33771,2.50549,0.466,18.7149,434,5,
227.947,3.26447,2.50092,0,18.7149,434,5,
227.95,3.17108,2.50397,0,18.7149,434,5,
227.953,3.08838,2.50397,2.638,18.7149,434,5,
227.957,2.99042,2.50397,2.638,18.7149,434,5,
227.96,2.80945,2.50244,2.638,18.7149,434,5,
227.963,2.68127,2.50702,2.638,18.7149,434,5,
227.967,2.70081,2.50549,2.638,18.7149,434,0,
227.97,2.9361,2.50549,2.638,18.7149,434,0,
227.973,3.21564,2.50549,2.638,18.7149,434,0,
227.977,3.4729,2.50549,2.638,18.7149,434,5,
227.98,3.68134,2.50702,2.638,15.7812,434,5,
227.983,3.74969,2.50397,2.638,15.7812,434,5,
227.987,3.71552,2.50397,2.638,15.7812,434,5,
227.99,3.62152,2.50397,1.164,15.7812,434,5,
227.993,3.4552,2.49176,1.164,15.7812,434,5,
227.997,3.32367,2.49176,1.164,15.7812,434,5,
228,3.24493,2.48871,1.164,15.7812,434,5,
228.003,3.16132,2.49176,1.164,15.7812,434,5,
228.007,3.09357,2.49481,1.164,15.7812,434,5,
228.01,3.0545,2.49024,2.27,15.7812,434,5,
228.013,2.95074,2.49176,2.27,15.7812,434,5,
228.017,2.75513,2.47955,2.27,15.7812,434,5,
228.02,2.64282,2.47955,2.27,15.7812,434,5,
228.023,2.62238,2.47803,2.27,15.7812,434,0,
228.027,2.77985,2.47955,2.27,15.7812,434,0,
228.03,3.05389,2.47803,2.27,15.7812,434,0,
228.033,3.35724,2.47955,2.27,15.7812,434,0,
228.037,3.62213,2.46887,2.27,15.7812,434,0,
228.04,3.85498,2.46887,2.27,15.7812,434,0,
228.043,4.0686,2.46887,2.27,15.7812,434,0,
228.047,4.24438,2.46887,2.27,17.0455,434,5,
228.05,4.31274,2.46582,1.25,17.0455,434,5,
228.053,4.1861,2.47345,1.25,17.0455,434,5,
228.057,3.98956,2.46735,1.25,17.0455,434,5,
228.06,3.82294,2.45514,1.25,17.0455,434,5,
228.063,3.66608,2.45514,1.25,17.0455,434,5,
228.067,3.49457,2.45361,1.25,17.0455,434,5,
228.07,3.39203,2.45361,0,17.0455,434,5,
228.073,3.28857,2.45667,0,17.0455,434,5,
228.077,3.17596,2.45514,0,17.0455,434,5,
228.08,3.03955,2.44446,0,17.0455,434,0,
228.083,2.9068,2.44293,2.996,17.0455,434,0,
228.087,2.76031,2.44446,2.996,17.0455,434,0,
228.09,2.6474,2.44598,2.996,17.0455,434,0,
228.093,2.60315,2.44293,2.996,17.0455,434,0,
228.097,2.74017,2.44141,2.996,17.0455,434,0,
228.1,3.0542,2.44141,2.996,17.0455,434,0,
228.103,3.33801,2.44446,2.996,17.0455,434,0,
228.107,3.54187,2.44293,2.996,14.7203,434,0,
228.11,3.67157,2.43073,2.996,14.7203,434,0,
228.113,3.68622,2.43073,2.996,14.7203,434,0,
228.117,3.60718,2.4292,2.996,14.7203,434,0,
228.12,3.52875,2.4292,1.08,14.7203,434,0,
228.123,3.43658,2.43073,1.08,14.7203,434,0,
228.127,3.30841,2.42462,1.08,14.7203,434,0,
228.13,3.23547,2.43073,1.08,14.7203,434,0,
228.133,3.22052,2.43225,1.08,14.7203,434,5,
228.137,3.17566,2.43225,0,14.7203,434,5,
228.14,3.07831,2.43378,0,14.7203,434,5,
228.143,2.95013,2.41852,0,14.7203,434,5,
228.147,2.82837,2.41547,0,14.7203,434,5,
228.15,2.68219,2.41699,3.074,14.7203,434,5,
228.153,2.64221,2.41699,3.074,14.7203,434,5,
228.157,2.78442,2.42157,3.074,14.7203,434,5,
228.16,3.06396,2.41699,3.074,14.7203,434,5,
228.163,3.367,2.42004,3.074,14.7203,434,5,
228.167,3.60657,2.41699,3.074,14.7203,434,5,
228.17,3.7149,2.40479,3.074,16.3488,434,5,
228.173,3.71582,2.40326,3.074,16.3488,434,5,
228.177,3.66119,2.40631,3.074,16.3488,434,5,
228.18,3.58307,2.40784,0.596,16.3488,434,5,
228.183,3.43567,2.40631,0.596,16.3488,434,5,
228.187,3.33221,2.40631,0.596,16.3488,434,5,
228.19,3.26447,2.40631,0.596,16.3488,434,5,
228.193,3.1662,2.39563,0.596,16.3488,434,0,
228.197,3.09357,2.3941,0.596,16.3488,434,0,
228.2,3.00018,2.3941,0,16.3488,434,0,
228.203,2.94586,2.38648,2.524,16.3488,434,0,
