3200-SECPT.acq
2 msec/sample
6 channels
RSP, X, RSPEC-R
Volts
EDA, Y, PPGED-R
microsiemens
ECG R-R
Seconds
Respiration Rate
BPM
C7 - EDR
Peaks
C14 - Control
Volts
min,CH1,CH14,CH40,CH42,CH47,CH54,
,90345,90345,90345,90345,90345,90345,
77.109,5.52094,3.23029,1.386,16.4926,95,5,
77.109,5.52246,3.23181,1.386,16.4926,95,5,
77.109,5.52277,3.22876,1.386,16.4926,95,5,
77.1091,5.52734,3.23029,1.386,16.4926,95,5,
77.1091,5.52795,3.22876,1.386,16.4926,95,5,
77.1091,5.53009,3.23334,1.386,16.4926,95,5,
77.1092,5.53223,3.23029,1.386,16.4926,95,5,
77.1092,5.53162,3.23334,1.386,16.4926,95,5,
77.1092,5.53772,3.23181,1.386,16.4926,95,5,
77.1093,5.53711,3.23486,1.386,16.4926,95,5,
77.1093,5.54077,3.23181,1.386,16.4926,95,5,
77.1093,5.54138,3.23029,1.386,16.4926,95,5,
77.1094,5.54199,3.23029,1.386,16.4926,95,5,
77.1094,5.54626,3.23029,1.386,16.4926,95,5,
77.1094,5.54718,3.23334,1.386,16.4926,95,5,
77.1095,5.54718,3.23029,1.386,16.4926,95,5,
77.1095,5.55145,3.23334,1.386,16.4926,95,5,
77.1095,5.55206,3.22876,1.386,16.4926,95,5,
77.1096,5.55176,3.23334,1.386,16.4926,95,5,
77.1096,5.55664,3.23029,1.386,16.4926,95,5,
77.1096,5.55725,3.23181,1.386,16.4926,95,5,
77.1097,5.56061,3.23181,1.386,16.4926,95,5,
77.1097,5.56152,3.22876,1.386,16.4926,95,5,
77.1097,5.56122,3.23486,1.386,16.4926,95,5,
77.1098,5.56519,3.23334,1.386,16.4926,95,5,
77.1098,5.56702,3.23181,1.386,16.4926,95,5,
77.1098,5.56641,3.23029,1.386,16.4926,95,5,
77.1099,5.57098,3.22724,1.386,16.4926,95,5,
77.1099,5.57251,3.22724,1.386,16.4926,95,5,
77.1099,5.57129,3.23181,1.386,16.4926,95,5,
77.11,5.57617,3.22724,1.386,16.4926,95,5,
77.11,5.57648,3.23334,1.386,16.4926,95,5,
77.11,5.57678,3.23029,1.386,16.4926,95,5,
77.1101,5.58044,3.22876,1.386,16.4926,95,5,
77.1101,5.58105,3.22876,1.386,16.4926,95,5,
77.1101,5.58105,3.23029,1.386,16.4926,95,5,
77.1102,5.58502,3.23029,1.386,16.4926,95,5,
77.1102,5.58563,3.23029,1.386,16.4926,95,5,
77.1102,5.58624,3.23181,1.386,16.4926,95,5,
77.1103,5.58685,3.23334,1.386,16.4926,95,5,
77.1103,5.59082,3.23181,1.386,16.4926,95,5,
77.1103,5.59174,3.23181,1.386,16.4926,95,5,
77.1104,5.59082,3.23029,1.386,16.4926,95,5,
77.1104,5.59601,3.23029,1.386,16.4926,95,5,
77.1104,5.59692,3.22876,1.386,16.4926,95,5,
77.1105,5.59601,3.22876,1.386,16.4926,95,5,
77.1105,5.59937,3.23334,1.386,16.4926,95,5,
77.1105,5.60089,3.23334,1.386,16.4926,95,5,
77.1106,5.60089,3.23029,1.386,16.4926,95,5,
77.1106,5.60181,3.23334,1.386,16.4926,95,5,
77.1106,5.60547,3.23029,1.386,16.4926,95,5,
77.1107,5.60547,3.23181,1.386,16.4926,95,5,
77.1107,5.60577,3.23181,1.386,16.4926,95,5,
77.1107,5.60852,3.23029,1.386,16.4926,95,5,
77.1108,5.61005,3.23029,1.386,16.4926,95,5,
77.1108,5.61127,3.23181,1.386,16.4926,95,5,
77.1108,5.61035,3.23334,1.386,19.9336,95,5,
77.1109,5.61554,3.23181,1.386,19.9336,95,5,
77.1109,5.61615,3.23029,1.386,19.9336,95,5,
77.1109,5.61493,3.23029,1.386,19.9336,95,5,
77.111,5.61462,3.22876,1.386,19.9336,95,5,
77.111,5.62042,3.23029,1.386,19.9336,95,5,
77.111,5.62012,3.23029,1.386,19.9336,95,5,
77.1111,5.62012,3.23181,1.386,19.9336,95,5,
77.1111,5.62195,3.23486,1.386,19.9336,95,5,
77.1111,5.62531,3.22724,1.386,19.9336,95,5,
77.1112,5.62469,3.23181,1.386,19.9336,95,5,
77.1112,5.625,3.22876,1.386,19.9336,95,5,
77.1112,5.62531,3.23334,1.386,19.9336,95,5,
77.1113,5.62988,3.22876,1.386,19.9336,95,5,
77.1113,5.63049,3.23181,1.386,19.9336,95,5,
77.1113,5.62988,3.23486,1.386,19.9336,95,5,
77.1114,5.62958,3.23029,1.386,19.9336,95,5,
77.1114,5.63477,3.23029,1.386,19.9336,95,5,
77.1114,5.63416,3.23029,1.386,19.9336,95,5,
77.1115,5.63416,3.23029,1.386,19.9336,95,5,
77.1115,5.63538,3.23181,1.386,19.9336,95,5,
77.1115,5.63751,3.23334,1.386,19.9336,95,5,
77.1116,5.63965,3.23181,1.386,19.9336,95,5,
77.1116,5.63934,3.23334,1.386,19.9336,95,5,
77.1116,5.63965,3.23181,1.386,19.9336,95,5,
77.1117,5.63934,3.23029,1.386,19.9336,95,5,
77.1117,5.64453,3.23181,1.386,19.9336,95,5,
77.1117,5.64392,3.23486,1.386,19.9336,95,5,
77.1118,5.64484,3.23029,1.386,19.9336,95,5,
77.1118,5.64514,3.23029,1.386,19.9336,95,5,
77.1118,5.64575,3.22724,1.386,19.9336,95,5,
77.1119,5.65002,3.23029,1.386,19.9336,95,5,
77.1119,5.65002,3.23029,1.386,19.9336,95,5,
77.1119,5.64972,3.23181,1.386,19.9336,95,5,
77.112,5.64941,3.23029,1.386,19.9336,95,5,
77.112,5.65063,3.23334,1.386,19.9336,95,5,
77.112,5.6546,3.23029,1.386,19.9336,95,5,
77.1121,5.6543,3.23029,1.386,19.9336,95,5,
77.1121,5.6546,3.23486,1.386,19.9336,95,5,
77.1121,5.6543,3.23029,1.386,19.9336,95,5,
77.1122,5.6546,3.23334,1.386,19.9336,95,5,
77.1122,5.65979,3.23334,1.386,19.9336,95,5,
77.1122,5.65979,3.23181,1.386,19.9336,95,5,
77.1123,5.6601,3.23181,1.386,19.9336,95,5,
77.1123,5.65918,3.23486,1.386,19.9336,95,5,
77.1123,5.65918,3.22876,1.386,19.9336,95,5,
77.1124,5.66284,3.22876,1.386,19.9336,95,5,
77.1124,5.66437,3.23334,1.386,19.9336,95,5,
77.1124,5.66376,3.23334,1.386,19.9336,95,5,
77.1125,5.66406,3.22876,1.386,19.9336,95,5,
77.1125,5.66406,3.23181,1.386,19.9336,95,5,
77.1125,5.66406,3.23181,1.386,19.9336,95,5,
77.1126,5.66986,3.23029,1.386,19.9336,95,5,
77.1126,5.66925,3.23029,1.386,19.9336,95,5,
77.1126,5.66833,3.23334,1.386,19.9336,95,5,
77.1127,5.66925,3.23181,1.386,19.9336,95,5,
77.1127,5.66864,3.23029,1.386,19.9336,95,5,
77.1127,5.66925,3.22876,1.386,19.9336,95,5,
77.1128,5.67047,3.23029,1.386,19.9336,95,5,
77.1128,5.67291,3.23334,1.386,19.9336,95,5,
77.1128,5.67413,3.22876,1.386,19.9336,95,5,
77.1129,5.67444,3.23181,1.386,19.9336,95,5,
77.1129,5.67413,3.23181,1.386,19.9336,95,5,
77.1129,5.67383,3.23181,1.386,19.9336,95,5,
77.113,5.67383,3.22876,1.386,19.9336,95,5,
77.113,5.67749,3.22876,1.386,19.9336,95,5,
77.113,5.67902,3.23029,1.386,19.9336,95,5,
77.1131,5.67932,3.23029,1.386,19.9336,95,5,
77.1131,5.67902,3.23029,1.386,19.9336,95,5,
77.1131,5.67902,3.22876,1.386,19.9336,95,5,
77.1132,5.67993,3.23029,1.386,19.9336,95,5,
77.1132,5.67902,3.23029,1.386,19.9336,95,5,
77.1132,5.67932,3.23029,1.386,19.9336,95,5,
77.1133,5.68359,3.23181,1.386,19.9336,95,5,
77.1133,5.68329,3.23029,1.386,19.9336,95,5,
77.1133,5.68451,3.23334,1.386,19.9336,95,5,
77.1134,5.68359,3.23181,1.386,19.9336,95,5,
77.1134,5.6839,3.23181,1.386,19.9336,95,5,
77.1134,5.6839,3.23029,1.386,19.9336,95,5,
77.1135,5.68329,3.23334,1.386,19.9336,95,5,
77.1135,5.6839,3.23181,1.386,19.9336,95,5,
77.1135,5.68512,3.23029,1.386,19.9336,95,5,
77.1136,5.68878,3.23181,1.386,19.9336,95,5,
77.1136,5.68909,3.23029,1.386,19.9336,95,5,
77.1136,5.68909,3.23181,1.386,19.9336,95,5,
77.1137,5.68878,3.23181,1.386,19.9336,95,5,
77.1137,5.68909,3.23181,1.386,19.9336,95,5,
77.1137,5.68848,3.23181,1.386,19.9336,95,5,
77.1138,5.68909,3.23334,1.386,19.9336,95,5,
77.1138,5.68909,3.23029,1.386,19.9336,95,5,
77.1138,5.68848,3.23181,1.386,19.9336,95,5,
77.1139,5.68909,3.23334,1.386,19.9336,95,5,
77.1139,5.69336,3.23181,1.386,19.9336,95,5,
77.1139,5.69336,3.22876,1.386,19.9336,95,5,
77.114,5.69366,3.23029,1.386,19.9336,95,5,
77.114,5.69366,3.23181,1.386,19.9336,95,5,
77.114,5.69336,3.23029,1.386,19.9336,95,5,
77.1141,5.69366,3.22876,1.386,19.9336,95,5,
77.1141,5.69336,3.23181,1.386,19.9336,95,5,
77.1141,5.69366,3.22876,1.386,19.9336,95,5,
77.1142,5.69397,3.22876,1.386,19.9336,95,5,
77.1142,5.69427,3.22876,1.386,19.9336,95,5,
77.1142,5.69397,3.22724,1.386,19.9336,95,5,
77.1143,5.69336,3.23486,1.386,19.9336,95,5,
77.1143,5.69427,3.23181,1.386,19.9336,95,5,
77.1143,5.69916,3.23181,1.386,19.9336,95,5,
77.1144,5.69946,3.23334,1.386,19.9336,95,5,
77.1144,5.69855,3.23181,1.386,19.9336,95,5,
77.1144,5.69946,3.23181,1.386,19.9336,95,5,
77.1145,5.69916,3.23029,1.386,19.9336,95,5,
77.1145,5.69855,3.23029,1.386,19.9336,95,5,
77.1145,5.69916,3.23334,1.386,19.9336,95,5,
77.1146,5.69946,3.23181,1.386,19.9336,95,5,
77.1146,5.69855,3.23181,1.386,19.9336,95,5,
77.1146,5.69885,3.23029,1.386,19.9336,95,5,
77.1147,5.69885,3.23181,1.386,19.9336,95,5,
77.1147,5.69824,3.22724,1.386,19.9336,95,5,
77.1147,5.69824,3.23029,1.386,19.9336,95,5,
77.1148,5.69855,3.23029,1.386,19.9336,95,5,
77.1148,5.69885,3.23181,1.386,19.9336,95,5,
77.1148,5.69916,3.23181,1.386,19.9336,95,5,
77.1149,5.69916,3.23334,1.386,19.9336,95,5,
77.1149,5.69855,3.23181,1.386,19.9336,95,5,
77.1149,5.70374,3.23181,1.386,19.9336,95,5,
77.115,5.70374,3.23029,1.386,19.9336,95,5,
77.115,5.70343,3.23181,1.386,19.9336,95,5,
77.115,5.70374,3.23334,1.386,19.9336,95,5,
77.1151,5.70312,3.23181,1.386,19.9336,95,5,
77.1151,5.70374,3.23029,1.386,19.9336,95,5,
77.1151,5.70374,3.23029,1.386,19.9336,95,5,
77.1152,5.70374,3.23029,1.386,19.9336,95,5,
77.1152,5.70343,3.22876,1.386,19.9336,95,5,
77.1152,5.70343,3.23029,1.386,19.9336,95,5,
77.1153,5.70404,3.22724,1.386,19.9336,95,5,
77.1153,5.70404,3.23181,1.386,19.9336,95,5,
77.1153,5.70374,3.23181,1.386,19.9336,95,5,
77.1154,5.70282,3.23029,1.386,19.9336,95,5,
77.1154,5.70312,3.23029,1.386,19.9336,95,5,
77.1154,5.70312,3.23334,1.386,19.9336,95,5,
77.1155,5.70374,3.22724,1.386,19.9336,95,5,
77.1155,5.70343,3.22876,1.386,19.9336,95,5,
77.1155,5.70251,3.23181,1.386,19.9336,95,5,
77.1156,5.70404,3.23181,1.386,19.9336,95,5,
77.1156,5.70435,3.22876,1.386,19.9336,95,5,
77.1156,5.70435,3.23029,1.386,19.9336,95,5,
77.1157,5.70374,3.23029,1.386,19.9336,95,5,
77.1157,5.70374,3.23029,1.386,19.9336,95,5,
77.1157,5.70404,3.23486,1.386,19.9336,95,5,
77.1158,5.70312,3.23334,1.386,19.9336,95,5,
77.1158,5.70679,3.22876,1.386,19.9336,95,5,
77.1158,5.70831,3.23029,1.386,19.9336,95,5,
77.1159,5.70831,3.23029,1.386,19.9336,95,5,
77.1159,5.70862,3.23334,1.386,19.9336,95,5,
77.1159,5.70892,3.23181,1.386,19.9336,95,5,
77.116,5.70862,3.23181,1.386,19.9336,95,5,
77.116,5.70831,3.23181,1.386,19.9336,95,5,
77.116,5.70862,3.23029,1.386,19.9336,95,5,
77.1161,5.70831,3.23181,1.386,19.9336,95,5,
77.1161,5.70831,3.22876,1.386,19.9336,95,5,
77.1161,5.70831,3.23029,1.386,19.9336,95,5,
77.1162,5.70831,3.23181,1.386,19.9336,95,5,
77.1162,5.70862,3.23181,1.386,19.9336,95,5,
77.1162,5.70862,3.23181,1.386,19.9336,95,5,
77.1163,5.70862,3.23029,1.386,19.9336,95,5,
77.1163,5.70801,3.23029,1.386,19.9336,95,5,
77.1163,5.70862,3.23181,1.386,19.9336,95,5,
77.1164,5.70831,3.23029,1.386,19.9336,95,5,
77.1164,5.70862,3.23181,1.386,19.9336,95,5,
77.1164,5.70862,3.22724,1.386,19.9336,95,5,
77.1165,5.70831,3.22876,1.386,19.9336,95,5,
77.1165,5.70862,3.23029,1.386,19.9336,95,5,
77.1165,5.70892,3.23029,1.386,19.9336,95,5,
77.1166,5.70831,3.23181,1.386,19.9336,95,5,
77.1166,5.70892,3.23181,1.386,19.9336,95,5,
77.1166,5.70831,3.23334,1.386,19.9336,95,5,
77.1167,5.70831,3.23181,1.386,19.9336,95,5,
77.1167,5.70923,3.23486,1.386,19.9336,95,5,
77.1167,5.70862,3.23181,1.386,19.9336,95,5,
77.1168,5.70862,3.23029,1.386,19.9336,95,5,
77.1168,5.70862,3.22876,1.386,19.9336,95,5,
77.1168,5.70862,3.23334,1.386,19.9336,95,5,
77.1169,5.70923,3.23334,1.386,19.9336,95,5,
77.1169,5.70831,3.23334,1.386,19.9336,95,5,
77.1169,5.70831,3.23029,1.386,19.9336,95,5,
77.117,5.70892,3.22724,1.386,19.9336,95,5,
77.117,5.70892,3.22876,1.386,19.9336,95,5,
77.117,5.70923,3.23181,1.386,19.9336,95,5,
77.1171,5.70892,3.23029,1.386,19.9336,95,5,
77.1171,5.70831,3.23181,1.386,19.9336,95,5,
77.1171,5.70923,3.23181,1.386,19.9336,95,5,
77.1172,5.70862,3.23486,1.386,19.9336,95,5,
77.1172,5.70862,3.23181,1.386,19.9336,95,5,
77.1172,5.70831,3.23181,1.386,19.9336,95,5,
77.1173,5.70831,3.23181,1.386,19.9336,95,5,
77.1173,5.70831,3.23029,1.386,19.9336,95,5,
77.1173,5.70831,3.23029,1.386,19.9336,95,5,
77.1174,5.70831,3.23029,1.386,19.9336,95,5,
77.1174,5.70953,3.23029,1.386,19.9336,95,5,
77.1174,5.70953,3.23181,1.386,19.9336,95,5,
77.1175,5.70862,3.22876,1.386,19.9336,95,5,
77.1175,5.70862,3.23181,1.386,19.9336,95,5,
77.1175,5.70862,3.23029,1.386,19.9336,95,5,
77.1176,5.70892,3.23181,1.386,19.9336,95,5,
77.1176,5.70892,3.23029,1.386,19.9336,95,5,
77.1176,5.70984,3.23181,1.386,19.9336,95,5,
77.1177,5.70862,3.23181,1.386,19.9336,95,5,
77.1177,5.70892,3.23334,1.386,19.9336,95,5,
77.1177,5.70831,3.23334,1.386,19.9336,95,5,
77.1178,5.70892,3.23029,1.386,19.9336,95,5,
77.1178,5.70831,3.23181,1.386,19.9336,95,5,
77.1178,5.70892,3.23029,1.386,19.9336,95,5,
77.1179,5.70862,3.22876,1.386,19.9336,95,5,
77.1179,5.70831,3.23029,1.386,19.9336,95,5,
77.1179,5.70831,3.23181,1.386,19.9336,95,5,
77.118,5.70862,3.23181,1.386,19.9336,95,5,
77.118,5.70923,3.23181,1.386,19.9336,95,5,
77.118,5.70862,3.23181,1.386,19.9336,95,5,
77.1181,5.70862,3.23181,1.386,19.9336,95,5,
77.1181,5.70862,3.23029,1.386,19.9336,95,5,
77.1181,5.70953,3.23029,1.386,19.9336,95,5,
77.1182,5.70801,3.23181,1.386,19.9336,95,5,
77.1182,5.70862,3.23181,1.386,19.9336,95,5,
77.1182,5.70892,3.23181,1.386,19.9336,95,5,
77.1183,5.70892,3.23181,1.386,19.9336,95,5,
77.1183,5.70831,3.22876,1.386,19.9336,95,5,
77.1183,5.70862,3.22876,1.386,19.9336,95,5,
77.1184,5.70862,3.23334,1.386,19.9336,95,5,
77.1184,5.70862,3.22876,1.386,19.9336,95,5,
77.1184,5.70892,3.22876,1.386,19.9336,95,5,
77.1185,5.70892,3.22876,1.386,19.9336,95,5,
77.1185,5.70862,3.22876,1.386,19.9336,95,5,
77.1185,5.70404,3.23029,1.386,19.9336,95,5,
77.1186,5.70312,3.23181,1.386,19.9336,95,5,
77.1186,5.70404,3.23029,1.386,19.9336,95,5,
77.1186,5.70343,3.23029,1.386,19.9336,95,5,
77.1187,5.70404,3.22724,1.386,19.9336,95,5,
77.1187,5.70343,3.23181,1.386,19.9336,95,5,
77.1187,5.70404,3.23029,1.386,19.9336,95,5,
77.1188,5.70343,3.22724,1.386,19.9336,95,5,
77.1188,5.70343,3.23029,1.386,19.9336,95,5,
77.1188,5.70404,3.23029,1.386,19.9336,95,5,
77.1189,5.70374,3.23029,1.386,19.9336,95,5,
77.1189,5.70312,3.22876,1.386,19.9336,95,5,
77.1189,5.70312,3.23334,1.386,19.9336,95,5,
77.119,5.70374,3.23029,1.386,19.9336,95,5,
77.119,5.70404,3.23181,1.386,19.9336,95,5,
77.119,5.69824,3.23181,1.386,19.9336,95,5,
77.1191,5.69855,3.23029,1.386,19.9336,95,5,
77.1191,5.69885,3.23029,1.386,19.9336,95,5,
77.1191,5.69946,3.23181,1.386,19.9336,95,5,
77.1192,5.69855,3.23181,1.386,19.9336,95,5,
77.1192,5.69794,3.23334,1.386,19.9336,95,5,
77.1192,5.69916,3.23029,1.386,19.9336,95,5,
77.1193,5.69946,3.22876,1.386,19.9336,95,5,
77.1193,5.69824,3.22876,1.386,19.9336,95,5,
77.1193,5.69855,3.23029,1.386,19.9336,95,5,
77.1194,5.69794,3.23181,1.386,19.9336,95,5,
77.1194,5.69366,3.23029,1.386,19.9336,95,5,
77.1194,5.69397,3.23181,1.386,19.9336,95,5,
77.1195,5.69397,3.23029,1.386,19.9336,95,5,
77.1195,5.69336,3.23181,1.386,19.9336,95,5,
77.1195,5.69397,3.23029,1.386,19.9336,95,5,
77.1196,5.69366,3.23334,1.386,19.9336,95,5,
77.1196,5.69397,3.22876,1.386,19.9336,95,5,
77.1196,5.69427,3.23181,1.386,19.9336,95,5,
77.1197,5.69336,3.23029,1.386,19.9336,95,5,
77.1197,5.68817,3.23029,1.386,19.9336,95,5,
77.1197,5.68909,3.23029,1.386,19.9336,95,5,
77.1198,5.68909,3.23029,1.386,19.9336,95,5,
77.1198,5.68848,3.22724,1.386,19.9336,95,5,
77.1198,5.68909,3.23181,1.386,19.9336,95,5,
77.1199,5.68817,3.23029,1.386,19.9336,95,5,
77.1199,5.68939,3.23181,1.386,19.9336,95,5,
77.1199,5.68512,3.23029,1.386,19.9336,95,5,
77.12,5.6842,3.23029,1.386,19.9336,95,5,
77.12,5.68481,3.23181,1.386,19.9336,95,5,
77.12,5.6839,3.23181,1.386,19.9336,95,5,
77.1201,5.68451,3.23181,1.386,19.9336,95,5,
77.1201,5.68359,3.22876,1.386,19.9336,95,5,
77.1201,5.6839,3.23181,1.386,19.9336,95,5,
77.1202,5.6842,3.23029,1.386,19.9336,95,5,
77.1202,5.67871,3.23029,1.386,19.9336,95,5,
77.1202,5.67932,3.23181,1.386,19.9336,95,5,
77.1203,5.67871,3.23029,1.386,19.9336,95,5,
77.1203,5.67871,3.23181,1.386,19.9336,95,5,
77.1203,5.67871,3.23181,1.386,19.9336,95,5,
77.1204,5.67871,3.23181,1.386,19.9336,95,5,
77.1204,5.6778,3.23334,1.386,19.9336,95,5,
77.1204,5.67413,3.23334,1.386,19.9336,95,5,
77.1205,5.67383,3.23029,1.386,19.9336,95,5,
77.1205,5.67383,3.23181,1.386,19.9336,95,5,
77.1205,5.67474,3.23029,1.386,19.9336,95,5,
77.1206,5.67413,3.22876,1.386,19.9336,95,5,
77.1206,5.67474,3.23334,1.386,19.9336,95,5,
77.1206,5.67108,3.23029,1.386,19.9336,95,5,
77.1207,5.66925,3.22876,1.386,19.9336,95,5,
77.1207,5.66864,3.23181,1.386,19.9336,95,5,
77.1207,5.66895,3.23029,1.386,19.9336,95,5,
77.1208,5.66956,3.23029,1.386,19.9336,95,5,
77.1208,5.66864,3.23029,1.386,19.9336,95,5,
77.1208,5.66925,3.23029,1.386,19.9336,95,5,
77.1209,5.66437,3.22876,1.386,19.9336,95,5,
77.1209,5.66467,3.23486,1.386,19.9336,95,5,
77.1209,5.66406,3.22724,1.386,19.9336,95,5,
77.121,5.66406,3.23029,1.386,19.9336,95,5,
77.121,5.66437,3.23181,1.386,19.9336,95,5,
77.121,5.66406,3.23029,1.386,19.9336,95,5,
77.1211,5.65918,3.23029,1.386,19.9336,95,5,
77.1211,5.65918,3.23181,1.386,19.9336,95,5,
77.1211,5.65918,3.23029,1.386,19.9336,95,5,
77.1212,5.65948,3.23181,1.386,19.9336,95,5,
77.1212,5.6601,3.23181,1.386,19.9336,95,5,
77.1212,5.65887,3.22876,1.386,19.9336,95,5,
77.1213,5.65552,3.23334,1.386,19.9336,95,5,
77.1213,5.65491,3.23334,1.386,19.9336,95,5,
77.1213,5.6546,3.23334,1.386,19.9336,95,5,
77.1214,5.6543,3.23029,1.386,19.9336,95,5,
77.1214,5.65491,3.23029,1.386,19.9336,95,5,
77.1214,5.6546,3.23029,1.386,19.9336,95,5,
77.1215,5.65338,3.23029,1.386,19.9336,95,5,
77.1215,5.65002,3.23029,1.386,19.9336,95,5,
77.1215,5.64911,3.23181,1.386,19.9336,95,5,
77.1216,5.64972,3.22876,1.386,19.9336,95,5,
77.1216,5.64972,3.23181,1.386,19.9336,95,5,
77.1216,5.64972,3.23029,1.386,19.9336,95,5,
77.1217,5.64606,3.23029,1.386,19.9336,95,5,
77.1217,5.64484,3.23029,1.386,19.9336,95,5,
77.1217,5.64423,3.23029,1.386,19.9336,95,5,
77.1218,5.64484,3.22876,1.386,19.9336,95,5,
77.1218,5.64453,3.22876,1.386,19.9336,95,5,
77.1218,5.64514,3.23181,1.386,19.9336,95,5,
77.1219,5.63965,3.23029,1.386,19.9336,95,5,
77.1219,5.63995,3.22876,1.386,19.9336,95,5,
77.1219,5.63965,3.23029,1.386,19.9336,95,5,
77.122,5.63965,3.23181,1.386,19.9336,95,5,
77.122,5.63965,3.23334,1.386,19.9336,95,5,
77.122,5.63843,3.23181,1.386,19.9336,95,5,
77.1221,5.63507,3.22876,1.386,19.9336,95,5,
77.1221,5.63477,3.22876,1.386,19.9336,95,5,
77.1221,5.63446,3.22876,1.386,19.9336,95,5,
77.1222,5.63354,3.23181,1.386,19.9336,95,5,
77.1222,5.63599,3.23181,1.386,19.9336,95,5,
77.1222,5.63049,3.23334,1.386,19.9336,95,5,
77.1223,5.62958,3.23181,1.386,19.9336,95,5,
77.1223,5.63019,3.23029,1.386,19.9336,95,5,
77.1223,5.62958,3.23181,1.386,19.9336,95,5,
77.1224,5.63049,3.22876,1.386,19.9336,95,5,
77.1224,5.62622,3.23029,1.386,19.9336,95,5,
77.1224,5.625,3.23181,1.386,19.9336,95,5,
77.1225,5.625,3.23181,1.386,19.9336,95,5,
77.1225,5.62531,3.22876,1.386,19.9336,95,5,
77.1225,5.62561,3.23029,1.386,19.9336,95,5,
77.1226,5.62042,3.23029,1.386,19.9336,95,5,
77.1226,5.62012,3.23181,1.386,19.9336,95,5,
77.1226,5.62103,3.23029,1.386,19.9336,95,5,
77.1227,5.62103,3.22876,1.386,19.9336,95,5,
77.1227,5.62012,3.23029,1.386,19.9336,95,5,
77.1227,5.61646,3.22876,1.386,19.9336,95,5,
77.1228,5.61615,3.23029,1.386,19.9336,95,5,
77.1228,5.61584,3.23334,1.386,19.9336,95,5,
77.1228,5.61523,3.22724,1.386,19.9336,95,5,
77.1229,5.61584,3.22876,1.386,19.9336,95,5,
77.1229,5.61249,3.23029,1.386,19.9336,95,5,
77.1229,5.61035,3.22876,1.386,19.9336,95,5,
77.123,5.61096,3.23029,1.386,19.9336,95,5,
77.123,5.61096,3.23181,1.386,19.9336,95,5,
77.123,5.61035,3.23181,1.386,19.9336,95,5,
77.1231,5.60974,3.23181,1.386,19.9336,95,5,
77.1231,5.60577,3.23181,1.386,19.9336,95,5,
77.1231,5.60547,3.23181,1.386,19.9336,95,5,
77.1232,5.60547,3.23029,1.386,19.9336,95,5,
77.1232,5.60516,3.23334,1.386,19.9336,95,5,
77.1232,5.60455,3.23334,1.386,19.9336,95,5,
77.1233,5.60059,3.23029,1.386,19.9336,95,5,
77.1233,5.60059,3.23181,1.386,19.9336,95,5,
77.1233,5.60089,3.22724,1.386,19.9336,95,5,
77.1234,5.60089,3.22876,1.386,19.9336,95,5,
77.1234,5.60059,3.23181,1.386,19.9336,95,5,
77.1234,5.5957,3.23486,1.386,19.9336,95,5,
77.1235,5.59601,3.23181,1.386,19.9336,95,5,
77.1235,5.59601,3.23486,1.386,19.9336,95,5,
77.1235,5.59631,3.23029,1.386,19.9336,95,5,
77.1236,5.5954,3.23029,1.386,19.9336,95,5,
77.1236,5.59601,3.23334,1.386,19.9336,95,5,
77.1236,5.59082,3.23029,1.386,19.9336,95,5,
77.1237,5.59082,3.23334,1.386,19.9336,95,5,
77.1237,5.59113,3.22876,1.386,19.9336,95,5,
77.1237,5.59082,3.23334,1.386,19.9336,95,5,
77.1238,5.59082,3.22876,1.386,19.9336,95,5,
77.1238,5.58594,3.23181,1.386,19.9336,95,5,
77.1238,5.58563,3.23029,1.386,19.9336,95,5,
77.1239,5.58563,3.23181,1.386,19.9336,95,5,
77.1239,5.58563,3.22876,1.386,19.9336,95,5,
77.1239,5.58655,3.23029,1.386,19.9336,95,5,
77.124,5.58136,3.23029,1.386,19.9336,95,5,
77.124,5.58197,3.23029,1.386,19.9336,95,5,
77.124,5.58136,3.23029,1.386,19.9336,95,5,
77.1241,5.58136,3.23334,1.386,19.9336,95,5,
77.1241,5.58136,3.23029,1.386,19.9336,95,5,
77.1241,5.5777,3.23029,1.386,19.9336,95,5,
77.1242,5.57617,3.23334,1.386,19.9336,95,5,
77.1242,5.57617,3.23334,1.386,19.9336,95,5,
77.1242,5.57617,3.23334,1.386,19.9336,95,5,
77.1243,5.57648,3.22876,1.386,19.9336,95,5,
77.1243,5.57526,3.23029,1.386,19.9336,95,5,
77.1243,5.5719,3.22876,1.386,19.9336,95,5,
77.1244,5.57098,3.23334,1.386,19.9336,95,5,
77.1244,5.57129,3.23181,1.386,19.9336,95,5,
77.1244,5.57159,3.23029,1.386,19.9336,95,5,
77.1245,5.57068,3.23334,1.386,19.9336,95,5,
77.1245,5.56641,3.23029,1.386,19.9336,95,5,
77.1245,5.5661,3.23181,1.386,19.9336,95,5,
77.1246,5.56671,3.23029,1.386,19.9336,95,5,
77.1246,5.5661,3.23181,1.386,19.9336,95,5,
77.1246,5.56641,3.22724,1.386,19.9336,95,5,
77.1247,5.56152,3.23181,1.386,19.9336,95,5,
77.1247,5.56183,3.23181,1.386,19.9336,95,5,
77.1247,5.56122,3.22876,1.386,19.9336,95,5,
77.1248,5.56091,3.22876,1.386,19.9336,95,5,
77.1248,5.56122,3.22876,1.386,19.9336,95,5,
77.1248,5.55695,3.23181,1.386,19.9336,95,5,
77.1249,5.55664,3.23486,1.386,19.9336,95,5,
77.1249,5.55664,3.22876,1.386,19.9336,95,5,
77.1249,5.55756,3.23029,1.386,19.9336,95,5,
77.125,5.55725,3.23181,1.386,19.9336,95,5,
77.125,5.55359,3.23181,1.386,19.9336,95,5,
77.125,5.55237,3.23029,1.386,19.9336,95,5,
77.1251,5.55267,3.23334,1.386,19.9336,95,5,
77.1251,5.55237,3.23181,1.386,19.9336,95,5,
77.1251,5.55267,3.23486,1.386,19.9336,95,5,
77.1252,5.55237,3.23334,1.386,19.9336,95,5,
77.1252,5.54749,3.23181,1.386,19.9336,95,5,
77.1252,5.54688,3.23029,1.386,19.9336,95,5,
77.1253,5.54718,3.23029,1.386,19.9336,95,5,
77.1253,5.54718,3.23486,1.386,19.9336,95,5,
77.1253,5.54626,3.22724,1.386,19.9336,95,5,
77.1254,5.54291,3.23029,1.386,19.9336,95,5,
77.1254,5.54138,3.22876,1.386,19.9336,95,5,
77.1254,5.54138,3.23029,1.386,19.9336,95,5,
77.1255,5.54169,3.23334,1.386,19.9336,95,5,
77.1255,5.54169,3.23181,1.386,19.9336,95,5,
77.1255,5.53833,3.23029,1.386,19.9336,95,5,
77.1256,5.5365,3.23181,1.386,19.9336,95,5,
77.1256,5.5365,3.23181,1.386,19.9336,95,5,
77.1256,5.53741,3.23181,1.386,19.9336,95,5,
77.1257,5.5368,3.22876,1.386,19.9336,95,5,
77.1257,5.53619,3.23029,1.386,19.9336,95,5,
77.1257,5.53223,3.23334,1.386,19.9336,95,5,
77.1258,5.53253,3.23029,1.386,19.9336,95,5,
77.1258,5.53162,3.22724,1.386,19.9336,95,5,
77.1258,5.53131,3.23181,1.386,19.9336,95,5,
77.1259,5.53192,3.23029,1.386,19.9336,95,5,
77.1259,5.52704,3.23334,1.386,19.9336,95,5,
77.1259,5.52734,3.22876,1.386,19.9336,95,5,
77.126,5.52643,3.22876,1.386,19.9336,95,5,
77.126,5.52704,3.22724,1.386,19.9336,95,5,
77.126,5.52765,3.23181,1.386,19.9336,95,5,
77.1261,5.52277,3.23334,1.386,19.9336,95,5,
77.1261,5.52246,3.22876,1.386,19.9336,95,5,
77.1261,5.52307,3.23181,1.386,19.9336,95,5,
77.1262,5.52307,3.22724,1.386,19.9336,95,5,
77.1262,5.52246,3.23181,1.386,19.9336,95,5,
77.1262,5.51819,3.23029,1.386,19.9336,95,5,
77.1263,5.51697,3.23029,1.386,19.9336,95,5,
77.1263,5.51697,3.23486,1.386,19.9336,95,5,
77.1263,5.51697,3.22876,1.386,19.9336,95,5,
77.1264,5.51758,3.23181,1.386,19.9336,95,5,
77.1264,5.51422,3.23029,1.386,19.9336,95,5,
77.1264,5.513,3.23029,1.386,19.9336,95,5,
77.1265,5.5127,3.23029,1.386,19.9336,95,5,
77.1265,5.51239,3.23334,1.386,19.9336,95,5,
77.1265,5.51208,3.23181,1.386,19.9336,95,5,
77.1266,5.50934,3.23029,1.386,19.9336,95,5,
77.1266,5.50781,3.23029,1.386,19.9336,95,5,
77.1266,5.50842,3.22876,1.386,19.9336,95,5,
77.1267,5.50812,3.23181,1.386,19.9336,95,5,
77.1267,5.5072,3.23181,1.386,19.9336,95,5,
77.1267,5.50659,3.23486,1.386,19.9336,95,5,
77.1268,5.50171,3.23334,1.386,19.9336,95,5,
77.1268,5.50171,3.22876,1.386,19.9336,95,5,
77.1268,5.50262,3.22876,1.386,19.9336,95,5,
77.1269,5.50323,3.23486,1.386,19.9336,95,5,
77.1269,5.5014,3.22876,1.386,19.9336,95,5,
77.1269,5.49866,3.22876,1.386,19.9336,95,5,
77.127,5.49805,3.22876,1.386,19.9336,95,5,
77.127,5.49744,3.23486,1.386,19.9336,95,5,
77.127,5.49805,3.22876,1.386,19.9336,95,5,
77.1271,5.49683,3.23334,1.386,19.9336,95,5,
77.1271,5.49316,3.23029,1.386,19.9336,95,5,
77.1271,5.49316,3.23181,1.386,19.9336,95,5,
77.1272,5.49316,3.23181,1.386,19.9336,95,5,
77.1272,5.49225,3.23029,1.386,19.9336,95,5,
77.1272,5.49194,3.22876,1.386,19.9336,95,5,
77.1273,5.48828,3.22876,1.386,19.9336,95,5,
77.1273,5.48828,3.23029,1.386,19.9336,95,5,
77.1273,5.48828,3.22724,1.386,19.9336,95,5,
77.1274,5.48737,3.23181,1.386,19.9336,95,5,
77.1274,5.48492,3.23181,1.386,19.9336,95,5,
77.1274,5.4837,3.23334,1.386,19.9336,95,5,
77.1275,5.4834,3.23334,1.386,19.9336,95,5,
77.1275,5.4834,3.23029,1.386,19.9336,95,5,
77.1275,5.48401,3.23029,1.386,19.9336,95,5,
77.1276,5.47852,3.23029,1.386,19.9336,95,5,
77.1276,5.47913,3.23029,1.386,19.9336,95,5,
77.1276,5.47852,3.23029,1.386,19.9336,95,5,
77.1277,5.4776,3.23334,1.386,19.9336,95,5,
77.1277,5.47668,3.23029,1.386,19.9336,95,5,
77.1277,5.47302,3.23486,1.386,19.9336,95,5,
77.1278,5.47394,3.23181,1.386,19.9336,95,5,
77.1278,5.47302,3.23029,1.386,19.9336,95,5,
77.1278,5.47302,3.23029,1.386,19.9336,95,5,
77.1279,5.46844,3.23029,1.386,19.9336,95,5,
77.1279,5.46906,3.22876,1.386,19.9336,95,5,
77.1279,5.46844,3.23029,1.386,19.9336,95,5,
77.128,5.46844,3.23334,1.386,19.9336,95,5,
77.128,5.46417,3.22724,1.386,19.9336,95,5,
77.128,5.46295,3.23029,1.386,19.9336,95,5,
77.1281,5.46387,3.23181,1.386,19.9336,95,5,
77.1281,5.46295,3.23029,1.386,19.9336,95,5,
77.1281,5.45929,3.22876,1.386,19.9336,95,5,
77.1282,5.45837,3.23029,1.386,19.9336,95,5,
77.1282,5.45898,3.23029,1.386,19.9336,95,5,
77.1282,5.45532,3.23029,1.386,19.9336,95,5,
77.1283,5.4538,3.23181,1.386,19.9336,95,5,
77.1283,5.45349,3.23181,1.386,19.9336,95,5,
77.1283,5.4541,3.23334,1.386,19.9336,95,5,
77.1284,5.44922,3.23029,1.386,19.9336,95,5,
77.1284,5.44922,3.23181,1.386,19.9336,95,5,
77.1284,5.44861,3.23181,1.386,19.9336,95,5,
77.1285,5.44525,3.23181,1.386,19.9336,95,5,
77.1285,5.44373,3.23029,1.386,19.9336,95,5,
77.1285,5.44434,3.23181,1.386,19.9336,95,5,
77.1286,5.44464,3.23029,1.386,19.9336,95,5,
77.1286,5.44006,3.23486,1.386,19.9336,95,5,
77.1286,5.43915,3.23029,1.386,19.9336,95,5,
77.1287,5.43976,3.23181,1.386,19.9336,95,5,
77.1287,5.43488,3.23181,1.386,19.9336,95,5,
77.1287,5.43488,3.23334,1.386,19.9336,95,5,
77.1288,5.43457,3.23029,1.386,19.9336,95,5,
77.1288,5.4306,3.23181,1.386,19.9336,95,5,
77.1288,5.42969,3.22876,1.386,19.9336,95,5,
77.1289,5.42999,3.23029,1.386,19.9336,95,5,
77.1289,5.42603,3.23029,1.386,19.9336,95,5,
77.1289,5.42419,3.23334,1.386,19.9336,95,5,
77.129,5.42389,3.23029,1.386,19.9336,95,5,
77.129,5.42114,3.22876,1.386,19.9336,95,5,
77.129,5.41931,3.23334,1.386,19.9336,95,5,
77.1291,5.41992,3.23181,1.386,19.9336,95,5,
77.1291,5.41565,3.23029,1.386,19.9336,95,5,
77.1291,5.41504,3.23486,1.386,19.9336,95,5,
77.1292,5.41473,3.22876,1.386,19.9336,95,5,
77.1292,5.41077,3.22876,1.386,19.9336,95,5,
77.1292,5.40955,3.23334,1.386,19.9336,95,5,
77.1293,5.40924,3.23029,1.386,19.9336,95,5,
77.1293,5.40497,3.23334,1.386,19.9336,95,5,
77.1293,5.40436,3.23334,1.386,19.9336,95,5,
77.1294,5.40436,3.22876,1.386,19.9336,95,5,
77.1294,5.40039,3.23181,1.386,19.9336,95,5,
77.1294,5.40009,3.23029,1.386,19.9336,95,5,
77.1295,5.39825,3.23181,1.386,19.9336,95,5,
77.1295,5.3949,3.23029,1.386,19.9336,95,5,
77.1295,5.39551,3.23181,1.386,19.9336,95,5,
77.1296,5.39124,3.23334,1.386,19.9336,95,5,
77.1296,5.38971,3.23181,1.386,19.9336,95,5,
77.1296,5.38971,3.23029,1.386,19.9336,95,5,
77.1297,5.38544,3.23029,1.386,19.9336,95,5,
77.1297,5.38513,3.23181,1.386,19.9336,95,5,
77.1297,5.38422,3.23181,1.386,19.9336,95,5,
77.1298,5.38025,3.22876,1.386,19.9336,95,5,
77.1298,5.38086,3.23029,1.386,19.9336,95,5,
77.1298,5.37598,3.23029,1.386,19.9336,95,5,
77.1299,5.37476,3.23181,1.386,19.9336,95,5,
77.1299,5.37445,3.23181,1.386,19.9336,95,5,
77.1299,5.37018,3.22724,1.386,19.9336,95,5,
77.13,5.36926,3.23181,1.386,19.9336,95,5,
77.13,5.36591,3.23029,1.386,19.9336,95,5,
77.13,5.36499,3.23029,1.386,19.9336,95,5,
77.1301,5.36499,3.23181,1.386,19.9336,95,5,
77.1301,5.36072,3.23181,1.386,19.9336,95,5,
77.1301,5.36011,3.23029,1.386,19.9336,95,5,
77.1302,5.35583,3.23029,1.386,19.9336,95,5,
77.1302,5.35583,3.22876,1.386,19.9336,95,5,
77.1302,5.35187,3.22876,1.386,19.9336,95,5,
77.1303,5.35065,3.23029,1.386,19.9336,95,5,
77.1303,5.34973,3.23181,1.386,19.9336,95,5,
77.1303,5.34576,3.23181,1.386,19.9336,95,5,
77.1304,5.34576,3.23029,1.386,19.9336,95,5,
77.1304,5.34058,3.23181,1.386,19.9336,95,5,
77.1304,5.34058,3.23181,1.386,19.9336,95,5,
77.1305,5.33661,3.22876,1.386,19.9336,95,5,
77.1305,5.33569,3.23029,1.386,19.9336,95,5,
77.1305,5.33234,3.23181,1.386,19.9336,95,5,
77.1306,5.33142,3.23029,1.386,19.9336,95,5,
77.1306,5.3302,3.23029,1.386,19.9336,95,5,
77.1306,5.32593,3.23181,1.386,19.9336,95,5,
77.1307,5.32593,3.23334,1.386,19.9336,95,5,
77.1307,5.32104,3.23334,1.386,19.9336,95,5,
77.1307,5.32104,3.23029,1.386,19.9336,95,5,
77.1308,5.31677,3.23334,1.386,19.9336,95,5,
77.1308,5.31586,3.23181,1.386,19.9336,95,5,
77.1308,5.31189,3.23029,1.386,19.9336,95,5,
77.1309,5.31158,3.23181,1.386,19.9336,95,5,
77.1309,5.30853,3.23181,1.386,19.9336,95,5,
77.1309,5.30701,3.23029,1.386,19.9336,95,5,
77.131,5.30609,3.22876,1.386,19.9336,95,5,
77.131,5.30243,3.23029,1.386,19.9336,95,5,
77.131,5.30121,3.22724,1.386,19.9336,95,5,
77.1311,5.29633,3.23181,1.386,19.9336,95,5,
77.1311,5.29572,3.23334,1.386,19.9336,95,5,
77.1311,5.29205,3.22876,1.386,19.9336,95,5,
77.1312,5.29266,3.23334,1.386,19.9336,95,5,
77.1312,5.28748,3.23029,1.386,19.9336,95,5,
77.1312,5.28717,3.23486,1.386,19.9336,95,5,
77.1313,5.28198,3.23029,1.386,19.9336,95,5,
77.1313,5.28229,3.23181,1.386,19.9336,95,5,
77.1313,5.27771,3.23334,1.386,19.9336,95,5,
77.1314,5.2771,3.23029,1.386,19.9336,95,5,
77.1314,5.27283,3.22876,1.386,19.9336,95,5,
77.1314,5.27313,3.23181,1.386,19.9336,95,5,
77.1315,5.26855,3.23334,1.386,19.9336,95,5,
77.1315,5.26764,3.22724,1.386,19.9336,95,5,
77.1315,5.26398,3.23029,1.386,19.9336,95,5,
77.1316,5.26184,3.23029,1.386,19.9336,95,5,
77.1316,5.2594,3.23181,1.386,19.9336,95,5,
77.1316,5.25787,3.23029,1.386,19.9336,95,5,
77.1317,5.25391,3.23334,1.386,19.9336,95,5,
77.1317,5.25269,3.23181,1.386,19.9336,95,5,
77.1317,5.24902,3.23181,1.386,19.9336,95,5,
77.1318,5.2478,3.23029,1.386,19.9336,95,5,
77.1318,5.24719,3.23334,1.386,19.9336,95,5,
77.1318,5.24231,3.22876,1.386,19.9336,95,5,
77.1319,5.242,3.23181,1.386,19.9336,95,5,
77.1319,5.23804,3.23029,1.386,19.9336,95,5,
77.1319,5.23682,3.23181,1.386,19.9336,95,5,
77.132,5.23285,3.23029,1.386,19.9336,95,5,
77.132,5.23254,3.22876,1.386,19.9336,95,5,
77.132,5.22858,3.23181,1.386,19.9336,95,5,
77.1321,5.22797,3.23029,1.386,19.9336,95,5,
77.1321,5.22369,3.23486,1.386,19.9336,95,5,
77.1321,5.22369,3.23029,1.386,19.9336,95,5,
77.1322,5.21881,3.22876,1.386,19.9336,95,5,
77.1322,5.21881,3.22876,1.386,19.9336,95,5,
77.1322,5.21362,3.23029,1.386,19.9336,95,5,
77.1323,5.21362,3.23029,1.386,19.9336,95,5,
77.1323,5.20874,3.23181,1.386,19.9336,95,5,
77.1323,5.20874,3.23029,1.386,19.9336,95,5,
77.1324,5.20386,3.23029,1.386,19.9336,95,5,
77.1324,5.20325,3.23181,1.386,19.9336,95,5,
77.1324,5.19928,3.23029,1.386,19.9336,95,5,
77.1325,5.19928,3.23334,1.386,19.9336,95,5,
77.1325,5.1944,3.23181,1.386,19.9336,95,5,
77.1325,5.19379,3.23029,1.386,19.9336,95,5,
77.1326,5.18951,3.23486,1.386,19.9336,95,5,
77.1326,5.18951,3.23029,1.386,19.9336,95,5,
77.1326,5.18402,3.22724,1.386,19.9336,95,5,
77.1327,5.18402,3.22724,1.386,19.9336,95,5,
77.1327,5.17975,3.22876,1.386,19.9336,95,5,
77.1327,5.17914,3.22876,1.386,19.9336,95,5,
77.1328,5.17517,3.23334,1.386,19.9336,95,5,
77.1328,5.17426,3.23029,1.386,19.9336,95,5,
77.1328,5.1709,3.23181,1.386,19.9336,95,5,
77.1329,5.16937,3.23181,1.386,19.9336,95,5,
77.1329,5.16602,3.23181,1.386,19.9336,95,5,
77.1329,5.16479,3.23029,1.386,19.9336,95,5,
77.133,5.16327,3.23029,1.386,19.9336,95,5,
77.133,5.15991,3.23029,1.386,19.9336,95,5,
77.133,5.15869,3.23029,1.386,19.9336,95,5,
77.1331,5.15533,3.23181,1.386,19.9336,95,5,
77.1331,5.15411,3.23181,1.386,19.9336,95,5,
77.1331,5.14984,3.23181,1.386,19.9336,95,5,
77.1332,5.15015,3.23181,1.386,19.9336,95,5,
77.1332,5.14496,3.22876,1.386,19.9336,95,5,
77.1332,5.14557,3.23029,1.386,19.9336,95,5,
77.1333,5.14099,3.23029,1.386,19.9336,95,5,
77.1333,5.14099,3.22724,1.386,19.9336,95,5,
77.1333,5.1358,3.23181,1.386,19.9336,95,5,
77.1334,5.1358,3.23029,1.386,19.9336,95,5,
77.1334,5.13214,3.23029,1.386,19.9336,95,5,
77.1334,5.13092,3.23181,1.386,19.9336,95,5,
77.1335,5.12695,3.22876,1.386,19.9336,95,5,
77.1335,5.12543,3.23334,1.386,19.9336,95,5,
77.1335,5.12482,3.23181,1.386,19.9336,95,5,
77.1336,5.12146,3.23334,1.386,19.9336,95,5,
77.1336,5.12115,3.22724,1.386,19.9336,95,5,
77.1336,5.11536,3.23029,1.386,19.9336,95,5,
77.1337,5.11536,3.22876,1.386,19.9336,95,5,
77.1337,5.11078,3.22724,1.386,19.9336,95,5,
77.1337,5.11078,3.23181,1.386,19.9336,95,5,
77.1338,5.10773,3.23181,1.386,19.9336,95,5,
77.1338,5.1059,3.23181,1.386,19.9336,95,5,
77.1338,5.10498,3.23029,1.386,19.9336,95,5,
77.1339,5.10071,3.22876,1.386,19.9336,95,5,
77.1339,5.10132,3.22876,1.386,19.9336,95,5,
77.1339,5.09613,3.22876,1.386,19.9336,95,5,
77.134,5.09674,3.23334,1.386,19.9336,95,5,
77.134,5.09155,3.23029,1.386,19.9336,95,5,
77.134,5.09125,3.23181,1.386,19.9336,95,5,
77.1341,5.09003,3.22876,1.386,19.9336,95,5,
77.1341,5.08575,3.23029,1.386,19.9336,95,5,
77.1341,5.08606,3.23181,1.386,19.9336,95,5,
77.1342,5.08118,3.23181,1.386,19.9336,95,5,
77.1342,5.08148,3.23029,1.386,19.9336,95,5,
77.1342,5.07751,3.23029,1.386,19.9336,95,5,
77.1343,5.07629,3.23486,1.386,19.9336,95,5,
77.1343,5.0766,3.23029,1.386,19.9336,95,5,
77.1343,5.07172,3.23181,1.386,19.9336,95,5,
77.1344,5.07202,3.23334,1.386,19.9336,95,5,
77.1344,5.06836,3.23029,1.386,19.9336,95,5,
77.1344,5.06775,3.23029,1.386,19.9336,95,5,
77.1345,5.06653,3.23334,1.386,19.9336,95,5,
77.1345,5.06195,3.23486,1.386,19.9336,95,5,
77.1345,5.06256,3.22876,1.386,19.9336,95,5,
77.1346,5.0589,3.23029,1.386,19.9336,95,5,
77.1346,5.05737,3.23486,1.386,19.9336,95,5,
77.1346,5.05737,3.23029,1.386,19.9336,95,5,
77.1347,5.0528,3.23181,1.386,19.9336,95,5,
77.1347,5.05249,3.23181,1.386,19.9336,95,5,
77.1347,5.05127,3.22876,1.386,19.9336,95,5,
77.1348,5.0473,3.23334,1.386,19.9336,95,5,
77.1348,5.0473,3.23029,1.386,19.9336,95,5,
77.1348,5.04364,3.23029,1.386,19.9336,95,5,
77.1349,5.04242,3.22876,1.386,19.9336,95,5,
77.1349,5.04272,3.23181,1.386,19.9336,95,5,
77.1349,5.03876,3.23029,1.386,19.9336,95,5,
77.135,5.03754,3.22724,1.386,19.9336,95,5,
77.135,5.03723,3.23029,1.386,19.9336,95,5,
77.135,5.03387,3.23029,1.386,19.9336,95,5,
77.1351,5.03265,3.23029,1.386,19.9336,95,5,
77.1351,5.03235,3.23181,1.386,19.9336,95,5,
77.1351,5.02869,3.23334,1.386,19.9336,95,5,
77.1352,5.02838,3.23181,1.386,19.9336,95,5,
77.1352,5.02747,3.23029,1.386,19.9336,95,5,
77.1352,5.02441,3.23181,1.386,19.9336,95,5,
77.1353,5.02289,3.22876,1.386,19.9336,95,5,
77.1353,5.02289,3.23181,1.386,19.9336,95,5,
77.1353,5.02319,3.23181,1.386,19.9336,95,5,
77.1354,5.01801,3.23181,1.386,19.9336,95,5,
77.1354,5.01801,3.23181,1.386,19.9336,95,5,
77.1354,5.01862,3.23334,1.386,19.9336,95,5,
77.1355,5.01495,3.23029,1.386,19.9336,95,5,
77.1355,5.01404,3.23029,1.386,19.9336,95,5,
77.1355,5.01343,3.22876,1.386,19.9336,95,5,
77.1356,5.01343,3.23334,1.386,19.9336,95,5,
77.1356,5.00854,3.23181,1.386,19.9336,95,5,
77.1356,5.00854,3.23334,1.386,19.9336,95,5,
77.1357,5.00885,3.23486,1.386,19.9336,95,5,
77.1357,5.00854,3.22876,1.386,19.9336,95,5,
77.1357,5.00275,3.22876,1.386,19.9336,95,5,
77.1358,5.00366,3.23181,1.386,19.9336,95,5,
77.1358,5.00366,3.23029,1.386,19.9336,95,5,
77.1358,5.00397,3.23181,1.386,19.9336,95,5,
77.1359,4.99939,3.23029,1.386,19.9336,95,5,
77.1359,4.99817,3.23029,1.386,19.9336,95,5,
77.1359,4.99878,3.23334,1.386,19.9336,95,5,
77.136,4.99908,3.23181,1.386,19.9336,95,5,
77.136,4.99786,3.23334,1.386,19.9336,95,5,
77.136,4.99359,3.22876,1.386,19.9336,95,5,
77.1361,4.99359,3.23029,1.386,19.9336,95,5,
77.1361,4.99359,3.23334,1.386,19.9336,95,5,
77.1361,4.99329,3.23181,1.386,19.9336,95,5,
77.1362,4.99207,3.23334,1.386,19.9336,95,5,
77.1362,4.98749,3.23181,1.386,19.9336,95,5,
77.1362,4.98871,3.23029,1.386,19.9336,95,5,
77.1363,4.98871,3.23334,1.386,19.9336,95,5,
77.1363,4.98871,3.23181,1.386,19.9336,95,5,
77.1363,4.9884,3.22876,1.386,19.9336,95,5,
77.1364,4.98505,3.23029,1.386,19.9336,95,5,
77.1364,4.98352,3.23334,1.386,19.9336,95,5,
77.1364,4.98383,3.23029,1.386,19.9336,95,5,
77.1365,4.98322,3.22876,1.386,19.9336,95,5,
77.1365,4.98413,3.23334,1.386,19.9336,95,5,
77.1365,4.98352,3.22876,1.386,19.9336,95,5,
77.1366,4.98383,3.23181,1.386,19.9336,95,5,
77.1366,4.97894,3.22724,1.386,19.9336,95,5,
77.1366,4.97864,3.23486,1.386,19.9336,95,5,
77.1367,4.97894,3.23029,1.386,19.9336,95,5,
77.1367,4.97833,3.23181,1.386,19.9336,95,5,
77.1367,4.97894,3.23181,1.386,19.9336,95,5,
77.1368,4.97925,3.22876,1.386,19.9336,95,5,
77.1368,4.97894,3.23181,1.386,19.9336,95,5,
77.1368,4.97833,3.23334,1.386,19.9336,95,5,
77.1369,4.97894,3.22876,1.386,19.9336,95,5,
77.1369,4.97406,3.23181,1.386,19.9336,95,5,
77.1369,4.97345,3.22876,1.386,19.9336,95,5,
77.137,4.97406,3.22876,1.386,19.9336,95,5,
77.137,4.97437,3.22876,1.386,19.9336,95,5,
77.137,4.97437,3.23181,1.386,19.9336,95,5,
77.1371,4.97345,3.22876,1.386,19.9336,95,5,
77.1371,4.97406,3.23029,1.386,19.9336,95,5,
77.1371,4.97406,3.23334,1.386,19.9336,95,5,
77.1372,4.97406,3.23181,1.386,19.9336,95,5,
77.1372,4.97406,3.23029,1.386,19.9336,95,5,
77.1372,4.97406,3.22876,1.386,19.9336,95,5,
77.1373,4.97406,3.23029,1.386,19.9336,95,5,
77.1373,4.97406,3.22876,1.386,19.9336,95,5,
77.1373,4.97345,3.23181,1.386,19.9336,95,5,
77.1374,4.97345,3.22876,1.386,19.9336,95,5,
77.1374,4.96857,3.23334,1.386,19.9336,95,5,
77.1374,4.96948,3.22876,1.386,19.9336,95,5,
77.1375,4.96857,3.23029,1.386,19.9336,95,5,
77.1375,4.96887,3.23181,1.386,19.9336,95,5,
77.1375,4.96948,3.23181,1.386,19.9336,95,5,
77.1376,4.96918,3.23029,1.386,19.9336,95,5,
77.1376,4.96918,3.23029,1.386,19.9336,95,5,
77.1376,4.96948,3.22876,1.386,19.9336,95,5,
77.1377,4.96826,3.23181,1.386,19.9336,95,5,
77.1377,4.96887,3.23181,1.386,19.9336,95,5,
77.1377,4.96887,3.23181,1.386,19.9336,95,5,
77.1378,4.96979,3.23029,1.386,19.9336,95,5,
77.1378,4.96918,3.23334,1.386,19.9336,95,5,
77.1378,4.96948,3.23029,1.386,19.9336,95,5,
77.1379,4.96857,3.23181,1.386,19.9336,95,5,
77.1379,4.96918,3.23029,1.386,19.9336,95,5,
77.1379,4.96918,3.23029,1.386,19.9336,95,5,
77.138,4.96918,3.22724,1.386,19.9336,95,5,
77.138,4.96887,3.23181,1.386,19.9336,95,5,
77.138,4.97223,3.23181,1.386,19.9336,95,5,
77.1381,4.97437,3.22724,1.386,19.9336,95,5,
77.1381,4.97375,3.23334,1.386,19.9336,95,5,
77.1381,4.97375,3.23029,1.386,19.9336,95,5,
77.1382,4.97406,3.23181,1.386,19.9336,95,5,
77.1382,4.97406,3.23029,1.386,19.9336,95,5,
77.1382,4.97437,3.22876,1.386,19.9336,95,5,
77.1383,4.97437,3.23181,1.386,19.9336,95,5,
77.1383,4.97406,3.23334,1.386,19.9336,95,5,
77.1383,4.97437,3.22876,1.386,19.9336,95,5,
77.1384,4.97437,3.23181,1.386,19.9336,95,5,
77.1384,4.97375,3.22876,1.386,19.9336,95,5,
77.1384,4.97467,3.23029,1.386,19.9336,95,5,
77.1385,4.97406,3.23181,1.386,19.9336,95,5,
77.1385,4.97467,3.22876,1.386,19.9336,95,5,
77.1385,4.97345,3.23181,1.386,19.9336,95,5,
77.1386,4.97467,3.23334,1.386,19.9336,95,5,
77.1386,4.97894,3.23029,1.386,19.9336,95,5,
77.1386,4.97864,3.22876,1.386,19.9336,95,5,
77.1387,4.97864,3.23029,1.386,19.9336,95,5,
77.1387,4.97864,3.22724,1.386,19.9336,95,5,
77.1387,4.97864,3.23334,1.386,19.9336,95,5,
77.1388,4.97894,3.23639,1.386,19.9336,95,5,
77.1388,4.97894,3.24097,1.386,19.9336,95,5,
77.1388,4.97955,3.24097,1.386,19.9336,95,5,
77.1389,4.97955,3.24249,1.386,19.9336,95,5,
77.1389,4.97925,3.24097,1.386,19.9336,95,5,
77.1389,4.97955,3.24249,1.386,19.9336,95,5,
77.139,4.98383,3.24402,1.386,19.9336,95,5,
77.139,4.98383,3.24249,1.386,19.9336,95,5,
77.139,4.98383,3.23944,1.386,19.9336,95,5,
77.1391,4.98322,3.24249,1.386,19.9336,95,5,
77.1391,4.98413,3.24402,1.386,19.9336,95,5,
77.1391,4.98352,3.24402,1.386,19.9336,95,5,
77.1392,4.98383,3.24097,1.386,19.9336,95,5,
77.1392,4.98444,3.24249,1.386,19.9336,95,5,
77.1392,4.98871,3.24249,1.386,19.9336,95,5,
77.1393,4.98901,3.24097,1.386,19.9336,95,5,
77.1393,4.98871,3.24402,1.386,19.9336,95,5,
77.1393,4.98871,3.24249,1.386,19.9336,95,5,
77.1394,4.98871,3.24249,1.386,19.9336,95,5,
77.1394,4.98871,3.24249,1.386,19.9336,95,5,
77.1394,4.98901,3.24097,1.386,19.9336,95,5,
77.1395,4.98962,3.24097,1.386,19.9336,95,5,
77.1395,4.9942,3.24402,1.386,19.9336,95,5,
77.1395,4.9939,3.24097,1.386,19.9336,95,5,
77.1396,4.99359,3.24249,1.386,19.9336,95,5,
77.1396,4.99329,3.24402,1.386,19.9336,95,5,
77.1396,4.9939,3.24402,1.386,19.9336,95,5,
77.1397,4.9942,3.24402,1.386,19.9336,95,5,
77.1397,4.99725,3.24402,1.386,19.9336,95,5,
77.1397,4.99908,3.24097,1.386,19.9336,95,5,
77.1398,4.99908,3.23944,1.386,19.9336,95,5,
77.1398,4.99756,3.24249,1.386,19.9336,95,5,
77.1398,4.99878,3.24402,1.386,19.9336,95,5,
77.1399,4.99878,3.23792,1.386,19.9336,95,5,
77.1399,4.99847,3.24249,1.386,19.9336,95,5,
77.1399,5.00305,3.24249,1.386,19.9336,95,5,
77.14,5.00336,3.24402,1.386,19.9336,95,5,
77.14,5.00275,3.24402,1.386,19.9336,95,5,
77.14,5.00336,3.24097,1.386,19.9336,95,5,
77.1401,5.00336,3.24555,1.386,19.9336,95,5,
77.1401,5.00336,3.23944,1.386,19.9336,95,5,
77.1401,5.00732,3.24249,1.386,19.9336,95,5,
77.1402,5.00885,3.24402,1.386,19.9336,95,5,
77.1402,5.00824,3.24097,1.386,19.9336,95,5,
77.1402,5.00793,3.24097,1.386,19.9336,95,5,
77.1403,5.00793,3.24097,1.386,19.9336,95,5,
77.1403,5.00824,3.24249,1.386,19.9336,95,5,
77.1403,5.01312,3.24402,1.386,19.9336,95,5,
77.1404,5.01312,3.24097,1.386,19.9336,95,5,
77.1404,5.01312,3.24097,1.386,19.9336,95,5,
77.1404,5.01373,3.23792,1.386,19.9336,95,5,
77.1405,5.01251,3.24707,1.386,19.9336,95,5,
77.1405,5.01373,3.24402,1.386,19.9336,95,5,
77.1405,5.0174,3.24402,1.386,19.9336,95,5,
77.1406,5.01831,3.24402,1.386,19.9336,95,5,
77.1406,5.01801,3.24249,1.386,19.9336,95,5,
77.1406,5.01801,3.24097,1.386,19.9336,95,5,
77.1407,5.01801,3.24402,1.386,19.9336,95,5,
77.1407,5.02228,3.24402,1.386,19.9336,95,5,
77.1407,5.02319,3.24249,1.386,19.9336,95,5,
77.1408,5.02289,3.24555,1.386,19.9336,95,5,
77.1408,5.02258,3.24402,1.386,19.9336,95,5,
77.1408,5.02289,3.24097,1.386,19.9336,95,5,
77.1409,5.02625,3.24249,1.386,19.9336,95,5,
77.1409,5.02808,3.24249,1.386,19.9336,95,5,
77.1409,5.02808,3.24402,1.386,19.9336,95,5,
77.141,5.02808,3.24249,1.386,19.9336,95,5,
77.141,5.02808,3.24402,1.386,19.9336,95,5,
77.141,5.0293,3.24555,1.386,19.9336,95,5,
77.1411,5.03357,3.24097,1.386,19.9336,95,5,
77.1411,5.03204,3.23944,1.386,19.9336,95,5,
77.1411,5.03265,3.24249,1.386,19.9336,95,5,
77.1412,5.03296,3.24097,1.386,19.9336,95,5,
77.1412,5.03418,3.24402,1.386,19.9336,95,5,
77.1412,5.03784,3.24402,1.386,19.9336,95,5,
77.1413,5.03723,3.24249,1.386,19.9336,95,5,
77.1413,5.03754,3.24555,1.386,19.9336,95,5,
77.1413,5.03754,3.24402,1.386,19.9336,95,5,
77.1414,5.0412,3.24402,1.386,19.9336,95,5,
77.1414,5.04272,3.24555,1.386,19.9336,95,5,
77.1414,5.04272,3.24097,1.386,19.9336,95,5,
77.1415,5.04211,3.24249,1.386,19.9336,95,5,
77.1415,5.04272,3.24555,1.386,19.9336,95,5,
77.1415,5.0473,3.24097,1.386,19.9336,95,5,
77.1416,5.047,3.24249,1.386,19.9336,95,5,
77.1416,5.0473,3.24249,1.386,19.9336,95,5,
77.1416,5.0473,3.24097,1.386,19.9336,95,5,
77.1417,5.05127,3.24402,1.386,19.9336,95,5,
77.1417,5.05249,3.24402,1.386,19.9336,95,5,
77.1417,5.05188,3.24402,1.386,19.9336,95,5,
77.1418,5.05188,3.24249,1.386,19.9336,95,5,
77.1418,5.0528,3.24097,1.386,19.9336,95,5,
77.1418,5.05737,3.24402,1.386,19.9336,95,5,
77.1419,5.05707,3.24249,1.386,19.9336,95,5,
77.1419,5.05707,3.24097,1.386,19.9336,95,5,
77.1419,5.05859,3.24097,1.386,19.9336,95,5,
77.142,5.06256,3.24249,1.386,19.9336,95,5,
77.142,5.06256,3.24097,1.386,19.9336,95,5,
77.142,5.06165,3.24249,1.386,19.9336,95,5,
77.1421,5.06348,3.24097,1.386,19.9336,95,5,
77.1421,5.06714,3.24402,1.386,19.9336,95,5,
77.1421,5.06653,3.24097,1.386,19.9336,95,5,
77.1422,5.06714,3.24402,1.386,19.9336,95,5,
77.1422,5.0705,3.24097,1.386,19.9336,95,5,
77.1422,5.07141,3.24707,1.386,19.9336,95,5,
77.1423,5.07233,3.24097,1.386,19.9336,95,5,
77.1423,5.07172,3.24707,1.386,19.9336,95,5,
77.1423,5.07751,3.24555,1.386,19.9336,95,5,
77.1424,5.07782,3.24402,1.386,19.9336,95,5,
77.1424,5.07629,3.24555,1.386,19.9336,95,5,
77.1424,5.07996,3.24097,1.386,19.9336,95,5,
77.1425,5.08118,3.24555,1.386,19.9336,95,5,
77.1425,5.08118,3.24402,1.386,19.9336,95,5,
77.1425,5.08118,3.24402,1.386,19.9336,95,5,
77.1426,5.08636,3.24555,1.386,19.9336,95,5,
77.1426,5.08545,3.24097,1.386,19.9336,95,5,
77.1426,5.08636,3.24249,1.386,19.9336,95,5,
77.1427,5.09094,3.23944,1.386,19.9336,95,5,
77.1427,5.09125,3.24097,1.386,19.9336,95,5,
77.1427,5.09125,3.24097,1.386,19.9336,95,5,
77.1428,5.0946,3.24249,1.386,19.9336,95,5,
77.1428,5.09613,3.24249,1.386,19.9336,95,5,
77.1428,5.09613,3.24097,1.386,19.9336,95,5,
77.1429,5.09674,3.24249,1.386,19.9336,95,5,
77.1429,5.10101,3.24097,1.386,19.9336,95,5,
77.1429,5.10101,3.24097,1.386,19.9336,95,5,
77.143,5.10132,3.24402,1.386,19.9336,95,5,
77.143,5.10559,3.24097,1.386,19.9336,95,5,
77.143,5.10529,3.24249,1.386,19.9336,95,5,
77.1431,5.1059,3.24402,1.386,19.9336,95,5,
77.1431,5.11078,3.24555,1.386,19.9336,95,5,
77.1431,5.11108,3.24402,1.386,19.9336,95,5,
77.1432,5.11078,3.24402,1.386,19.9336,95,5,
77.1432,5.11536,3.24402,1.386,19.9336,95,5,
77.1432,5.11566,3.24249,1.386,19.9336,95,5,
77.1433,5.11536,3.24402,1.386,19.9336,95,5,
77.1433,5.12054,3.24097,1.386,19.9336,95,5,
77.1433,5.12054,3.24097,1.386,19.9336,95,5,
77.1434,5.12054,3.24249,1.386,19.9336,95,5,
77.1434,5.12604,3.24402,1.386,19.9336,95,5,
77.1434,5.12543,3.24249,1.386,19.9336,95,5,
77.1435,5.12634,3.24402,1.386,19.9336,95,5,
77.1435,5.13,3.24249,1.386,19.9336,95,5,
77.1435,5.13031,3.24249,1.386,19.9336,95,5,
77.1436,5.13336,3.24249,1.386,19.9336,95,5,
77.1436,5.13489,3.23944,0,19.9336,95,5,
77.1436,5.1358,3.24402,0,19.9336,95,5,
77.1437,5.14008,3.24402,0,19.9336,95,5,
77.1437,5.13977,3.24249,0,19.9336,95,5,
77.1437,5.14008,3.24097,0,19.9336,95,5,
77.1438,5.14465,3.24402,0,19.9336,95,5,
77.1438,5.14496,3.24097,0,19.9336,95,5,
77.1438,5.14648,3.23944,0,19.9336,95,5,
77.1439,5.15045,3.24249,0,19.9336,95,5,
77.1439,5.15015,3.24402,0,19.9336,95,5,
77.1439,5.15472,3.24097,0,19.9336,95,5,
77.144,5.15472,3.24555,0,19.9336,95,5,
77.144,5.15594,3.24249,0,19.9336,95,5,
77.144,5.15961,3.24097,0,19.9336,95,5,
77.1441,5.15961,3.24249,0,19.9336,95,5,
77.1441,5.16357,3.24097,0,19.9336,95,5,
77.1441,5.16479,3.24097,0,19.9336,95,5,
77.1442,5.16479,3.24555,0,19.9336,95,5,
77.1442,5.16907,3.24402,0,19.9336,95,5,
77.1442,5.16968,3.23944,0,19.9336,95,5,
77.1443,5.17273,3.24097,0,19.9336,95,5,
77.1443,5.17395,3.24249,0,19.9336,95,5,
77.1443,5.17426,3.24097,0,19.9336,95,5,
77.1444,5.17975,3.24402,0,19.9336,95,5,
77.1444,5.17914,3.23944,0,19.9336,95,5,
77.1444,5.18341,3.24402,0,19.9336,95,5,
77.1445,5.18463,3.24249,0,19.9336,95,5,
77.1445,5.18463,3.24249,0,19.9336,95,5,
77.1445,5.18921,3.23944,0,19.9336,95,5,
77.1446,5.18921,3.24249,0,19.9336,95,5,
77.1446,5.19379,3.24402,0,19.9336,95,5,
77.1446,5.19409,3.24097,0,19.9336,95,5,
77.1447,5.19745,3.23944,0,19.9336,95,5,
77.1447,5.19928,3.24249,0,19.9336,95,5,
77.1447,5.2002,3.23944,0,19.9336,95,5,
77.1448,5.20325,3.24402,0,19.9336,95,5,
77.1448,5.20386,3.24402,0,19.9336,95,5,
77.1448,5.20782,3.24249,0,19.9336,95,5,
77.1449,5.20905,3.24402,0,19.9336,95,5,
77.1449,5.2124,3.24707,0,19.9336,95,5,
77.1449,5.21332,3.24097,0,19.9336,95,5,
77.145,5.21393,3.24402,0,19.9336,95,5,
77.145,5.21851,3.24402,0,19.9336,95,5,
77.145,5.21851,3.24402,0,19.9336,95,5,
77.1451,5.22369,3.24402,0,19.9336,95,5,
77.1451,5.22339,3.24402,0,19.9336,95,5,
77.1451,5.22858,3.24097,0,19.9336,95,5,
77.1452,5.22858,3.24555,0,19.9336,95,5,
77.1452,5.23193,3.23944,0,19.9336,95,5,
77.1452,5.23315,3.24249,0,19.9336,95,5,
77.1453,5.23346,3.24555,0,19.9336,95,5,
77.1453,5.23834,3.24097,0,19.9336,95,5,
77.1453,5.23804,3.24249,0,19.9336,95,5,
77.1454,5.24261,3.24402,0,19.9336,95,5,
77.1454,5.24231,3.24402,0,19.9336,95,5,
77.1454,5.24811,3.24402,0,19.9336,95,5,
77.1455,5.2475,3.24402,0,19.9336,95,5,
77.1455,5.25177,3.24097,0,19.9336,95,5,
77.1455,5.25269,3.24707,0,19.9336,95,5,
77.1456,5.25421,3.24707,0,19.9336,95,5,
77.1456,5.25696,3.24249,0,19.9336,95,5,
77.1456,5.25726,3.24249,0,19.9336,95,5,
77.1457,5.26276,3.24402,0,19.9336,95,5,
77.1457,5.26245,3.24249,0,19.9336,95,5,
77.1457,5.26703,3.24249,0,19.9336,95,5,
77.1458,5.26703,3.24555,0,19.9336,95,5,
77.1458,5.27252,3.24402,0,19.9336,95,5,
77.1458,5.27344,3.24249,0,19.9336,95,5,
77.1459,5.27618,3.24402,0,19.9336,95,5,
77.1459,5.2774,3.24402,0,19.9336,95,5,
77.1459,5.28198,3.24249,0,19.9336,95,5,
77.146,5.28198,3.24097,0,19.9336,95,5,
77.146,5.28351,3.24097,0,19.9336,95,5,
77.146,5.28656,3.23944,0,19.9336,95,5,
77.1461,5.28839,3.24555,0,19.9336,95,5,
77.1461,5.29205,3.24402,0,19.9336,95,5,
77.1461,5.29205,3.24249,0,19.9336,95,5,
77.1462,5.29694,3.24249,0,19.9336,95,5,
77.1462,5.29633,3.24097,0,19.9336,95,5,
77.1462,5.30182,3.24097,0,19.9336,95,5,
77.1463,5.30182,3.24707,0,19.9336,95,5,
77.1463,5.30701,3.24402,0,19.9336,95,5,
77.1463,5.3064,3.24402,0,19.9336,95,5,
77.1464,5.31006,3.24249,0,19.9336,95,5,
77.1464,5.31158,3.24249,0,19.9336,95,5,
77.1464,5.31525,3.24249,0,19.9336,95,5,
77.1465,5.31708,3.24402,0,19.9336,95,5,
77.1465,5.31738,3.24402,0,19.9336,95,5,
77.1465,5.32135,3.24249,0,19.9336,95,5,
77.1466,5.32166,3.24555,0,19.9336,95,5,
77.1466,5.32654,3.24249,0,19.9336,95,5,
77.1466,5.32623,3.24097,0,19.9336,95,5,
77.1467,5.33173,3.24707,0,19.9336,95,5,
77.1467,5.33142,3.24402,0,19.9336,95,5,
77.1467,5.33661,3.24249,0,19.9336,95,5,
77.1468,5.3363,3.24402,0,19.9336,95,5,
77.1468,5.34119,3.24402,0,19.9336,95,5,
77.1468,5.3421,3.24402,0,19.9336,95,5,
77.1469,5.34454,3.24249,0,19.9336,95,5,
77.1469,5.34607,3.24249,0,19.9336,95,5,
77.1469,5.34729,3.24555,0,19.9336,95,5,
77.147,5.35095,3.24097,0,19.9336,95,5,
77.147,5.35187,3.24555,0,19.9336,95,5,
77.147,5.35553,3.24249,0,19.9336,95,5,
77.1471,5.35583,3.24555,0,19.9336,95,5,
77.1471,5.3598,3.24555,0,19.9336,95,5,
77.1471,5.36072,3.23944,0,19.9336,95,5,
77.1472,5.3653,3.24555,0,19.9336,95,5,
77.1472,5.3653,3.24555,0,19.9336,95,5,
77.1472,5.36926,3.23944,0,19.9336,95,5,
77.1473,5.36987,3.24402,0,19.9336,95,5,
77.1473,5.37415,3.24249,0,19.9336,95,5,
77.1473,5.37506,3.24249,0,19.9336,95,5,
77.1474,5.37598,3.24249,0,19.9336,95,5,
77.1474,5.37994,3.24555,0,19.9336,95,5,
77.1474,5.38025,3.24249,0,19.9336,95,5,
77.1475,5.38452,3.24249,0,19.9336,95,5,
77.1475,5.38544,3.24555,0,19.9336,95,5,
77.1475,5.3894,3.24402,0,19.9336,95,5,
77.1476,5.39032,3.24249,0,19.9336,95,5,
77.1476,5.39398,3.24555,0,19.9336,95,5,
77.1476,5.3952,3.24249,0,19.9336,95,5,
77.1477,5.39856,3.24402,0,19.9336,95,5,
77.1477,5.39978,3.24097,0,19.9336,95,5,
77.1477,5.4007,3.24707,0,19.9336,95,5,
77.1478,5.40466,3.24249,0,19.9336,95,5,
77.1478,5.40466,3.24097,0,19.9336,95,5,
77.1478,5.40955,3.24249,0,19.9336,95,5,
77.1479,5.41016,3.24097,0,19.9336,95,5,
77.1479,5.41412,3.24249,0,19.9336,95,5,
77.1479,5.41504,3.24249,0,19.9336,95,5,
77.148,5.41748,3.24097,0,19.9336,95,5,
77.148,5.41962,3.24249,0,19.9336,95,5,
77.148,5.41901,3.24402,0,19.9336,95,5,
77.1481,5.4245,3.24097,0,19.9336,95,5,
77.1481,5.42419,3.24249,0,19.9336,95,5,
77.1481,5.42877,3.24555,0,19.9336,95,5,
77.1482,5.42969,3.23639,0,19.9336,95,5,
77.1482,5.43274,3.24555,0,19.9336,95,5,
77.1482,5.43427,3.24402,0,19.9336,95,5,
77.1483,5.43518,3.24097,0,19.9336,95,5,
77.1483,5.43884,3.24249,0,19.9336,95,5,
77.1483,5.43884,3.24097,0,19.9336,95,5,
77.1484,5.44342,3.24249,0,19.9336,95,5,
77.1484,5.44434,3.24249,0,19.9336,95,5,
77.1484,5.44739,3.24402,0,19.9336,95,5,
77.1485,5.44922,3.24097,0,19.9336,95,5,
77.1485,5.44952,3.24402,0,19.9336,95,5,
77.1485,5.45349,3.24249,0,19.9336,95,5,
77.1486,5.4538,3.23944,0,19.9336,95,5,
77.1486,5.45868,3.24249,0,19.9336,95,5,
77.1486,5.45929,3.24097,0,19.9336,95,5,
77.1487,5.46173,3.24249,0,19.9336,95,5,
77.1487,5.46448,3.24249,0,19.9336,95,5,
77.1487,5.46295,3.24249,0,19.9336,95,5,
77.1488,5.46844,3.24707,0,19.9336,95,5,
77.1488,5.46844,3.24555,0,19.9336,95,5,
77.1488,5.47211,3.24249,0,19.9336,95,5,
77.1489,5.47272,3.24097,0,19.9336,95,5,
77.1489,5.47394,3.24555,0,19.9336,95,5,
77.1489,5.47852,3.24249,0,19.9336,95,5,
77.149,5.47821,3.23792,0,19.9336,95,5,
77.149,5.4834,3.24249,0,19.9336,95,5,
77.149,5.4834,3.24097,0,19.9336,95,5,
77.1491,5.48492,3.24097,0,19.9336,95,5,
77.1491,5.48737,3.24249,0,19.9336,95,5,
77.1491,5.48828,3.24249,0,19.9336,95,5,
77.1492,5.49316,3.24249,0,19.9336,95,5,
77.1492,5.49316,3.24249,0,19.9336,95,5,
77.1492,5.49347,3.24097,0,19.9336,95,5,
77.1493,5.49774,3.24249,0,19.9336,95,5,
77.1493,5.49713,3.24402,0,19.9336,95,5,
77.1493,5.50171,3.24707,0,19.9336,95,5,
77.1494,5.50323,3.24555,0,19.9336,95,5,
77.1494,5.50262,3.24555,0,19.9336,95,5,
77.1494,5.50751,3.24249,0,19.9336,95,5,
77.1495,5.50751,3.24402,0,19.9336,95,5,
77.1495,5.50903,3.24402,0,19.9336,95,5,
77.1495,5.51239,3.24097,0,19.9336,95,5,
77.1496,5.5127,3.24249,0,19.9336,95,5,
77.1496,5.51636,3.24402,0,19.9336,95,5,
77.1496,5.51727,3.24249,0,19.9336,95,5,
77.1497,5.51697,3.24249,0,19.9336,95,5,
77.1497,5.52216,3.24249,0,19.9336,95,5,
77.1497,5.52246,3.24707,0,19.9336,95,5,
77.1498,5.52338,3.24249,0,19.9336,95,5,
77.1498,5.52734,3.24249,0,19.9336,95,5,
77.1498,5.52765,3.24402,0,19.9336,95,5,
77.1499,5.52826,3.24097,0,19.9336,95,5,
77.1499,5.53223,3.24249,0,19.9336,95,5,
77.1499,5.53253,3.24249,0,19.9336,95,5,
77.15,5.53619,3.23944,0,19.9336,95,5,
77.15,5.53711,3.24097,0,19.9336,95,5,
77.15,5.5368,3.24249,0,19.9336,95,5,
77.1501,5.54016,3.24249,0,19.9336,95,5,
77.1501,5.54138,3.24402,0,19.9336,95,5,
77.1501,5.54199,3.24249,0,19.9336,95,5,
77.1502,5.54688,3.24402,0,19.9336,95,5,
77.1502,5.54688,3.24707,0,19.9336,95,5,
77.1502,5.54718,3.23944,0,19.9336,95,5,
77.1503,5.55176,3.24402,0,19.9336,95,5,
77.1503,5.55176,3.24249,0,19.9336,95,5,
77.1503,5.55206,3.24249,0,19.9336,95,5,
77.1504,5.55634,3.24097,0,19.9336,95,5,
77.1504,5.55634,3.24402,0,19.9336,95,5,
77.1504,5.55695,3.24249,0,19.9336,95,5,
77.1505,5.55969,3.24097,0,19.9336,95,5,
77.1505,5.56152,3.24707,0,19.9336,95,5,
77.1505,5.56122,3.24402,0,19.9336,95,5,
77.1506,5.56488,3.24402,0,19.9336,95,5,
77.1506,5.5661,3.24249,0,19.9336,95,5,
77.1506,5.56702,3.24402,0,19.9336,95,5,
77.1507,5.56671,3.24249,0,19.9336,95,5,
77.1507,5.5719,3.23944,0,19.9336,95,5,
77.1507,5.57159,3.24555,0,19.9336,95,5,
77.1508,5.57159,3.23944,0,19.9336,95,5,
77.1508,5.57617,3.24249,0,19.9336,95,5,
77.1508,5.57678,3.24402,0,19.9336,95,5,
77.1509,5.57617,3.24249,0,19.9336,95,5,
77.1509,5.57922,3.24402,0,19.9336,95,5,
77.1509,5.58167,3.24249,0,19.9336,95,5,
77.151,5.58136,3.24402,0,19.9336,95,5,
77.151,5.58014,3.24097,0,19.9336,95,5,
77.151,5.58563,3.24249,0,19.9336,95,5,
77.1511,5.58655,3.24097,0,19.9336,95,5,
77.1511,5.58594,3.24249,0,19.9336,95,5,
77.1511,5.58624,3.23944,0,19.9336,95,5,
77.1512,5.58624,3.24097,0,19.9336,95,5,
77.1512,5.58594,3.24249,0,19.9336,95,5,
77.1512,5.58655,3.24249,0,19.9336,95,5,
77.1513,5.58624,3.24555,0,19.9336,95,5,
77.1513,5.59601,3.23792,0,19.9336,95,5,
77.1513,5.5957,3.24555,0,19.9336,95,5,
77.1514,5.59631,3.24249,0,19.9336,95,5,
77.1514,5.60089,3.24097,0,19.9336,95,5,
77.1514,5.60059,3.24249,0,19.9336,95,5,
77.1515,5.60028,3.24097,0,19.9336,95,5,
77.1515,5.60242,3.24707,0,19.9336,95,5,
77.1515,5.60577,3.24402,0,19.9336,95,5,
77.1516,5.60547,3.24555,0,19.9336,95,5,
77.1516,5.60608,3.24097,0,19.9336,95,5,
77.1516,5.60699,3.24402,0,19.9336,95,5,
77.1517,5.61035,3.24249,0,19.9336,95,5,
77.1517,5.61127,3.24402,0,19.9336,95,5,
77.1517,5.61066,3.23944,0,19.9336,95,5,
77.1518,5.61157,3.24402,0,19.9336,95,5,
77.1518,5.61584,3.24402,0,19.9336,95,5,
77.1518,5.61523,3.24249,0,19.9336,95,5,
77.1519,5.61493,3.24555,0,19.9336,95,5,
77.1519,5.61554,3.24402,0,19.9336,95,5,
77.1519,5.62012,3.24402,0,19.9336,95,5,
77.152,5.62042,3.24402,0,19.9336,95,5,
77.152,5.62042,3.24555,0,19.9336,95,5,
77.152,5.62103,3.24402,0,19.9336,95,5,
77.1521,5.625,3.24249,0,19.9336,95,5,
77.1521,5.62469,3.24249,0,19.9336,95,5,
77.1521,5.625,3.24707,0,19.9336,95,5,
77.1522,5.62561,3.24249,0,19.9336,95,5,
77.1522,5.62469,3.24402,0,19.9336,95,5,
77.1522,5.63049,3.24402,0,19.9336,95,5,
77.1523,5.63019,3.24402,0,19.9336,95,5,
77.1523,5.62927,3.24097,0,19.9336,95,5,
77.1523,5.62958,3.24249,0,19.9336,95,5,
77.1524,5.6311,3.24555,0,19.9336,95,5,
77.1524,5.63507,3.24249,0,19.9336,95,5,
77.1524,5.63416,3.24249,0,19.9336,95,5,
77.1525,5.63568,3.24097,0,19.9336,95,5,
77.1525,5.63538,3.24249,0,19.9336,95,5,
77.1525,5.63843,3.24402,0,19.9336,95,5,
77.1526,5.63995,3.24097,0,19.9336,95,5,
77.1526,5.63995,3.24402,0,19.9336,95,5,
77.1526,5.64026,3.24097,0,19.9336,95,5,
77.1527,5.63965,3.24555,0,19.9336,95,5,
77.1527,5.64056,3.24249,0,19.9336,95,5,
77.1527,5.64514,3.24402,0,19.9336,95,5,
77.1528,5.64423,3.24097,0,19.9336,95,5,
77.1528,5.64514,3.24555,0,19.9336,95,5,
77.1528,5.64514,3.24097,0,19.9336,95,5,
77.1529,5.64514,3.24097,0,19.9336,95,5,
77.1529,5.64972,3.24402,0,19.9336,95,5,
77.1529,5.64972,3.24249,0,19.9336,95,5,
77.153,5.64972,3.24402,0,19.9336,95,5,
77.153,5.64972,3.24402,0,19.9336,95,5,
77.153,5.64941,3.24402,0,19.9336,95,5,
77.1531,5.65094,3.24097,0,19.9336,95,5,
77.1531,5.65491,3.24402,0,19.9336,95,5,
77.1531,5.6543,3.24402,0,19.9336,95,5,
77.1532,5.6546,3.24249,0,19.9336,95,5,
77.1532,5.6546,3.23944,0,19.9336,95,5,
77.1532,5.6543,3.24707,0,19.9336,95,5,
77.1533,5.65491,3.24402,0,19.9336,95,5,
77.1533,5.65857,3.24707,0,19.9336,95,5,
77.1533,5.65918,3.24707,0,19.9336,95,5,
77.1534,5.65979,3.24097,0,19.9336,95,5,
77.1534,5.65887,3.24249,0,19.9336,95,5,
77.1534,5.65948,3.24555,0,19.9336,95,5,
77.1535,5.65948,3.24249,0,19.9336,95,5,
77.1535,5.66467,3.24402,0,19.9336,95,5,
77.1535,5.66467,3.24402,0,19.9336,95,5,
77.1536,5.66315,3.24249,0,19.9336,95,5,
77.1536,5.66498,3.24249,0,19.9336,95,5,
77.1536,5.66437,3.24249,0,19.9336,95,5,
77.1537,5.66437,3.24249,0,19.9336,95,5,
77.1537,5.66498,3.24402,0,19.9336,95,5,
77.1537,5.66986,3.24707,0,19.9336,95,5,
77.1538,5.66956,3.24249,0,19.9336,95,5,
77.1538,5.66986,3.24097,0,19.9336,95,5,
77.1538,5.66956,3.23944,0,19.9336,95,5,
77.1539,5.66895,3.24097,0,19.9336,95,5,
77.1539,5.66956,3.24249,0,19.9336,95,5,
77.1539,5.66895,3.24402,0,19.9336,95,5,
77.154,5.67383,3.24249,0,19.9336,95,5,
77.154,5.67383,3.24402,0,19.9336,95,5,
77.154,5.67444,3.24249,0,19.9336,95,5,
77.1541,5.67413,3.24402,0,19.9336,95,5,
77.1541,5.67444,3.24402,0,19.9336,95,5,
77.1541,5.67413,3.24402,0,19.9336,95,5,
77.1542,5.67352,3.23944,0,19.9336,95,5,
77.1542,5.67383,3.24555,0,19.9336,95,5,
77.1542,5.67474,3.24555,0,19.9336,95,5,
77.1543,5.67902,3.24249,0,19.9336,95,5,
77.1543,5.67871,3.23944,0,19.9336,95,5,
77.1543,5.67993,3.24402,0,19.9336,95,5,
77.1544,5.67963,3.24555,0,19.9336,95,5,
77.1544,5.67902,3.24097,0,19.9336,95,5,
77.1544,5.67932,3.24402,0,19.9336,95,5,
77.1545,5.67902,3.24249,0,19.9336,95,5,
77.1545,5.67932,3.24097,0,19.9336,95,5,
77.1545,5.67871,3.24402,0,19.9336,95,5,
77.1546,5.68176,3.24249,0,19.9336,95,5,
77.1546,5.6839,3.24249,0,19.9336,95,5,
77.1546,5.6839,3.24097,0,19.9336,95,5,
77.1547,5.6839,3.24249,0,19.9336,95,5,
77.1547,5.6839,3.23792,0,19.9336,95,5,
77.1547,5.68451,3.24402,0,19.9336,95,5,
77.1548,5.68451,3.24249,0,19.9336,95,5,
77.1548,5.6839,3.24097,0,19.9336,95,5,
77.1548,5.68359,3.24707,0,19.9336,95,5,
77.1549,5.6842,3.24249,0,19.9336,95,5,
77.1549,5.6842,3.24249,0,19.9336,95,5,
77.1549,5.68451,3.24097,0,19.9336,95,5,
77.155,5.68787,3.23639,0,19.9336,95,5,
77.155,5.68878,3.24249,0,19.9336,95,5,
77.155,5.68878,3.24402,0,19.9336,95,5,
77.1551,5.68939,3.24249,0,19.9336,95,5,
77.1551,5.68939,3.24249,0,19.9336,95,5,
77.1551,5.68909,3.24097,0,19.9336,95,5,
77.1552,5.68848,3.24402,0,19.9336,95,5,
77.1552,5.68878,3.24402,0,19.9336,95,5,
77.1552,5.68848,3.24097,0,19.9336,95,5,
77.1553,5.68909,3.24249,0,19.9336,95,5,
77.1553,5.6897,3.24707,0,19.9336,95,5,
77.1553,5.68909,3.24249,0,19.9336,95,5,
77.1554,5.68939,3.23944,0,19.9336,95,5,
77.1554,5.68909,3.24097,0,19.9336,95,5,
77.1554,5.69,3.24097,0,19.9336,95,5,
77.1555,5.69427,3.24249,0,19.9336,95,5,
77.1555,5.69427,3.24402,0,19.9336,95,5,
77.1555,5.69366,3.24097,0,19.9336,95,5,
77.1556,5.69458,3.24402,0,19.9336,95,5,
77.1556,5.69336,3.24402,0,19.9336,95,5,
77.1556,5.69458,3.24249,0,19.9336,95,5,
77.1557,5.69397,3.24402,0,19.9336,95,5,
77.1557,5.69397,3.24249,0,19.9336,95,5,
77.1557,5.69366,3.24402,0,19.9336,95,5,
77.1558,5.69397,3.24555,0,19.9336,95,5,
77.1558,5.69397,3.24097,0,19.9336,95,5,
77.1558,5.69336,3.24249,0,19.9336,95,5,
77.1559,5.69366,3.24402,2.382,19.9336,95,5,
77.1559,5.69397,3.24402,2.382,19.9336,95,5,
77.1559,5.69427,3.24249,2.382,19.9336,95,5,
77.156,5.69366,3.24402,2.382,19.9336,95,5,
77.156,5.69397,3.24402,2.382,19.9336,95,5,
77.156,5.69427,3.24402,2.382,19.9336,95,5,
77.1561,5.69397,3.24249,2.382,19.9336,95,5,
77.1561,5.69427,3.24249,2.382,19.9336,95,5,
77.1561,5.69397,3.24097,2.382,19.9336,95,5,
77.1562,5.69427,3.24249,2.382,19.9336,95,5,
77.1562,5.69366,3.24249,2.382,19.9336,95,5,
77.1562,5.69366,3.24555,2.382,19.9336,95,5,
77.1563,5.69336,3.24402,2.382,19.9336,95,5,
77.1563,5.69336,3.24249,2.382,19.9336,95,5,
77.1563,5.69397,3.24402,2.382,19.9336,95,5,
77.1564,5.69336,3.24402,2.382,19.9336,95,5,
77.1564,5.69336,3.24402,2.382,19.9336,95,5,
77.1564,5.69366,3.24707,2.382,19.9336,95,5,
77.1565,5.69397,3.24402,2.382,19.9336,95,5,
77.1565,5.69366,3.24402,2.382,19.9336,95,5,
77.1565,5.69397,3.24249,2.382,19.9336,95,5,
77.1566,5.69397,3.24402,2.382,19.9336,95,5,
77.1566,5.69366,3.24249,2.382,19.9336,95,5,
77.1566,5.69336,3.24249,2.382,19.9336,95,5,
77.1567,5.69336,3.24249,2.382,19.9336,95,5,
77.1567,5.69397,3.24402,2.382,19.9336,95,5,
77.1567,5.69366,3.24555,2.382,19.9336,95,5,
77.1568,5.69397,3.24402,2.382,19.9336,95,5,
77.1568,5.69366,3.24402,2.382,19.9336,95,5,
77.1568,5.69397,3.24097,2.382,19.9336,95,5,
77.1569,5.69366,3.23792,2.382,19.9336,95,5,
77.1569,5.69427,3.24402,2.382,19.9336,95,5,
77.1569,5.69397,3.24402,2.382,19.9336,95,5,
77.157,5.69336,3.24249,2.382,19.9336,95,5,
77.157,5.69397,3.24402,2.382,19.9336,95,5,
77.157,5.69397,3.24555,2.382,19.9336,95,5,
77.1571,5.69427,3.24249,2.382,19.9336,95,5,
77.1571,5.69366,3.24555,2.382,19.9336,95,5,
77.1571,5.69366,3.23944,2.382,19.9336,95,5,
77.1572,5.69275,3.24249,2.382,19.9336,95,5,
77.1572,5.69366,3.24097,2.382,19.9336,95,5,
77.1572,5.69366,3.24249,2.382,19.9336,95,5,
77.1573,5.69366,3.24249,2.382,19.9336,95,5,
77.1573,5.69427,3.24402,2.382,19.9336,95,5,
77.1573,5.69397,3.2486,2.382,19.9336,95,5,
77.1574,5.69427,3.24097,2.382,19.9336,95,5,
77.1574,5.69366,3.24249,2.382,19.9336,95,5,
77.1574,5.69336,3.24402,2.382,19.9336,95,5,
77.1575,5.69397,3.24402,2.382,19.9336,95,5,
77.1575,5.69458,3.24249,2.382,19.9336,95,5,
77.1575,5.69366,3.24249,2.382,19.9336,95,5,
77.1576,5.6897,3.24249,2.382,19.9336,95,5,
77.1576,5.68939,3.24249,2.382,19.9336,95,5,
77.1576,5.68909,3.23944,2.382,19.9336,95,5,
77.1577,5.68878,3.24249,2.382,19.9336,95,5,
77.1577,5.68939,3.24097,2.382,19.9336,95,5,
77.1577,5.68909,3.24555,2.382,19.9336,95,5,
77.1578,5.68878,3.24249,2.382,19.9336,95,5,
77.1578,5.68939,3.24249,2.382,19.9336,95,5,
77.1578,5.68909,3.24249,2.382,19.9336,95,5,
77.1579,5.6897,3.24249,2.382,19.9336,95,5,
77.1579,5.6897,3.24097,2.382,19.9336,95,5,
77.1579,5.68909,3.24402,2.382,19.9336,95,5,
77.158,5.68848,3.24402,2.382,19.9336,95,5,
77.158,5.6839,3.23792,2.382,19.9336,95,5,
77.158,5.68359,3.24249,2.382,19.9336,95,5,
77.1581,5.6842,3.24249,2.382,19.9336,95,5,
77.1581,5.6839,3.24402,2.382,19.9336,95,5,
77.1581,5.6842,3.23944,2.382,19.9336,95,5,
77.1582,5.6839,3.24402,2.382,19.9336,95,5,
77.1582,5.68359,3.24402,2.382,19.9336,95,5,
77.1582,5.68451,3.24402,2.382,19.9336,95,5,
77.1583,5.6842,3.24555,2.382,19.9336,95,5,
77.1583,5.6839,3.24097,2.382,19.9336,95,5,
77.1583,5.67871,3.24249,2.382,19.9336,95,5,
77.1584,5.67902,3.24402,2.382,19.9336,95,5,
77.1584,5.67902,3.24402,2.382,19.9336,95,5,
77.1584,5.67902,3.24249,2.382,19.9336,95,5,
77.1585,5.67932,3.24097,2.382,19.9336,95,5,
77.1585,5.67902,3.24555,2.382,19.9336,95,5,
77.1585,5.6781,3.24402,2.382,19.9336,95,5,
77.1586,5.67932,3.24555,2.382,19.9336,95,5,
77.1586,5.6778,3.24402,2.382,19.9336,95,5,
77.1586,5.67413,3.24402,2.382,19.9336,95,5,
77.1587,5.67413,3.24249,2.382,19.9336,95,5,
77.1587,5.67413,3.24249,2.382,19.9336,95,5,
77.1587,5.67413,3.24402,2.382,19.9336,95,5,
77.1588,5.67474,3.24097,2.382,19.9336,95,5,
77.1588,5.67413,3.24555,2.382,19.9336,95,5,
77.1588,5.67383,3.24249,2.382,19.9336,95,5,
77.1589,5.66956,3.24402,2.382,19.9336,95,5,
77.1589,5.66925,3.24249,2.382,19.9336,95,5,
77.1589,5.66925,3.24402,2.382,19.9336,95,5,
77.159,5.66895,3.24402,2.382,19.9336,95,5,
77.159,5.66925,3.24249,2.382,19.9336,95,5,
77.159,5.66864,3.24402,2.382,19.9336,95,5,
77.1591,5.66925,3.24249,2.382,19.9336,95,5,
77.1591,5.66406,3.24249,2.382,19.9336,95,5,
77.1591,5.66406,3.24249,2.382,19.9336,95,5,
77.1592,5.66376,3.24097,2.382,19.9336,95,5,
77.1592,5.66406,3.24249,2.382,19.9336,95,5,
77.1592,5.66345,3.24402,2.382,19.9336,95,5,
77.1593,5.66467,3.24097,2.382,19.9336,95,5,
77.1593,5.6601,3.24097,2.382,19.9336,95,5,
77.1593,5.65979,3.24097,2.382,19.9336,95,5,
77.1594,5.65918,3.24555,2.382,19.9336,95,5,
77.1594,5.65979,3.24555,2.382,19.9336,95,5,
77.1594,5.65887,3.24249,2.382,19.9336,95,5,
77.1595,5.65948,3.24402,2.382,19.9336,95,5,
77.1595,5.65491,3.24249,2.382,19.9336,95,5,
77.1595,5.65399,3.24402,2.382,19.9336,95,5,
77.1596,5.6546,3.24097,2.382,19.9336,95,5,
77.1596,5.6546,3.24249,2.382,19.9336,95,5,
77.1596,5.65491,3.24249,2.382,19.9336,95,5,
77.1597,5.65338,3.24249,2.382,19.9336,95,5,
77.1597,5.65033,3.24249,2.382,19.9336,95,5,
77.1597,5.64972,3.24402,2.382,19.9336,95,5,
77.1598,5.65002,3.23944,2.382,19.9336,95,5,
77.1598,5.64972,3.24097,2.382,19.9336,95,5,
77.1598,5.64972,3.24097,2.382,19.9336,95,5,
77.1599,5.64484,3.24402,2.382,19.9336,95,5,
77.1599,5.64514,3.24249,2.382,19.9336,95,5,
77.1599,5.64453,3.24402,2.382,19.9336,95,5,
77.16,5.64514,3.23792,2.382,19.9336,95,5,
77.16,5.64484,3.24707,2.382,19.9336,95,5,
77.16,5.64026,3.24249,2.382,19.9336,95,5,
77.1601,5.63995,3.24249,2.382,19.9336,95,5,
77.1601,5.63904,3.24402,2.382,19.9336,95,5,
77.1601,5.64026,3.24249,2.382,19.9336,95,5,
77.1602,5.63904,3.24402,2.382,19.9336,95,5,
77.1602,5.63538,3.24555,2.382,19.9336,95,5,
77.1602,5.63507,3.24402,2.382,19.9336,95,5,
77.1603,5.63507,3.24249,2.382,19.9336,95,5,
77.1603,5.63568,3.24249,2.382,19.9336,95,5,
77.1603,5.6308,3.24707,2.382,19.9336,95,5,
77.1604,5.62988,3.24555,2.382,19.9336,95,5,
77.1604,5.63049,3.24097,2.382,19.9336,95,5,
77.1604,5.62958,3.24555,2.382,19.9336,95,5,
77.1605,5.62531,3.24555,2.382,19.9336,95,5,
77.1605,5.62531,3.24097,2.382,19.9336,95,5,
77.1605,5.62622,3.24097,2.382,19.9336,95,5,
77.1606,5.625,3.24249,2.382,19.9336,95,5,
77.1606,5.62103,3.24555,2.382,19.9336,95,5,
77.1606,5.62042,3.24402,2.382,19.9336,95,5,
77.1607,5.62042,3.24249,2.382,19.9336,95,5,
77.1607,5.62134,3.24402,2.382,19.9336,95,5,
77.1607,5.61493,3.24249,2.382,19.9336,95,5,
77.1608,5.61493,3.24249,2.382,19.9336,95,5,
77.1608,5.61554,3.24249,2.382,19.9336,95,5,
77.1608,5.61432,3.24402,2.382,19.9336,95,5,
77.1609,5.61096,3.24097,2.382,19.9336,95,5,
77.1609,5.61096,3.24249,2.382,19.9336,95,5,
77.1609,5.61066,3.24249,2.382,19.9336,95,5,
77.161,5.60608,3.24097,2.382,19.9336,95,5,
77.161,5.60608,3.24249,2.382,19.9336,95,5,
77.161,5.60577,3.24402,2.382,19.9336,95,5,
77.1611,5.60577,3.24402,2.382,19.9336,95,5,
77.1611,5.60059,3.24097,2.382,19.9336,95,5,
77.1611,5.60089,3.24097,2.382,19.9336,95,5,
77.1612,5.6012,3.24402,2.382,19.9336,95,5,
77.1612,5.59601,3.24402,2.382,19.9336,95,5,
77.1612,5.59631,3.24097,2.382,19.9336,95,5,
77.1613,5.59601,3.24555,2.382,19.9336,95,5,
77.1613,5.59509,3.24249,2.382,19.9336,95,5,
77.1613,5.59113,3.24249,2.382,19.9336,95,5,
77.1614,5.59052,3.24249,2.382,19.9336,95,5,
77.1614,5.59113,3.24249,2.382,19.9336,95,5,
77.1614,5.58655,3.24402,2.382,19.9336,95,5,
77.1615,5.58624,3.24249,2.382,19.9336,95,5,
77.1615,5.58655,3.23944,2.382,19.9336,95,5,
77.1615,5.58136,3.24097,2.382,19.9336,95,5,
77.1616,5.58075,3.24097,2.382,19.9336,95,5,
77.1616,5.58197,3.24097,2.382,19.9336,95,5,
77.1616,5.57861,3.24555,2.382,19.9336,95,5,
77.1617,5.57678,3.24402,2.382,19.9336,95,5,
77.1617,5.57678,3.23944,2.382,19.9336,95,5,
77.1617,5.57556,3.24097,2.382,19.9336,95,5,
77.1618,5.57098,3.24555,2.382,19.9336,95,5,
77.1618,5.57159,3.24402,2.382,19.9336,95,5,
77.1618,5.57007,3.24555,2.382,19.9336,95,5,
77.1619,5.56549,3.24402,2.382,19.9336,95,5,
77.1619,5.56702,3.24097,2.382,19.9336,95,5,
77.1619,5.56549,3.24402,2.382,19.9336,95,5,
77.162,5.56152,3.24249,2.382,19.9336,95,5,
77.162,5.56061,3.24402,2.382,19.9336,95,5,
77.162,5.56091,3.24097,2.382,19.9336,95,5,
77.1621,5.55603,3.24249,2.382,19.9336,95,5,
77.1621,5.55725,3.24097,2.382,19.9336,95,5,
77.1621,5.55573,3.23792,2.382,19.9336,95,5,
77.1622,5.55206,3.24097,2.382,19.9336,95,5,
77.1622,5.55176,3.23944,2.382,19.9336,95,5,
77.1622,5.55145,3.24249,2.382,19.9336,95,5,
77.1623,5.54657,3.24555,2.382,19.9336,95,5,
77.1623,5.54688,3.24402,2.382,19.9336,95,5,
77.1623,5.54596,3.24249,2.382,19.9336,95,5,
77.1624,5.5423,3.24402,2.382,19.9336,95,5,
77.1624,5.54108,3.24402,2.382,19.9336,95,5,
77.1624,5.53802,3.24402,2.382,19.9336,95,5,
77.1625,5.5365,3.24097,2.382,19.9336,95,5,
77.1625,5.5368,3.24555,2.382,19.9336,95,5,
77.1625,5.53345,3.24097,2.382,19.9336,95,5,
77.1626,5.53253,3.24097,2.382,19.9336,95,5,
77.1626,5.53192,3.24402,2.382,19.9336,95,5,
77.1626,5.52765,3.24097,2.382,19.9336,95,5,
77.1627,5.52734,3.24402,2.382,19.9336,95,5,
77.1627,5.52673,3.24555,2.382,19.9336,95,5,
77.1627,5.52124,3.24249,2.382,19.9336,95,5,
77.1628,5.52216,3.24249,2.382,19.9336,95,5,
77.1628,5.52124,3.24249,2.382,19.9336,95,5,
77.1628,5.51697,3.24402,2.382,19.9336,95,5,
77.1629,5.51697,3.24555,2.382,19.9336,95,5,
77.1629,5.51636,3.23944,2.382,19.9336,95,5,
77.1629,5.51331,3.24249,2.382,19.9336,95,5,
77.163,5.51239,3.24249,2.382,19.9336,95,5,
77.163,5.50873,3.24249,2.382,19.9336,95,5,
77.163,5.50781,3.24097,2.382,19.9336,95,5,
77.1631,5.50812,3.24249,2.382,19.9336,95,5,
77.1631,5.50293,3.24249,2.382,19.9336,95,5,
77.1631,5.50293,3.24249,2.382,19.9336,95,5,
77.1632,5.50293,3.24249,2.382,19.9336,95,5,
77.1632,5.49713,3.24402,2.382,19.9336,95,5,
77.1632,5.49805,3.24249,2.382,19.9336,95,5,
77.1633,5.49652,3.24249,2.382,19.9336,95,5,
77.1633,5.49255,3.24402,2.382,19.9336,95,5,
77.1633,5.49347,3.24402,2.382,19.9336,95,5,
77.1634,5.4892,3.23792,2.382,19.9336,95,5,
77.1634,5.48828,3.24249,2.382,19.9336,95,5,
77.1634,5.48767,3.24097,2.382,19.9336,95,5,
77.1635,5.48462,3.24402,2.382,19.9336,95,5,
77.1635,5.48309,3.24402,2.382,19.9336,95,5,
77.1635,5.48279,3.24555,2.382,19.9336,95,5,
77.1636,5.47882,3.24097,2.382,19.9336,95,5,
77.1636,5.47791,3.24097,2.382,19.9336,95,5,
77.1636,5.47791,3.24249,2.382,19.9336,95,5,
77.1637,5.47241,3.24097,2.382,19.9336,95,5,
77.1637,5.47363,3.24097,2.382,19.9336,95,5,
77.1637,5.47211,3.23792,2.382,19.9336,95,5,
77.1638,5.46844,3.24249,2.382,19.9336,95,5,
77.1638,5.46875,3.24402,2.382,19.9336,95,5,
77.1638,5.46753,3.24249,2.382,19.9336,95,5,
77.1639,5.46356,3.24097,2.382,19.9336,95,5,
77.1639,5.46356,3.24402,2.382,19.9336,95,5,
77.1639,5.45929,3.24555,2.382,19.9336,95,5,
77.164,5.45898,3.24249,2.382,19.9336,95,5,
77.164,5.45898,3.24249,2.382,19.9336,95,5,
77.164,5.45502,3.24097,2.382,19.9336,95,5,
77.1641,5.4541,3.24402,2.382,19.9336,95,5,
77.1641,5.4538,3.24402,2.382,19.9336,95,5,
77.1641,5.44983,3.24097,2.382,19.9336,95,5,
77.1642,5.44922,3.24555,2.382,19.9336,95,5,
77.1642,5.44891,3.24097,2.382,19.9336,95,5,
77.1642,5.44434,3.24249,2.382,19.9336,95,5,
77.1643,5.44403,3.24249,2.382,19.9336,95,5,
77.1643,5.44434,3.24249,2.382,19.9336,95,5,
77.1643,5.43854,3.24402,2.382,19.9336,95,5,
77.1644,5.43884,3.24249,2.382,19.9336,95,5,
77.1644,5.43976,3.24249,2.382,19.9336,95,5,
77.1644,5.43396,3.24402,2.382,19.9336,95,5,
77.1645,5.43396,3.24249,2.382,19.9336,95,5,
77.1645,5.43457,3.24097,2.382,19.9336,95,5,
77.1645,5.42938,3.24097,2.382,19.9336,95,5,
77.1646,5.42969,3.24097,2.382,19.9336,95,5,
77.1646,5.42847,3.24097,2.382,19.9336,95,5,
77.1646,5.42419,3.24249,2.382,19.9336,95,5,
77.1647,5.42511,3.24402,2.382,19.9336,95,5,
77.1647,5.42419,3.24402,2.382,19.9336,95,5,
77.1647,5.41901,3.24097,2.382,19.9336,95,5,
77.1648,5.41992,3.24249,2.382,19.9336,95,5,
77.1648,5.4184,3.24249,2.382,19.9336,95,5,
77.1648,5.41473,3.24249,2.382,19.9336,95,5,
77.1649,5.41412,3.24097,2.382,19.9336,95,5,
77.1649,5.41412,3.23944,2.382,19.9336,95,5,
77.1649,5.40955,3.24097,2.382,19.9336,95,5,
77.165,5.41016,3.24402,2.382,19.9336,95,5,
77.165,5.40894,3.24402,2.382,19.9336,95,5,
77.165,5.40436,3.24402,2.382,19.9336,95,5,
77.1651,5.40436,3.24402,2.382,19.9336,95,5,
77.1651,5.40314,3.24555,2.382,19.9336,95,5,
77.1651,5.39917,3.24402,2.382,19.9336,95,5,
77.1652,5.39978,3.24555,2.382,19.9336,95,5,
77.1652,5.39886,3.24402,2.382,19.9336,95,5,
77.1652,5.39459,3.24097,2.382,19.9336,95,5,
77.1653,5.39459,3.23792,2.382,19.9336,95,5,
77.1653,5.39459,3.24707,2.382,19.9336,95,5,
77.1653,5.38971,3.24249,2.382,19.9336,95,5,
77.1654,5.38971,3.24555,2.382,19.9336,95,5,
77.1654,5.38605,3.24402,2.382,19.9336,95,5,
77.1654,5.38483,3.24402,2.382,19.9336,95,5,
77.1655,5.38483,3.24097,2.382,19.9336,95,5,
77.1655,5.38086,3.24249,2.382,19.9336,95,5,
77.1655,5.38055,3.24249,2.382,19.9336,95,5,
77.1656,5.37994,3.24097,2.382,19.9336,95,5,
77.1656,5.37689,3.24249,2.382,19.9336,95,5,
77.1656,5.37506,3.24402,2.382,19.9336,95,5,
77.1657,5.37537,3.24402,2.382,19.9336,95,5,
77.1657,5.37079,3.24249,2.382,19.9336,95,5,
77.1657,5.37018,3.24249,2.382,19.9336,95,5,
77.1658,5.36987,3.24402,2.382,19.9336,95,5,
77.1658,5.3656,3.24402,2.382,19.9336,95,5,
77.1658,5.36591,3.24249,2.382,19.9336,95,5,
77.1659,5.3653,3.24249,2.382,19.9336,95,5,
77.1659,5.36011,3.24402,2.382,19.9336,95,5,
77.1659,5.36041,3.24249,2.382,19.9336,95,5,
77.166,5.3598,3.24402,2.382,19.9336,95,5,
77.166,5.35522,3.24402,2.382,19.9336,95,5,
77.166,5.35492,3.24402,2.382,19.9336,95,5,
77.1661,5.35217,3.24402,2.382,19.9336,95,5,
77.1661,5.35065,3.24402,2.382,19.9336,95,5,
77.1661,5.35065,3.23944,2.382,19.9336,95,5,
77.1662,5.34637,3.24402,2.382,19.9336,95,5,
77.1662,5.34607,3.24402,2.382,19.9336,95,5,
77.1662,5.34607,3.23944,2.382,19.9336,95,5,
77.1663,5.34058,3.24402,2.382,19.9336,95,5,
77.1663,5.34119,3.24402,2.382,19.9336,95,5,
77.1663,5.34027,3.24097,2.382,19.9336,95,5,
77.1664,5.33691,3.24097,2.382,19.9336,95,5,
77.1664,5.33569,3.24249,2.382,19.9336,95,5,
77.1664,5.33234,3.24097,2.382,19.9336,95,5,
77.1665,5.33112,3.24249,2.382,19.9336,95,5,
77.1665,5.33142,3.24555,2.382,19.9336,95,5,
77.1665,5.32593,3.24249,2.382,19.9336,95,5,
77.1666,5.32654,3.2486,2.382,19.9336,95,5,
77.1666,5.32593,3.24249,2.382,19.9336,95,5,
77.1666,5.32135,3.24097,2.382,19.9336,95,5,
77.1667,5.32104,3.23944,2.382,19.9336,95,5,
77.1667,5.31769,3.24707,2.382,19.9336,95,5,
77.1667,5.31647,3.24402,2.382,19.9336,95,5,
77.1668,5.31647,3.24249,2.382,19.9336,95,5,
77.1668,5.31189,3.24097,2.382,19.9336,95,5,
77.1668,5.31128,3.24555,2.382,19.9336,95,5,
77.1669,5.31067,3.24097,2.382,19.9336,95,5,
77.1669,5.3064,3.24402,2.382,19.9336,95,5,
77.1669,5.3067,3.24097,2.382,19.9336,95,5,
77.167,5.30273,3.24249,2.382,19.9336,95,5,
77.167,5.30182,3.24249,2.382,19.9336,95,5,
77.167,5.30029,3.24402,2.382,19.9336,95,5,
77.1671,5.29694,3.24402,2.382,19.9336,95,5,
77.1671,5.29694,3.24249,2.382,19.9336,95,5,
77.1671,5.29236,3.24097,2.382,19.9336,95,5,
77.1672,5.29236,3.24097,2.382,19.9336,95,5,
77.1672,5.29175,3.24249,2.382,19.9336,95,5,
77.1672,5.28809,3.24402,2.382,19.9336,95,5,
77.1673,5.28778,3.24097,2.382,19.9336,95,5,
77.1673,5.2829,3.24249,2.382,19.9336,95,5,
77.1673,5.28229,3.24097,2.382,19.9336,95,5,
77.1674,5.28107,3.23792,2.382,19.9336,95,5,
77.1674,5.2774,3.24402,2.382,19.9336,95,5,
77.1674,5.27802,3.24555,2.382,19.9336,95,5,
77.1675,5.27283,3.24097,2.382,19.9336,95,5,
77.1675,5.27222,3.24707,2.382,19.9336,95,5,
77.1675,5.27222,3.24249,2.382,19.9336,95,5,
77.1676,5.26764,3.24249,2.382,19.9336,95,5,
77.1676,5.26733,3.24402,2.382,19.9336,95,5,
77.1676,5.26306,3.24402,2.382,19.9336,95,5,
77.1677,5.26276,3.24097,2.382,19.9336,95,5,
77.1677,5.25818,3.24249,2.382,19.9336,95,5,
77.1677,5.25757,3.24555,2.382,19.9336,95,5,
77.1678,5.25696,3.24555,2.382,19.9336,95,5,
77.1678,5.25238,3.24249,2.382,19.9336,95,5,
77.1678,5.25208,3.24707,2.382,19.9336,95,5,
77.1679,5.24841,3.24249,2.382,19.9336,95,5,
77.1679,5.24872,3.24555,2.382,19.9336,95,5,
77.1679,5.24475,3.24402,2.382,19.9336,95,5,
77.168,5.24292,3.24249,2.382,19.9336,95,5,
77.168,5.24261,3.24402,2.382,19.9336,95,5,
77.168,5.23804,3.23944,2.382,19.9336,95,5,
77.1681,5.23804,3.24097,2.382,19.9336,95,5,
77.1681,5.23376,3.24097,2.382,19.9336,95,5,
77.1681,5.23315,3.24402,2.382,19.9336,95,5,
77.1682,5.23224,3.24097,2.382,19.9336,95,5,
77.1682,5.22827,3.24555,2.382,19.9336,95,5,
77.1682,5.22797,3.24555,2.382,19.9336,95,5,
77.1683,5.22308,3.24402,2.382,19.9336,95,5,
77.1683,5.22369,3.24402,2.382,19.9336,95,5,
77.1683,5.21912,3.24555,2.382,19.9336,95,5,
77.1684,5.21881,3.24097,2.382,19.9336,95,5,
77.1684,5.21729,3.24097,2.382,19.9336,95,5,
77.1684,5.21362,3.24555,2.382,19.9336,95,5,
77.1685,5.21393,3.24249,2.382,19.9336,95,5,
77.1685,5.20813,3.24402,2.382,19.9336,95,5,
77.1685,5.20874,3.24097,2.382,19.9336,95,5,
77.1686,5.20386,3.24402,2.382,19.9336,95,5,
77.1686,5.20386,3.24249,2.382,19.9336,95,5,
77.1686,5.2002,3.24097,2.382,19.9336,95,5,
77.1687,5.19897,3.24402,2.382,19.9336,95,5,
77.1687,5.19867,3.24097,2.382,19.9336,95,5,
77.1687,5.19409,3.24097,2.382,19.9336,95,5,
77.1688,5.19409,3.24249,2.382,19.9336,95,5,
77.1688,5.18921,3.24097,2.382,19.9336,95,5,
77.1688,5.18951,3.24402,2.382,19.9336,95,5,
77.1689,5.18585,3.24249,2.382,19.9336,95,5,
77.1689,5.18341,3.24402,2.382,19.9336,95,5,
77.1689,5.18433,3.23944,2.382,19.9336,95,5,
77.169,5.17914,3.24555,2.382,19.9336,95,5,
77.169,5.17914,3.24249,2.382,19.9336,95,5,
77.169,5.17456,3.24707,2.382,19.9336,95,5,
77.1691,5.17456,3.24707,2.382,19.9336,95,5,
77.1691,5.17395,3.23944,2.382,19.9336,95,5,
77.1691,5.16937,3.24097,2.382,19.9336,95,5,
77.1692,5.16968,3.24402,2.382,19.9336,95,5,
77.1692,5.16449,3.24097,2.382,19.9336,95,5,
77.1692,5.16541,3.24097,2.382,19.9336,95,5,
77.1693,5.16083,3.24402,2.382,19.9336,95,5,
77.1693,5.15991,3.24249,2.382,19.9336,95,5,
77.1693,5.15869,3.24249,2.382,19.9336,95,5,
77.1694,5.15594,3.24402,2.382,19.9336,95,5,
77.1694,5.15533,3.24402,2.382,19.9336,95,5,
77.1694,5.15045,3.24402,2.382,19.9336,95,5,
77.1695,5.15045,3.24402,2.382,19.9336,95,5,
77.1695,5.14679,3.24402,2.382,19.9336,95,5,
77.1695,5.14496,3.24555,2.382,19.9336,95,5,
77.1696,5.14435,3.24555,2.382,19.9336,95,5,
77.1696,5.14008,3.24249,2.382,19.9336,95,5,
77.1696,5.14099,3.24555,2.382,19.9336,95,5,
77.1697,5.13519,3.24555,2.382,19.9336,95,5,
77.1697,5.1355,3.24555,2.382,19.9336,95,5,
77.1697,5.13153,3.24249,2.382,19.9336,95,5,
77.1698,5.13031,3.24402,2.382,19.9336,95,5,
77.1698,5.13062,3.24249,2.382,19.9336,95,5,
77.1698,5.12451,3.24402,2.382,19.9336,95,5,
77.1699,5.12573,3.24249,2.382,19.9336,95,5,
77.1699,5.12115,3.24402,2.382,19.9336,95,5,
77.1699,5.12054,3.24402,2.382,19.9336,95,5,
77.17,5.11963,3.24707,2.382,19.9336,95,5,
77.17,5.11505,3.24402,2.382,19.9336,95,5,
77.17,5.11505,3.24097,2.382,19.9336,95,5,
77.1701,5.11047,3.24097,2.382,19.9336,95,5,
77.1701,5.11139,3.23944,2.382,19.9336,95,5,
77.1701,5.10803,3.24097,2.382,19.9336,95,5,
77.1702,5.10529,3.24097,2.382,19.9336,95,5,
77.1702,5.10498,3.24249,2.382,19.9336,95,5,
77.1702,5.10071,3.24097,2.382,19.9336,95,5,
77.1703,5.10193,3.24555,2.382,19.9336,95,5,
77.1703,5.09644,3.23944,2.382,19.9336,95,5,
77.1703,5.09552,3.24097,2.382,19.9336,95,5,
77.1704,5.09216,3.23944,2.382,19.9336,95,5,
77.1704,5.09094,3.24402,2.382,19.9336,95,5,
77.1704,5.09064,3.24249,2.382,19.9336,95,5,
77.1705,5.08606,3.24249,2.382,19.9336,95,5,
77.1705,5.08575,3.24249,2.382,19.9336,95,5,
77.1705,5.08148,3.24402,2.382,19.9336,95,5,
77.1706,5.08118,3.24249,2.382,19.9336,95,5,
77.1706,5.07751,3.24249,2.382,19.9336,95,5,
77.1706,5.0766,3.24555,2.382,19.9336,95,5,
77.1707,5.07538,3.24097,2.382,19.9336,95,5,
77.1707,5.07233,3.24402,2.382,19.9336,95,5,
77.1707,5.07202,3.24249,2.382,19.9336,95,5,
77.1708,5.06653,3.24249,2.382,19.9336,95,5,
77.1708,5.06683,3.24249,2.382,19.9336,95,5,
77.1708,5.06256,3.24249,2.382,19.9336,95,5,
77.1709,5.06226,3.23944,2.382,19.9336,95,5,
77.1709,5.0589,3.24249,2.382,19.9336,95,5,
77.1709,5.05707,3.23944,2.382,19.9336,95,5,
77.171,5.05615,3.24402,2.382,19.9336,95,5,
77.171,5.05219,3.24097,2.382,19.9336,95,5,
77.171,5.05188,3.23944,2.382,19.9336,95,5,
77.1711,5.0473,3.24097,2.382,19.9336,95,5,
77.1711,5.047,3.24097,2.382,19.9336,95,5,
77.1711,5.04242,3.24402,2.382,19.9336,95,5,
77.1712,5.04242,3.24249,2.382,19.9336,95,5,
77.1712,5.03876,3.24249,2.382,19.9336,95,5,
77.1712,5.03754,3.24402,2.382,19.9336,95,5,
77.1713,5.03693,3.24097,2.382,19.9336,95,5,
77.1713,5.03296,3.24097,2.382,19.9336,95,5,
77.1713,5.03174,3.24402,2.382,19.9336,95,5,
77.1714,5.02777,3.24249,2.382,19.9336,95,5,
77.1714,5.02716,3.23944,2.382,19.9336,95,5,
77.1714,5.02289,3.24097,2.382,19.9336,95,5,
77.1715,5.02289,3.24097,2.382,19.9336,95,5,
77.1715,5.01831,3.24097,2.382,19.9336,95,5,
77.1715,5.0177,3.24402,2.382,19.9336,95,5,
77.1716,5.01312,3.24555,2.382,19.9336,95,5,
77.1716,5.01312,3.24097,2.382,19.9336,95,5,
77.1716,5.00916,3.24707,2.382,19.9336,95,5,
77.1717,5.00824,3.24097,2.382,19.9336,95,5,
77.1717,5.00732,3.24555,2.382,19.9336,95,5,
77.1717,5.00336,3.24097,2.382,19.9336,95,5,
77.1718,5.00244,3.24249,2.382,19.9336,95,5,
77.1718,4.99847,3.24402,2.382,19.9336,95,5,
77.1718,4.99878,3.24097,2.382,19.9336,95,5,
77.1719,4.99451,3.24097,2.382,19.9336,95,5,
77.1719,4.99329,3.24402,2.382,19.9336,95,5,
77.1719,4.9884,3.24555,2.382,19.9336,95,5,
77.172,4.98932,3.24249,2.382,19.9336,95,5,
77.172,4.98474,3.24402,2.382,19.9336,95,5,
77.172,4.98413,3.23944,2.382,19.9336,95,5,
77.1721,4.97955,3.24249,2.382,19.9336,95,5,
77.1721,4.97894,3.2486,2.382,19.9336,95,5,
77.1721,4.97498,3.23944,2.382,19.9336,95,5,
77.1722,4.97406,3.23944,2.382,19.9336,95,5,
77.1722,4.9707,3.24402,2.382,19.9336,95,5,
77.1722,4.96826,3.24402,2.382,19.9336,95,5,
77.1723,4.96796,3.24249,2.382,19.9336,95,5,
77.1723,4.96399,3.24097,2.382,19.9336,95,5,
77.1723,4.96307,3.24555,2.382,19.9336,95,5,
77.1724,4.9588,3.24097,2.382,19.9336,95,5,
77.1724,4.9588,3.24402,2.382,19.9336,95,5,
77.1724,4.95453,3.24402,2.382,19.9336,95,5,
77.1725,4.95483,3.24402,2.382,19.9336,95,5,
77.1725,4.94934,3.24249,2.382,19.9336,95,5,
77.1725,4.94934,3.24402,2.382,19.9336,95,5,
77.1726,4.94537,3.24249,2.382,19.9336,95,5,
77.1726,4.94476,3.24707,2.382,19.9336,95,5,
77.1726,4.94019,3.23944,2.382,19.9336,95,5,
77.1727,4.93988,3.23944,2.382,19.9336,95,5,
77.1727,4.93622,3.24402,2.382,19.9336,95,5,
77.1727,4.935,3.24555,2.382,19.9336,95,5,
77.1728,4.93408,3.24402,2.382,19.9336,95,5,
77.1728,4.93011,3.24249,2.382,19.9336,95,5,
77.1728,4.92981,3.24402,2.382,19.9336,95,5,
77.1729,4.92523,3.23944,2.382,19.9336,95,5,
77.1729,4.92493,3.24402,2.382,19.9336,95,5,
77.1729,4.92004,3.24555,2.382,19.9336,95,5,
77.173,4.91974,3.24249,2.382,19.9336,95,5,
77.173,4.91577,3.24249,2.382,19.9336,95,5,
77.173,4.91547,3.24402,2.382,19.9336,95,5,
77.1731,4.91119,3.24097,2.382,19.9336,95,5,
77.1731,4.90997,3.24707,2.382,19.9336,95,5,
77.1731,4.90936,3.24097,2.382,19.9336,95,5,
77.1732,4.90479,3.24097,2.382,19.9336,95,5,
77.1732,4.90631,3.24707,2.382,19.9336,95,5,
77.1732,4.90021,3.24555,2.382,19.9336,95,5,
77.1733,4.90051,3.24555,2.382,19.9336,95,5,
77.1733,4.89502,3.24707,2.382,19.9336,95,5,
77.1733,4.89594,3.24402,2.382,19.9336,95,5,
77.1734,4.89166,3.24402,2.382,19.9336,95,5,
77.1734,4.89044,3.23792,2.382,19.9336,95,5,
77.1734,4.88983,3.24402,2.382,19.9336,95,5,
77.1735,4.88525,3.24097,2.382,19.9336,95,5,
77.1735,4.88617,3.24249,2.382,19.9336,95,5,
77.1735,4.88037,3.24097,2.382,19.9336,95,5,
77.1736,4.87976,3.24249,2.382,19.9336,95,5,
77.1736,4.88007,3.24402,2.382,19.9336,95,5,
77.1736,4.87579,3.23944,2.382,19.9336,95,5,
77.1737,4.8761,3.24555,2.382,19.9336,95,5,
77.1737,4.87091,3.24402,2.382,19.9336,95,5,
77.1737,4.87122,3.24249,2.382,19.9336,95,5,
77.1738,4.86694,3.24097,2.382,19.9336,95,5,
77.1738,4.86572,3.24249,2.382,19.9336,95,5,
77.1738,4.86603,3.24555,2.382,19.9336,95,5,
77.1739,4.86053,3.24097,2.382,19.9336,95,5,
77.1739,4.86084,3.24249,2.382,19.9336,95,5,
77.1739,4.85687,3.24249,2.382,19.9336,95,5,
77.174,4.85626,3.24249,2.382,19.9336,95,5,
77.174,4.85626,3.24249,2.382,19.9336,95,5,
77.174,4.85168,3.24555,2.382,19.9336,95,5,
77.1741,4.85107,3.24249,2.382,19.9336,95,5,
77.1741,4.84802,3.24402,2.382,19.9336,95,5,
77.1741,4.8465,3.24555,2.382,19.9336,95,5,
77.1742,4.84619,3.24097,2.382,19.9336,95,5,
77.1742,4.84192,3.24402,2.382,19.9336,95,5,
77.1742,4.841,3.24249,2.382,19.9336,95,5,
77.1743,4.8407,3.24249,2.382,19.9336,95,5,
77.1743,4.83582,3.24097,2.382,19.9336,95,5,
77.1743,4.83673,3.24097,2.382,19.9336,95,5,
77.1744,4.83276,3.24707,2.382,19.9336,95,5,
77.1744,4.83185,3.24249,2.382,19.9336,95,5,
77.1744,4.83093,3.24402,2.382,19.9336,95,5,
77.1745,4.82666,3.24097,2.382,19.9336,95,5,
77.1745,4.82666,3.24249,2.382,19.9336,95,5,
77.1745,4.82727,3.24402,2.382,19.9336,95,5,
77.1746,4.82239,3.24402,2.382,19.9336,95,5,
77.1746,4.82208,3.24097,2.382,19.9336,95,5,
77.1746,4.82208,3.24555,2.382,19.9336,95,5,
77.1747,4.81689,3.24249,2.382,19.9336,95,5,
77.1747,4.8175,3.24402,2.382,19.9336,95,5,
77.1747,4.8172,3.24097,2.382,19.9336,95,5,
77.1748,4.81232,3.24097,2.382,19.9336,95,5,
77.1748,4.81171,3.24402,2.382,19.9336,95,5,
77.1748,4.81171,3.24402,2.382,19.9336,95,5,
77.1749,4.80652,3.24555,2.382,19.9336,95,5,
77.1749,4.80682,3.23944,2.382,19.9336,95,5,
77.1749,4.80804,3.24249,2.382,19.9336,95,5,
77.175,4.80255,3.24097,2.382,19.9336,95,5,
77.175,4.80225,3.24249,2.382,19.9336,95,5,
77.175,4.80255,3.24249,2.382,19.9336,95,5,
77.1751,4.79889,3.24097,2.382,19.9336,95,5,
77.1751,4.79767,3.24097,2.382,19.9336,95,5,
77.1751,4.79706,3.24249,2.382,19.9336,95,5,
77.1752,4.79645,3.24555,2.382,19.9336,95,5,
77.1752,4.79279,3.23944,2.382,19.9336,95,5,
77.1752,4.7934,3.24097,2.382,19.9336,95,5,
77.1753,4.79218,3.24402,2.382,19.9336,95,5,
77.1753,4.7879,3.24097,2.382,19.9336,95,5,
77.1753,4.78729,3.24097,2.382,19.9336,95,5,
77.1754,4.7876,3.24097,2.382,19.9336,95,5,
77.1754,4.78821,3.24402,2.382,19.9336,95,5,
77.1754,4.7821,3.24249,2.382,19.9336,95,5,
77.1755,4.78271,3.24402,2.382,19.9336,95,5,
77.1755,4.78271,3.24249,2.382,19.9336,95,5,
77.1755,4.78149,3.24249,2.382,19.9336,95,5,
77.1756,4.77753,3.24249,2.382,19.9336,95,5,
77.1756,4.77783,3.24097,2.382,19.9336,95,5,
77.1756,4.77753,3.24402,2.382,19.9336,95,5,
77.1757,4.77722,3.24249,2.382,19.9336,95,5,
77.1757,4.77203,3.24097,2.382,19.9336,95,5,
77.1757,4.77264,3.24249,2.382,19.9336,95,5,
77.1758,4.77264,3.24402,2.382,19.9336,95,5,
77.1758,4.77264,3.24249,2.382,19.9336,95,5,
77.1758,4.76868,3.24402,2.382,19.9336,95,5,
77.1759,4.76715,3.24249,2.382,19.9336,95,5,
77.1759,4.76807,3.24402,2.382,19.9336,95,5,
77.1759,4.76807,3.24249,2.382,19.9336,95,5,
77.176,4.76776,3.24249,2.382,19.9336,95,5,
77.176,4.76288,3.23792,2.382,19.9336,95,5,
77.176,4.76288,3.24402,2.382,19.9336,95,5,
77.1761,4.76318,3.24249,2.382,19.9336,95,5,
77.1761,4.76288,3.24249,2.382,19.9336,95,5,
77.1761,4.76227,3.24402,2.382,19.9336,95,5,
77.1762,4.75952,3.24707,2.382,19.9336,95,5,
77.1762,4.75861,3.24402,2.382,19.9336,95,5,
77.1762,4.75861,3.24097,2.382,19.9336,95,5,
77.1763,4.75769,3.24249,2.382,19.9336,95,5,
77.1763,4.7583,3.24249,2.382,19.9336,95,5,
77.1763,4.758,3.24097,2.382,19.9336,95,5,
77.1764,4.75739,3.24097,2.382,19.9336,95,5,
77.1764,4.75403,3.24097,2.382,19.9336,95,5,
77.1764,4.75342,3.24249,2.382,19.9336,95,5,
77.1765,4.75281,3.24249,2.382,19.9336,95,5,
77.1765,4.75311,3.24555,2.382,19.9336,95,5,
77.1765,4.7525,3.24249,2.382,19.9336,95,5,
77.1766,4.75281,3.24402,2.382,19.9336,95,5,
77.1766,4.75311,3.24097,2.382,19.9336,95,5,
77.1766,4.75342,3.24249,2.382,19.9336,95,5,
77.1767,4.75342,3.24402,2.382,19.9336,95,5,
77.1767,4.7522,3.24249,2.382,19.9336,95,5,
77.1767,4.74792,3.24249,2.382,19.9336,95,5,
77.1768,4.74915,3.24097,2.382,19.9336,95,5,
77.1768,4.74854,3.24249,2.382,19.9336,95,5,
77.1768,4.74915,3.24402,2.382,19.9336,95,5,
77.1769,4.74854,3.24402,2.382,19.9336,95,5,
77.1769,4.74854,3.24249,2.382,19.9336,95,5,
77.1769,4.74854,3.24249,2.382,19.9336,95,5,
77.177,4.74792,3.24249,2.382,19.9336,95,5,
77.177,4.74762,3.24097,2.382,19.9336,95,5,
77.177,4.74823,3.24402,2.382,19.9336,95,5,
77.1771,4.74792,3.24402,2.382,19.9336,95,5,
77.1771,4.74792,3.24249,2.382,19.9336,95,5,
77.1771,4.74823,3.24402,2.382,19.9336,95,5,
77.1772,4.74762,3.24097,2.382,19.9336,95,5,
77.1772,4.74823,3.24402,2.382,19.9336,95,5,
77.1772,4.74823,3.24249,2.382,19.9336,95,5,
77.1773,4.74792,3.24402,2.382,19.9336,95,5,
77.1773,4.74854,3.23944,2.382,19.9336,95,5,
77.1773,4.74854,3.24249,2.382,19.9336,95,5,
77.1774,4.74762,3.24402,2.382,19.9336,95,5,
77.1774,4.74823,3.24249,2.382,19.9336,95,5,
77.1774,4.74792,3.24249,2.382,19.9336,95,5,
77.1775,4.74792,3.24097,2.382,19.9336,95,5,
77.1775,4.74884,3.24249,2.382,19.9336,95,5,
77.1775,4.74823,3.24097,2.382,19.9336,95,5,
77.1776,4.74792,3.24402,2.382,19.9336,95,5,
77.1776,4.74854,3.24402,2.382,19.9336,95,5,
77.1776,4.74823,3.23944,2.382,19.9336,95,5,
77.1777,4.74823,3.24402,2.382,19.9336,95,5,
77.1777,4.74823,3.24402,2.382,19.9336,95,5,
77.1777,4.74854,3.24402,2.382,19.9336,95,5,
77.1778,4.74884,3.24097,2.382,19.9336,95,5,
77.1778,4.75281,3.24555,2.382,19.9336,95,5,
77.1778,4.75372,3.24555,2.382,19.9336,95,5,
77.1779,4.75311,3.24249,2.382,19.9336,95,5,
77.1779,4.75342,3.24249,2.382,19.9336,95,5,
77.1779,4.75311,3.24402,2.382,19.9336,95,5,
77.178,4.75281,3.24097,2.382,19.9336,95,5,
77.178,4.75281,3.24249,2.382,19.9336,95,5,
77.178,4.75342,3.24402,2.382,19.9336,95,5,
77.1781,4.75281,3.24097,2.382,19.9336,95,5,
77.1781,4.75403,3.24097,2.382,19.9336,95,5,
77.1781,4.75861,3.24249,2.382,19.9336,95,5,
77.1782,4.75861,3.24402,2.382,19.9336,95,5,
77.1782,4.7583,3.24249,2.382,19.9336,95,5,
77.1782,4.758,3.24402,2.382,19.9336,95,5,
77.1783,4.75922,3.24097,2.382,19.9336,95,5,
77.1783,4.758,3.24249,2.382,19.9336,95,5,
77.1783,4.75952,3.24249,2.382,19.9336,95,5,
77.1784,4.76257,3.24402,2.382,19.9336,95,5,
77.1784,4.76318,3.24097,2.382,19.9336,95,5,
77.1784,4.76318,3.24249,2.382,19.9336,95,5,
77.1785,4.76318,3.24249,2.382,19.9336,95,5,
77.1785,4.7641,3.24402,2.382,19.9336,95,5,
77.1785,4.76624,3.24097,2.382,19.9336,95,5,
77.1786,4.76776,3.24249,2.382,19.9336,95,5,
77.1786,4.76807,3.24402,2.382,19.9336,95,5,
77.1786,4.76807,3.24249,2.382,19.9336,95,5,
77.1787,4.76776,3.24097,2.382,19.9336,95,5,
77.1787,4.77142,3.24249,2.382,19.9336,95,5,
77.1787,4.77325,3.24249,2.382,19.9336,95,5,
77.1788,4.77264,3.24249,2.382,19.9336,95,5,
77.1788,4.77264,3.24402,2.382,19.9336,95,5,
77.1788,4.77295,3.24249,2.382,19.9336,95,5,
77.1789,4.77753,3.24249,2.382,19.9336,95,5,
77.1789,4.77753,3.24249,2.382,19.9336,95,5,
77.1789,4.77783,3.24555,2.382,19.9336,95,5,
77.179,4.77814,3.24249,2.382,19.9336,95,5,
77.179,4.78088,3.24707,2.382,19.9336,95,5,
77.179,4.78302,3.23792,2.382,19.9336,95,5,
77.1791,4.78271,3.24402,2.382,19.9336,95,5,
77.1791,4.78241,3.24097,2.382,19.9336,95,5,
77.1791,4.78607,3.24249,2.382,19.9336,95,5,
77.1792,4.7879,3.24097,2.382,19.9336,95,5,
77.1792,4.7876,3.24555,2.382,19.9336,95,5,
77.1792,4.7879,3.23944,2.382,19.9336,95,5,
77.1793,4.79248,3.24402,2.382,19.9336,95,5,
77.1793,4.79248,3.24097,2.382,19.9336,95,5,
77.1793,4.79279,3.24402,2.382,19.9336,95,5,
77.1794,4.79309,3.24402,2.382,19.9336,95,5,
77.1794,4.79736,3.24402,2.382,19.9336,95,5,
77.1794,4.79767,3.24097,2.382,19.9336,95,5,
77.1795,4.79706,3.24402,2.382,19.9336,95,5,
77.1795,4.80164,3.24249,2.382,19.9336,95,5,
77.1795,4.80255,3.24555,2.382,19.9336,95,5,
77.1796,4.80225,3.23944,2.382,19.9336,95,5,
77.1796,4.8056,3.24402,2.382,19.9336,95,5,
77.1796,4.80743,3.24555,2.382,19.9336,95,5,
77.1797,4.80621,3.24249,2.382,19.9336,95,5,
77.1797,4.80835,3.24402,2.382,19.9336,95,5,
77.1797,4.81262,3.24707,2.382,19.9336,95,5,
77.1798,4.81201,3.24402,2.382,19.9336,95,5,
77.1798,4.81354,3.24555,2.382,19.9336,95,5,
77.1798,4.81689,3.24707,2.382,19.9336,95,5,
77.1799,4.81781,3.24402,2.382,19.9336,95,5,
77.1799,4.81842,3.24097,2.382,19.9336,95,5,
77.1799,4.82239,3.24402,2.382,19.9336,95,5,
77.18,4.82178,3.24249,2.382,19.9336,95,5,
77.18,4.82574,3.24097,2.382,19.9336,95,5,
77.18,4.82666,3.24249,2.382,19.9336,95,5,
77.1801,4.82666,3.24097,2.382,19.9336,95,5,
77.1801,4.83002,3.24097,2.382,19.9336,95,5,
77.1801,4.83185,3.24249,2.382,19.9336,95,5,
77.1802,4.83185,3.24402,2.382,19.9336,95,5,
77.1802,4.83704,3.24402,2.382,19.9336,95,5,
77.1802,4.83704,3.24097,2.382,19.9336,95,5,
77.1803,4.83734,3.24249,2.382,19.9336,95,5,
77.1803,4.84131,3.24249,2.382,19.9336,95,5,
77.1803,4.841,3.24249,2.382,19.9336,95,5,
77.1804,4.84528,3.24249,2.382,19.9336,95,5,
77.1804,4.8465,3.24097,2.382,19.9336,95,5,
77.1804,4.8465,3.24097,2.382,19.9336,95,5,
77.1805,4.85107,3.24402,2.382,19.9336,95,5,
77.1805,4.85138,3.24555,2.382,19.9336,95,5,
77.1805,4.85504,3.24707,2.382,19.9336,95,5,
77.1806,4.85596,3.24249,2.382,19.9336,95,5,
77.1806,4.85626,3.24097,2.382,19.9336,95,5,
77.1806,4.86176,3.24249,2.382,19.9336,95,5,
77.1807,4.86115,3.24249,2.382,19.9336,95,5,
77.1807,4.86542,3.24249,2.382,19.9336,95,5,
77.1807,4.86664,3.24707,2.382,19.9336,95,5,
77.1808,4.86694,3.24707,2.382,19.9336,95,5,
77.1808,4.87091,3.24097,2.382,19.9336,95,5,
77.1808,4.87122,3.24249,2.382,19.9336,95,5,
77.1809,4.87518,3.23792,2.382,19.9336,95,5,
77.1809,4.8761,3.24555,2.382,19.9336,95,5,
77.1809,4.88037,3.24249,2.382,19.9336,95,5,
77.181,4.88037,3.24402,2.382,19.9336,95,5,
77.181,4.88403,3.24402,2.382,19.9336,95,5,
77.181,4.88586,3.24402,2.382,19.9336,95,5,
77.1811,4.88647,3.24249,2.382,19.9336,95,5,
77.1811,4.89075,3.24402,2.382,19.9336,95,5,
77.1811,4.89105,3.24402,2.382,19.9336,95,5,
77.1812,4.89563,3.24707,2.382,19.9336,95,5,
77.1812,4.89655,3.24249,2.382,19.9336,95,5,
77.1812,4.90051,3.24402,2.382,19.9336,95,5,
77.1813,4.90051,3.24097,2.382,19.9336,95,5,
77.1813,4.9057,3.24249,2.382,19.9336,95,5,
77.1813,4.90509,3.24249,2.382,19.9336,95,5,
77.1814,4.9115,3.24555,2.382,19.9336,95,5,
77.1814,4.91089,3.24249,2.382,19.9336,95,5,
77.1814,4.91608,3.24402,2.382,19.9336,95,5,
77.1815,4.91486,3.24249,2.382,19.9336,95,5,
77.1815,4.92035,3.24249,2.382,19.9336,95,0,
77.1815,4.91974,3.24249,2.382,19.9336,95,0,
77.1816,4.92493,3.24402,2.382,19.9336,95,0,
77.1816,4.92615,3.24249,2.382,19.9336,95,0,
77.1816,4.9292,3.24249,2.382,19.9336,95,0,
77.1817,4.93103,3.24402,2.382,19.9336,95,0,
77.1817,4.93439,3.24097,2.382,19.9336,95,0,
77.1817,4.93561,3.24249,2.382,19.9336,95,0,
77.1818,4.93958,3.24402,2.382,19.9336,95,0,
77.1818,4.94263,3.24097,2.382,19.9336,95,0,
77.1818,4.94446,3.24249,2.382,19.9336,95,0,
77.1819,4.94873,3.24097,2.382,19.9336,95,0,
77.1819,4.94904,3.24097,2.382,19.9336,95,0,
77.1819,4.95392,3.24555,2.382,19.9336,95,0,
77.182,4.95422,3.24249,2.382,19.9336,95,0,
77.182,4.95911,3.24097,2.382,19.9336,95,0,
77.182,4.96033,3.24249,2.382,19.9336,95,0,
77.1821,4.9646,3.24249,2.382,19.9336,95,0,
77.1821,4.96796,3.24097,2.382,19.9336,95,0,
77.1821,4.96826,3.24249,2.382,19.9336,95,0,
77.1822,4.97406,3.24402,2.382,19.9336,95,0,
77.1822,4.97467,3.24402,2.382,19.9336,95,0,
77.1822,4.97803,3.24402,2.382,19.9336,95,0,
77.1823,4.97986,3.24402,2.382,19.9336,95,0,
77.1823,4.98413,3.24097,2.382,19.9336,95,0,
77.1823,4.98718,3.24249,2.382,19.9336,95,0,
77.1824,4.9881,3.24402,2.382,19.9336,95,0,
77.1824,4.99298,3.24097,2.382,19.9336,95,0,
77.1824,4.9942,3.24249,2.382,19.9336,95,0,
77.1825,4.99847,3.24402,2.382,19.9336,95,0,
77.1825,5.00214,3.24555,2.382,19.9336,95,0,
77.1825,5.00305,3.24555,2.382,19.9336,95,0,
77.1826,5.00824,3.23944,2.382,19.9336,95,0,
77.1826,5.00732,3.24402,2.382,19.9336,95,0,
77.1826,5.01343,3.24097,2.382,19.9336,95,0,
77.1827,5.01343,3.24249,2.382,19.9336,95,0,
77.1827,5.01801,3.24097,2.382,19.9336,95,0,
77.1827,5.02228,3.24097,2.382,19.9336,95,0,
77.1828,5.02228,3.24402,2.382,19.9336,95,0,
77.1828,5.02777,3.24707,2.382,19.9336,95,0,
77.1828,5.03143,3.24402,2.382,19.9336,95,0,
77.1829,5.03235,3.24249,2.382,19.9336,95,0,
77.1829,5.03723,3.24097,2.382,19.9336,95,0,
77.1829,5.03784,3.24555,2.382,19.9336,95,0,
77.183,5.04242,3.24402,2.382,19.9336,95,0,
77.183,5.04578,3.24097,2.382,19.9336,95,0,
77.183,5.0473,3.24249,2.382,19.9336,95,0,
77.1831,5.05249,3.24097,2.382,19.9336,95,0,
77.1831,5.0528,3.24555,2.382,19.9336,95,0,
77.1831,5.05737,3.24097,2.382,19.9336,95,0,
77.1832,5.06287,3.24402,2.382,19.9336,95,0,
77.1832,5.06256,3.24249,2.382,19.9336,95,0,
77.1832,5.06683,3.24402,2.382,19.9336,95,0,
77.1833,5.0705,3.24249,2.382,19.9336,95,0,
77.1833,5.07172,3.24402,0,19.9336,95,0,
77.1833,5.0769,3.24402,0,19.9336,95,0,
77.1834,5.07751,3.24097,0,19.9336,95,0,
77.1834,5.08148,3.2486,0,19.9336,95,0,
77.1834,5.08484,3.24097,0,19.9336,95,0,
77.1835,5.08636,3.24249,0,19.9336,95,0,
77.1835,5.09155,3.24402,0,19.9336,95,0,
77.1835,5.09216,3.24249,0,19.9336,95,0,
77.1836,5.09644,3.24097,0,19.9336,95,0,
77.1836,5.1004,3.24555,0,19.9336,95,0,
77.1836,5.10162,3.24249,0,19.9336,95,0,
77.1837,5.10559,3.24555,0,19.9336,95,0,
77.1837,5.11017,3.24249,0,19.9336,95,0,
77.1837,5.11047,3.24097,0,19.9336,95,0,
77.1838,5.11566,3.24249,0,19.9336,95,0,
77.1838,5.11658,3.24402,0,19.9336,95,0,
77.1838,5.12085,3.24402,0,19.9336,95,0,
77.1839,5.1239,3.24402,0,19.9336,95,0,
77.1839,5.12512,3.24097,0,19.9336,95,0,
77.1839,5.13062,3.24249,0,19.9336,95,0,
77.184,5.13184,3.24097,0,19.9336,95,0,
77.184,5.1358,3.24097,0,19.9336,95,0,
77.184,5.14008,3.23944,0,19.9336,95,0,
77.1841,5.14038,3.24402,0,19.9336,95,0,
77.1841,5.14526,3.24402,0,19.9336,95,0,
77.1841,5.14893,3.24249,0,19.9336,95,0,
77.1842,5.14954,3.24402,0,19.9336,95,0,
77.1842,5.15472,3.24555,0,19.9336,95,0,
77.1842,5.15503,3.24402,0,19.9336,95,0,
77.1843,5.15961,3.24249,0,19.9336,95,0,
77.1843,5.16052,3.24249,0,19.9336,95,0,
77.1843,5.16479,3.24249,0,19.9336,95,0,
77.1844,5.16907,3.24555,0,19.9336,95,0,
77.1844,5.16968,3.24097,0,19.9336,95,0,
77.1844,5.17456,3.24249,0,19.9336,95,0,
77.1845,5.17609,3.24402,0,19.9336,95,0,
77.1845,5.17944,3.24097,0,19.9336,95,0,
77.1845,5.18311,3.24402,0,19.9336,95,0,
77.1846,5.18463,3.24249,0,19.9336,95,0,
77.1846,5.18829,3.24097,0,19.9336,95,0,
77.1846,5.19043,3.23944,0,19.9336,95,0,
77.1847,5.19409,3.24249,0,19.9336,95,0,
77.1847,5.19775,3.24249,0,19.9336,95,0,
77.1847,5.19867,3.24402,0,19.9336,95,0,
77.1848,5.20355,3.24707,0,19.9336,95,0,
77.1848,5.20355,3.24249,0,19.9336,95,0,
77.1848,5.20844,3.24555,0,19.9336,95,0,
77.1849,5.20935,3.24097,0,19.9336,95,0,
77.1849,5.21362,3.24707,0,19.9336,95,0,
77.1849,5.21637,3.24402,0,19.9336,95,0,
77.185,5.21851,3.23944,0,19.9336,95,0,
77.185,5.22217,3.24402,0,19.9336,95,0,
77.185,5.224,3.24555,0,19.9336,95,0,
77.1851,5.22858,3.24249,0,19.9336,95,0,
77.1851,5.22858,3.24249,0,19.9336,95,0,
77.1851,5.23285,3.24249,0,19.9336,95,0,
77.1852,5.23468,3.24097,0,19.9336,95,0,
77.1852,5.23834,3.24402,0,19.9336,95,0,
77.1852,5.24231,3.24402,0,19.9336,95,0,
77.1853,5.24414,3.24402,0,19.9336,95,0,
77.1853,5.24719,3.24097,0,19.9336,95,0,
77.1853,5.24811,3.24555,0,19.9336,95,0,
77.1854,5.25238,3.24249,0,19.9336,95,0,
77.1854,5.25269,3.24249,0,19.9336,95,0,
77.1854,5.25787,3.24402,0,19.9336,95,0,
77.1855,5.25787,3.24707,0,19.9336,95,0,
77.1855,5.26245,3.24555,0,19.9336,95,0,
77.1855,5.26337,3.24555,0,19.9336,95,0,
77.1856,5.26794,3.24402,0,19.9336,95,0,
77.1856,5.26886,3.24402,0,19.9336,95,0,
77.1856,5.27222,3.24249,0,19.9336,95,0,
77.1857,5.27618,3.24097,0,19.9336,95,0,
77.1857,5.2771,3.24249,0,19.9336,95,0,
77.1857,5.28046,3.24249,0,19.9336,95,0,
77.1858,5.28168,3.24097,0,19.9336,95,0,
77.1858,5.28625,3.24249,0,19.9336,95,0,
77.1858,5.28687,3.24249,0,19.9336,95,0,
77.1859,5.29083,3.24249,0,19.9336,95,0,
77.1859,5.29205,3.24097,0,19.9336,95,0,
77.1859,5.29663,3.24402,0,19.9336,95,0,
77.186,5.29724,3.24249,0,19.9336,95,0,
77.186,5.30182,3.24555,0,19.9336,95,0,
77.186,5.30151,3.24097,0,19.9336,95,0,
77.1861,5.30609,3.24402,0,19.9336,95,0,
77.1861,5.30701,3.24402,0,19.9336,95,0,
77.1861,5.31128,3.24707,0,19.9336,95,0,
77.1862,5.31158,3.24707,0,19.9336,95,0,
77.1862,5.31616,3.24555,0,19.9336,95,0,
77.1862,5.31616,3.24249,0,19.9336,95,0,
77.1863,5.32074,3.24249,0,19.9336,95,0,
77.1863,5.32104,3.24402,0,19.9336,95,0,
77.1863,5.32471,3.24249,0,19.9336,95,0,
77.1864,5.32593,3.24707,0,19.9336,95,0,
77.1864,5.3299,3.24707,0,19.9336,95,0,
77.1864,5.33051,3.24249,0,19.9336,95,0,
77.1865,5.33539,3.24402,0,19.9336,95,0,
77.1865,5.33569,3.24402,0,19.9336,95,0,
77.1865,5.33691,3.24402,0,19.9336,95,0,
77.1866,5.34119,3.24555,0,19.9336,95,0,
77.1866,5.34271,3.24249,0,19.9336,95,0,
77.1866,5.34576,3.24555,0,19.9336,95,0,
77.1867,5.34607,3.24402,0,19.9336,95,0,
77.1867,5.35004,3.23944,0,19.9336,95,0,
77.1867,5.35065,3.24402,0,19.9336,95,0,
77.1868,5.35492,3.24555,0,19.9336,95,0,
77.1868,5.35645,3.24097,0,19.9336,95,0,
77.1868,5.3598,3.24097,0,19.9336,95,0,
77.1869,5.36133,3.24097,0,19.9336,95,0,
77.1869,5.36377,3.23944,0,19.9336,95,0,
77.1869,5.3656,3.24402,0,19.9336,95,0,
77.187,5.36652,3.24402,0,19.9336,95,0,
77.187,5.37018,3.24555,0,19.9336,95,0,
77.187,5.37018,3.24402,0,19.9336,95,0,
77.1871,5.37506,3.24402,0,19.9336,95,0,
77.1871,5.37506,3.24249,0,19.9336,95,0,
77.1871,5.37903,3.24249,0,19.9336,95,0,
77.1872,5.37994,3.24707,0,19.9336,95,0,
77.1872,5.38116,3.24249,0,19.9336,95,0,
77.1872,5.38513,3.24555,0,19.9336,95,0,
77.1873,5.38513,3.24097,0,19.9336,95,0,
77.1873,5.39032,3.24097,0,19.9336,95,0,
77.1873,5.3894,3.24555,0,19.9336,95,0,
77.1874,5.39337,3.24402,0,19.9336,95,0,
77.1874,5.39551,3.24402,0,19.9336,95,0,
77.1874,5.39581,3.24097,0,19.9336,95,0,
77.1875,5.40009,3.24097,0,19.9336,95,0,
77.1875,5.40039,3.24249,0,19.9336,95,0,
77.1875,5.40497,3.24402,0,19.9336,95,0,
77.1876,5.40466,3.24097,0,19.9336,95,0,
77.1876,5.40527,3.24249,0,19.9336,95,0,
77.1876,5.41016,3.24249,0,19.9336,95,0,
77.1877,5.40955,3.24097,0,19.9336,95,0,
77.1877,5.41473,3.24555,0,19.9336,95,0,
77.1877,5.41473,3.24097,0,19.9336,95,0,
77.1878,5.41504,3.24249,0,19.9336,95,0,
77.1878,5.41992,3.24707,0,19.9336,95,0,
77.1878,5.41901,3.24402,0,19.9336,95,0,
77.1879,5.42389,3.24249,0,19.9336,95,0,
77.1879,5.4245,3.24555,0,19.9336,95,0,
77.1879,5.42572,3.24402,0,19.9336,95,0,
77.188,5.42938,3.24249,0,19.9336,95,0,
77.188,5.42938,3.24707,0,19.9336,95,0,
77.188,5.43243,3.23944,0,19.9336,95,0,
77.1881,5.43488,3.24555,0,19.9336,95,0,
77.1881,5.43396,3.23944,0,19.9336,95,0,
77.1881,5.43945,3.24249,0,19.9336,95,0,
77.1882,5.43854,3.24402,0,19.9336,95,0,
77.1882,5.44006,3.24249,0,19.9336,95,0,
77.1882,5.44403,3.24249,0,19.9336,95,0,
77.1883,5.44403,3.24402,0,19.9336,95,0,
77.1883,5.44708,3.24249,0,19.9336,95,0,
77.1883,5.44891,3.24402,0,19.9336,95,0,
77.1884,5.44861,3.24402,0,19.9336,95,0,
77.1884,5.4538,3.24249,0,19.9336,95,0,
77.1884,5.45349,3.24249,0,19.9336,95,0,
77.1885,5.4541,3.24555,0,19.9336,95,0,
77.1885,5.45807,3.24402,0,19.9336,95,0,
77.1885,5.45837,3.24249,0,19.9336,95,0,
77.1886,5.45868,3.24402,0,19.9336,95,0,
77.1886,5.46356,3.24097,0,19.9336,95,0,
77.1886,5.46295,3.24097,0,19.9336,95,0,
77.1887,5.46448,3.24402,0,19.9336,95,0,
77.1887,5.46844,3.24555,0,19.9336,95,0,
77.1887,5.46814,3.24249,0,19.9336,95,0,
77.1888,5.46936,3.24402,0,19.9336,95,0,
77.1888,5.47302,3.24249,0,19.9336,95,0,
77.1888,5.47394,3.24402,0,19.9336,95,0,
77.1889,5.47424,3.24249,0,19.9336,95,0,
77.1889,5.47791,3.24555,0,19.9336,95,0,
77.1889,5.4776,3.24555,0,19.9336,95,0,
77.189,5.48187,3.24097,0,19.9336,95,0,
77.189,5.48309,3.24097,0,19.9336,95,0,
77.189,5.4837,3.24097,0,19.9336,95,0,
77.1891,5.4837,3.24097,0,19.9336,95,0,
77.1891,5.48828,3.2486,0,19.9336,95,0,
77.1891,5.48767,3.24097,0,19.9336,95,0,
77.1892,5.48889,3.24402,0,19.9336,95,0,
77.1892,5.49255,3.24249,0,19.9336,95,0,
77.1892,5.49316,3.24249,0,19.9336,95,0,
77.1893,5.49377,3.24249,0,19.9336,95,0,
77.1893,5.49774,3.24402,0,19.9336,95,0,
77.1893,5.49805,3.23944,0,19.9336,95,0,
77.1894,5.49774,3.24402,0,19.9336,95,0,
77.1894,5.50232,3.24249,0,19.9336,95,0,
77.1894,5.50232,3.24097,0,19.9336,95,0,
77.1895,5.50293,3.24097,0,19.9336,95,0,
77.1895,5.5072,3.24402,0,19.9336,95,0,
77.1895,5.50781,3.24097,0,19.9336,95,0,
77.1896,5.50751,3.24402,0,19.9336,95,0,
77.1896,5.51178,3.24249,0,19.9336,95,0,
77.1896,5.51239,3.24402,0,19.9336,95,0,
77.1897,5.5127,3.24249,0,19.9336,95,0,
77.1897,5.51605,3.24249,0,19.9336,95,0,
77.1897,5.51697,3.24707,0,19.9336,95,0,
77.1898,5.51666,3.24402,0,19.9336,95,0,
77.1898,5.51819,3.24249,0,19.9336,95,0,
77.1898,5.52216,3.24555,0,19.9336,95,0,
77.1899,5.52277,3.24097,0,19.9336,95,0,
77.1899,5.52246,3.24249,0,19.9336,95,0,
77.1899,5.52734,3.24555,0,19.9336,95,0,
77.19,5.52673,3.24097,0,19.9336,95,0,
77.19,5.52704,3.24555,0,19.9336,95,0,
77.19,5.53253,3.24402,0,19.9336,95,0,
77.1901,5.53223,3.24097,0,19.9336,95,0,
77.1901,5.53253,3.24402,0,19.9336,95,0,
77.1901,5.53589,3.24249,0,19.9336,95,0,
77.1902,5.53741,3.24097,0,19.9336,95,0,
77.1902,5.5368,3.24402,0,19.9336,95,0,
77.1902,5.5368,3.24249,0,19.9336,95,0,
77.1903,5.54199,3.24249,0,19.9336,95,0,
77.1903,5.54169,3.24097,0,19.9336,95,0,
77.1903,5.54169,3.24402,0,19.9336,95,0,
77.1904,5.54657,3.24402,0,19.9336,95,0,
77.1904,5.54718,3.24249,0,19.9336,95,0,
77.1904,5.54749,3.24402,0,19.9336,95,0,
77.1905,5.54779,3.24249,0,19.9336,95,0,
77.1905,5.55206,3.24402,0,19.9336,95,0,
77.1905,5.55206,3.24555,0,19.9336,95,0,
77.1906,5.55176,3.24097,0,19.9336,95,0,
77.1906,5.55695,3.24249,0,19.9336,95,0,
77.1906,5.55664,3.24249,0,19.9336,95,0,
77.1907,5.55695,3.24707,0,19.9336,95,0,
77.1907,5.5603,3.24097,0,19.9336,95,0,
77.1907,5.56122,3.24249,0,19.9336,95,0,
77.1908,5.56091,3.24707,0,19.9336,95,0,
77.1908,5.56213,3.24402,0,19.9336,95,0,
77.1908,5.56641,3.24097,0,19.9336,95,0,
77.1909,5.56641,3.24555,0,19.9336,95,0,
77.1909,5.5658,3.24097,0,19.9336,95,0,
77.1909,5.56976,3.24555,0,19.9336,95,0,
77.191,5.5719,3.23792,0,19.9336,95,0,
77.191,5.5719,3.24402,0,19.9336,95,0,
77.191,5.57159,3.24707,0,19.9336,95,0,
77.1911,5.57678,3.24249,0,19.9336,95,0,
77.1911,5.57678,3.24402,0,19.9336,95,0,
77.1911,5.57617,3.24249,0,19.9336,95,0,
77.1912,5.57983,3.24249,0,19.9336,95,0,
77.1912,5.58075,3.24402,0,19.9336,95,0,
77.1912,5.58197,3.24249,0,19.9336,95,0,
77.1913,5.58075,3.24249,0,19.9336,95,0,
77.1913,5.58594,3.24249,0,19.9336,95,0,
77.1913,5.58655,3.24402,0,19.9336,95,0,
77.1914,5.58594,3.24555,0,19.9336,95,0,
77.1914,5.5896,3.24402,0,19.9336,95,0,
77.1914,5.59021,3.24402,0,19.9336,95,0,
77.1915,5.59082,3.24249,0,19.9336,95,0,
77.1915,5.59113,3.24402,0,19.9336,95,0,
77.1915,5.59601,3.24097,0,19.9336,95,0,
77.1916,5.59662,3.24249,0,19.9336,95,0,
77.1916,5.59601,3.24249,0,19.9336,95,0,
77.1916,5.59906,3.24249,0,19.9336,95,0,
77.1917,5.60089,3.24402,0,19.9336,95,0,
77.1917,5.60059,3.24707,0,19.9336,95,0,
77.1917,5.60089,3.24097,0,19.9336,95,0,
77.1918,5.60547,3.24249,0,19.9336,95,0,
77.1918,5.60547,3.24097,0,19.9336,95,0,
77.1918,5.60577,3.24249,0,19.9336,95,0,
77.1919,5.6073,3.24097,0,19.9336,95,0,
77.1919,5.61035,3.24402,0,19.9336,95,0,
77.1919,5.61035,3.24707,0,19.9336,95,0,
77.192,5.61066,3.24249,0,19.9336,95,0,
77.192,5.61523,3.24249,0,19.9336,95,0,
77.192,5.61584,3.24402,0,19.9336,95,0,
77.1921,5.61554,3.24402,0,19.9336,95,0,
77.1921,5.61554,3.24249,0,19.9336,95,0,
77.1921,5.62012,3.24097,0,19.9336,95,0,
77.1922,5.61981,3.24097,0,19.9336,95,0,
77.1922,5.61981,3.24402,0,19.9336,95,0,
77.1922,5.62347,3.24097,0,19.9336,95,0,
77.1923,5.625,3.24097,0,19.9336,95,0,
77.1923,5.625,3.24402,0,19.9336,95,0,
77.1923,5.62469,3.24707,0,19.9336,95,0,
77.1924,5.63019,3.24249,0,19.9336,95,0,
77.1924,5.63019,3.24249,0,19.9336,95,0,
77.1924,5.62988,3.23944,0,19.9336,95,0,
77.1925,5.62988,3.24402,0,19.9336,95,0,
77.1925,5.63507,3.24097,0,19.9336,95,0,
77.1925,5.63416,3.24097,0,19.9336,95,0,
77.1926,5.63416,3.24097,0,19.9336,95,0,
77.1926,5.63599,3.24097,0,19.9336,95,0,
77.1926,5.64026,3.24249,0,19.9336,95,0,
77.1927,5.64056,3.24249,0,19.9336,95,0,
77.1927,5.63995,3.24402,0,19.9336,95,0,
77.1927,5.64301,3.24249,0,19.9336,95,0,
77.1928,5.64423,3.23944,0,19.9336,95,0,
77.1928,5.64575,3.24097,0,19.9336,95,0,
77.1928,5.64453,3.24249,0,19.9336,95,0,
77.1929,5.6488,3.23944,0,19.9336,95,0,
77.1929,5.64972,3.24402,0,19.9336,95,0,
77.1929,5.65033,3.24707,0,19.9336,95,0,
77.193,5.64972,3.24249,0,19.9336,95,0,
77.193,5.65521,3.23944,0,19.9336,95,0,
77.193,5.65582,3.24402,0,19.9336,95,0,
77.1931,5.6543,3.24097,0,19.9336,95,0,
77.1931,5.6546,3.24097,0,19.9336,95,0,
77.1931,5.65979,3.24097,0,19.9336,95,0,
77.1932,5.65979,3.24402,0,19.9336,95,0,
77.1932,5.65948,3.24707,0,19.9336,95,5,
77.1932,5.65887,3.24249,0,19.9336,95,5,
77.1933,5.66345,3.24555,0,19.9336,95,5,
77.1933,5.66467,3.24249,0,19.9336,95,5,
77.1933,5.66406,3.24402,0,19.9336,95,5,
77.1934,5.66406,3.24402,0,19.9336,95,5,
77.1934,5.66742,3.24097,0,13.0776,95,5,
77.1934,5.66895,3.24555,0,13.0776,95,5,
77.1935,5.66833,3.24097,0,13.0776,95,5,
77.1935,5.66895,3.24402,0,13.0776,95,5,
77.1935,5.66986,3.24402,0,13.0776,95,5,
77.1936,5.67352,3.24249,0,13.0776,95,5,
77.1936,5.67474,3.24555,0,13.0776,95,5,
77.1936,5.67474,3.24555,0,13.0776,95,5,
77.1937,5.67413,3.24402,0,13.0776,95,5,
77.1937,5.67841,3.24402,0,13.0776,95,5,
77.1937,5.67932,3.24249,0,13.0776,95,5,
77.1938,5.67902,3.24249,0,13.0776,95,5,
77.1938,5.67932,3.24097,0,13.0776,95,5,
77.1938,5.6839,3.24402,0,13.0776,95,5,
77.1939,5.68298,3.24097,0,13.0776,95,5,
77.1939,5.68359,3.24097,0,13.0776,95,5,
77.1939,5.6839,3.24402,0,13.0776,95,5,
77.194,5.68481,3.24249,0,13.0776,95,5,
77.194,5.68848,3.24555,0,13.0776,95,5,
77.194,5.68909,3.24402,0,13.0776,95,5,
77.1941,5.69,3.24402,0,13.0776,95,5,
77.1941,5.68817,3.24097,0,13.0776,95,5,
77.1941,5.69214,3.24402,0,13.0776,95,5,
77.1942,5.69427,3.23944,0,13.0776,95,5,
77.1942,5.69336,3.24555,0,13.0776,95,5,
77.1942,5.69427,3.24249,0,13.0776,95,5,
77.1943,5.69366,3.24097,0,13.0776,95,5,
77.1943,5.69824,3.24249,0,13.0776,95,5,
77.1943,5.69855,3.24249,0,13.0776,95,5,
77.1944,5.69855,3.24402,0,13.0776,95,5,
77.1944,5.69977,3.24097,0,13.0776,95,5,
77.1944,5.69855,3.24097,0,13.0776,95,5,
77.1945,5.70404,3.24249,0,13.0776,95,5,
77.1945,5.70374,3.24249,0,13.0776,95,5,
77.1945,5.70374,3.24249,0,13.0776,95,5,
77.1946,5.70374,3.24555,0,13.0776,95,5,
77.1946,5.70343,3.24402,0,13.0776,95,5,
77.1946,5.70709,3.24402,0,13.0776,95,5,
77.1947,5.70892,3.24555,0,13.0776,95,5,
77.1947,5.70831,3.24249,0,13.0776,95,5,
77.1947,5.70831,3.24402,0,13.0776,95,5,
77.1948,5.70831,3.24402,0,13.0776,95,5,
77.1948,5.70923,3.24249,0,13.0776,95,5,
77.1948,5.7135,3.24402,0,13.0776,95,5,
77.1949,5.7135,3.24402,0,13.0776,95,5,
77.1949,5.71381,3.24402,0,13.0776,95,5,
77.1949,5.7132,3.24707,0,13.0776,95,5,
77.195,5.7135,3.24249,0,13.0776,95,5,
77.195,5.71625,3.24097,0,13.0776,95,5,
77.195,5.71777,3.24097,0,13.0776,95,5,
77.1951,5.71777,3.24402,0,13.0776,95,5,
77.1951,5.71808,3.24249,0,13.0776,95,5,
77.1951,5.71838,3.24707,0,13.0776,95,5,
77.1952,5.7196,3.24555,0,13.0776,95,5,
77.1952,5.72296,3.24249,0,13.0776,95,5,
77.1952,5.72296,3.24402,0,13.0776,95,5,
77.1953,5.72327,3.24097,0,13.0776,95,5,
77.1953,5.72266,3.24097,0,13.0776,95,5,
77.1953,5.72357,3.24402,0,13.0776,95,5,
77.1954,5.72388,3.24555,0,13.0776,95,5,
77.1954,5.72449,3.24097,0,13.0776,95,5,
77.1954,5.72845,3.24249,0,13.0776,95,5,
77.1955,5.72784,3.23944,0,13.0776,95,5,
77.1955,5.72815,3.23181,0,13.0776,95,5,
77.1955,5.72784,3.23181,0,13.0776,95,5,
77.1956,5.72784,3.23486,0,13.0776,95,5,
77.1956,5.72876,3.23181,0,13.0776,95,5,
77.1956,5.72784,3.23181,0,13.0776,95,5,
77.1957,5.73334,3.23029,0,13.0776,95,5,
77.1957,5.73273,3.22724,0,13.0776,95,5,
77.1957,5.73303,3.23029,0,13.0776,95,5,
77.1958,5.73364,3.23181,0,13.0776,95,5,
77.1958,5.73303,3.23181,0,13.0776,95,5,
77.1958,5.73425,3.22724,0,13.0776,95,5,
77.1959,5.73364,3.23639,0,13.0776,95,5,
77.1959,5.73273,3.23181,0,13.0776,95,5,
77.1959,5.73608,3.23181,0,13.0776,95,5,
77.196,5.73761,3.23181,0,13.0776,95,5,
77.196,5.73792,3.23486,0,13.0776,95,5,
77.196,5.73822,3.23181,0,13.0776,95,5,
77.1961,5.73792,3.23029,0,13.0776,95,5,
77.1961,5.7373,3.23029,0,13.0776,95,5,
77.1961,5.73792,3.23029,0,13.0776,95,5,
77.1962,5.73761,3.23334,0,13.0776,95,5,
77.1962,5.73792,3.23334,0,13.0776,95,5,
77.1962,5.73853,3.23181,0,13.0776,95,5,
77.1963,5.73853,3.23334,0,13.0776,95,5,
77.1963,5.74188,3.23029,0,13.0776,95,5,
77.1963,5.7428,3.23181,0,13.0776,95,5,
77.1964,5.74341,3.23486,0,13.0776,95,5,
77.1964,5.74341,3.23181,0,13.0776,95,5,
77.1964,5.74219,3.22724,0,13.0776,95,5,
77.1965,5.7428,3.23181,0,13.0776,95,5,
77.1965,5.7428,3.23181,0,13.0776,95,5,
77.1965,5.74341,3.23181,0,13.0776,95,5,
77.1966,5.74249,3.23181,0,13.0776,95,5,
77.1966,5.74219,3.23029,0,13.0776,95,5,
77.1966,5.7431,3.23029,0,13.0776,95,5,
77.1967,5.7428,3.23181,0,13.0776,95,5,
77.1967,5.74249,3.23334,2.242,13.0776,95,5,
77.1967,5.74249,3.23334,2.242,13.0776,95,5,
77.1968,5.7428,3.22876,2.242,13.0776,95,5,
77.1968,5.7428,3.23334,2.242,13.0776,95,5,
77.1968,5.74249,3.23181,2.242,13.0776,95,5,
77.1969,5.7428,3.23181,2.242,13.0776,95,5,
77.1969,5.74249,3.23334,2.242,13.0776,95,5,
77.1969,5.74371,3.23029,2.242,13.0776,95,5,
77.197,5.7428,3.23029,2.242,13.0776,95,5,
77.197,5.7431,3.23029,2.242,13.0776,95,5,
77.197,5.7428,3.23334,2.242,13.0776,95,5,
77.1971,5.7428,3.23181,2.242,13.0776,95,5,
77.1971,5.7431,3.23029,2.242,13.0776,95,5,
77.1971,5.74249,3.23029,2.242,13.0776,95,5,
77.1972,5.7428,3.23181,2.242,13.0776,95,5,
77.1972,5.74219,3.23181,2.242,13.0776,95,5,
77.1972,5.7431,3.22876,2.242,13.0776,95,5,
77.1973,5.7428,3.23334,2.242,13.0776,95,5,
77.1973,5.74249,3.23334,2.242,13.0776,95,5,
77.1973,5.7428,3.23181,2.242,13.0776,95,5,
77.1974,5.7428,3.23029,2.242,13.0776,95,5,
77.1974,5.7431,3.23029,2.242,13.0776,95,5,
77.1974,5.74249,3.23029,2.242,13.0776,95,5,
77.1975,5.74219,3.23029,2.242,13.0776,95,5,
77.1975,5.74219,3.23181,2.242,13.0776,95,5,
77.1975,5.7428,3.23029,2.242,13.0776,95,5,
77.1976,5.74249,3.22724,2.242,13.0776,95,5,
77.1976,5.74249,3.23029,2.242,13.0776,95,5,
77.1976,5.74219,3.23181,2.242,13.0776,95,5,
77.1977,5.74341,3.23181,2.242,13.0776,95,5,
77.1977,5.74249,3.23029,2.242,13.0776,95,5,
77.1977,5.7428,3.23334,2.242,13.0776,95,5,
77.1978,5.74249,3.23029,2.242,13.0776,95,5,
77.1978,5.7428,3.23334,2.242,13.0776,95,5,
77.1978,5.7428,3.23334,2.242,13.0776,95,5,
77.1979,5.7428,3.23029,2.242,13.0776,95,5,
77.1979,5.74219,3.23029,2.242,13.0776,95,5,
77.1979,5.74219,3.23181,2.242,13.0776,95,5,
77.198,5.73761,3.22876,2.242,13.0776,95,5,
77.198,5.73761,3.23029,2.242,13.0776,95,5,
77.198,5.73822,3.23029,2.242,13.0776,95,5,
77.1981,5.73792,3.23029,2.242,13.0776,95,5,
77.1981,5.73792,3.23181,2.242,13.0776,95,5,
77.1981,5.73669,3.22724,2.242,13.0776,95,5,
77.1982,5.73822,3.23334,2.242,13.0776,95,5,
77.1982,5.73761,3.23181,2.242,13.0776,95,5,
77.1982,5.73792,3.23029,2.242,13.0776,95,5,
77.1983,5.73792,3.23181,2.242,13.0776,95,5,
77.1983,5.73761,3.23029,2.242,13.0776,95,5,
77.1983,5.73822,3.23029,2.242,13.0776,95,5,
77.1984,5.73303,3.23029,2.242,13.0776,95,5,
77.1984,5.73242,3.23181,2.242,13.0776,95,5,
77.1984,5.73303,3.23029,2.242,13.0776,95,5,
77.1985,5.73303,3.23029,2.242,13.0776,95,5,
77.1985,5.73242,3.22724,2.242,13.0776,95,5,
77.1985,5.73273,3.23181,2.242,13.0776,95,5,
77.1986,5.73273,3.23029,2.242,13.0776,95,5,
77.1986,5.73181,3.23181,2.242,13.0776,95,5,
77.1986,5.73303,3.23029,2.242,13.0776,95,5,
77.1987,5.73242,3.23181,2.242,13.0776,95,5,
77.1987,5.72754,3.22876,2.242,13.0776,95,5,
77.1987,5.72754,3.23029,2.242,13.0776,95,5,
77.1988,5.72754,3.23334,2.242,13.0776,95,5,
77.1988,5.72784,3.23334,2.242,13.0776,95,5,
77.1988,5.72754,3.23029,2.242,13.0776,95,5,
77.1989,5.72784,3.22724,2.242,13.0776,95,5,
77.1989,5.72784,3.23334,2.242,13.0776,95,5,
77.1989,5.72693,3.23029,2.242,13.0776,95,5,
77.199,5.72266,3.23029,2.242,13.0776,95,5,
77.199,5.72327,3.23029,2.242,13.0776,95,5,
77.199,5.72357,3.23029,2.242,13.0776,95,5,
77.1991,5.72327,3.22876,2.242,13.0776,95,5,
77.1991,5.72296,3.23029,2.242,13.0776,95,5,
77.1991,5.72357,3.22876,2.242,13.0776,95,5,
77.1992,5.72327,3.23181,2.242,13.0776,95,5,
77.1992,5.71838,3.23181,2.242,13.0776,95,5,
77.1992,5.71869,3.22876,2.242,13.0776,95,5,
77.1993,5.71899,3.23029,2.242,13.0776,95,5,
77.1993,5.71808,3.23029,2.242,13.0776,95,5,
77.1993,5.71899,3.23029,2.242,13.0776,95,5,
77.1994,5.71838,3.22724,2.242,13.0776,95,5,
77.1994,5.71808,3.22876,2.242,13.0776,95,5,
77.1994,5.7132,3.23334,2.242,13.0776,95,5,
77.1995,5.71228,3.22724,2.242,13.0776,95,5,
77.1995,5.71381,3.23334,2.242,13.0776,95,5,
77.1995,5.7132,3.23334,2.242,13.0776,95,5,
77.1996,5.7132,3.23181,2.242,13.0776,95,5,
77.1996,5.7135,3.23029,2.242,13.0776,95,5,
77.1996,5.71228,3.22876,2.242,13.0776,95,5,
77.1997,5.70892,3.22724,2.242,13.0776,95,5,
77.1997,5.70801,3.23486,2.242,13.0776,95,5,
77.1997,5.70801,3.23029,2.242,13.0776,95,5,
77.1998,5.7077,3.23334,2.242,13.0776,95,5,
77.1998,5.70801,3.23029,2.242,13.0776,95,5,
77.1998,5.70801,3.23029,2.242,13.0776,95,5,
77.1999,5.70374,3.23334,2.242,13.0776,95,5,
77.1999,5.70404,3.23029,2.242,13.0776,95,5,
77.1999,5.70374,3.23181,2.242,13.0776,95,5,
77.2,5.70312,3.23029,2.242,13.0776,95,5,
77.2,5.70343,3.23029,2.242,13.0776,95,5,
77.2,5.70343,3.23181,2.242,13.0776,95,5,
77.2001,5.69885,3.23181,2.242,13.0776,95,5,
77.2001,5.69794,3.23029,2.242,13.0776,95,5,
77.2001,5.69855,3.23029,2.242,13.0776,95,5,
77.2002,5.69824,3.22876,2.242,13.0776,95,5,
77.2002,5.69916,3.23334,2.242,13.0776,95,5,
77.2002,5.69763,3.23029,2.242,13.0776,95,5,
77.2003,5.69397,3.23029,2.242,13.0776,95,5,
77.2003,5.69366,3.23029,2.242,13.0776,95,5,
77.2003,5.69397,3.23181,2.242,13.0776,95,5,
77.2004,5.69366,3.22876,2.242,13.0776,95,5,
77.2004,5.69427,3.22724,2.242,13.0776,95,5,
77.2004,5.69,3.22571,2.242,13.0776,95,5,
77.2005,5.68848,3.23334,2.242,13.0776,95,5,
77.2005,5.68878,3.23334,2.242,13.0776,95,5,
77.2005,5.68878,3.23181,2.242,13.0776,95,5,
77.2006,5.68878,3.23181,2.242,13.0776,95,5,
77.2006,5.68909,3.23334,2.242,13.0776,95,5,
77.2006,5.68359,3.23486,2.242,13.0776,95,5,
77.2007,5.6839,3.23029,2.242,13.0776,95,5,
77.2007,5.6839,3.23181,2.242,13.0776,95,5,
77.2007,5.6839,3.23181,2.242,13.0776,95,5,
77.2008,5.6839,3.23029,2.242,13.0776,95,5,
77.2008,5.67871,3.23029,2.242,13.0776,95,5,
77.2008,5.67871,3.23029,2.242,13.0776,95,5,
77.2009,5.67963,3.23181,2.242,13.0776,95,5,
77.2009,5.67902,3.23181,2.242,13.0776,95,5,
77.2009,5.67871,3.23029,2.242,13.0776,95,5,
77.201,5.67566,3.23029,2.242,13.0776,95,5,
77.201,5.67383,3.23029,2.242,13.0776,95,5,
77.201,5.67322,3.23181,2.242,13.0776,95,5,
77.2011,5.67444,3.23181,2.242,13.0776,95,5,
77.2011,5.67413,3.22876,2.242,13.0776,95,5,
77.2011,5.67322,3.22876,2.242,13.0776,95,5,
77.2012,5.66956,3.23029,2.242,13.0776,95,5,
77.2012,5.66895,3.23029,2.242,13.0776,95,5,
77.2012,5.66895,3.23029,2.242,13.0776,95,5,
77.2013,5.66925,3.23181,2.242,13.0776,95,5,
77.2013,5.66772,3.23181,2.242,13.0776,95,5,
77.2013,5.66406,3.23334,2.242,13.0776,95,5,
77.2014,5.66437,3.23334,2.242,13.0776,95,5,
77.2014,5.66406,3.23029,2.242,13.0776,95,5,
77.2014,5.66406,3.23334,2.242,13.0776,95,5,
77.2015,5.66376,3.23486,2.242,13.0776,95,5,
77.2015,5.65948,3.22876,2.242,13.0776,95,5,
77.2015,5.65857,3.23181,2.242,13.0776,95,5,
77.2016,5.65918,3.23334,2.242,13.0776,95,5,
77.2016,5.65918,3.23029,2.242,13.0776,95,5,
77.2016,5.65796,3.23181,2.242,13.0776,95,5,
77.2017,5.6546,3.22876,2.242,13.0776,95,5,
77.2017,5.65491,3.22876,2.242,13.0776,95,5,
77.2017,5.6543,3.23029,2.242,13.0776,95,5,
77.2018,5.6543,3.22876,2.242,13.0776,95,5,
77.2018,5.65369,3.23181,2.242,13.0776,95,5,
77.2018,5.65002,3.23029,2.242,13.0776,95,5,
77.2019,5.64941,3.23029,2.242,13.0776,95,5,
77.2019,5.6488,3.23334,2.242,13.0776,95,5,
77.2019,5.64972,3.23181,2.242,13.0776,95,5,
77.202,5.64667,3.22876,2.242,13.0776,95,5,
77.202,5.64484,3.23486,2.242,13.0776,95,5,
77.202,5.64453,3.23486,2.242,13.0776,95,5,
77.2021,5.64514,3.23029,2.242,13.0776,95,5,
77.2021,5.64484,3.23029,2.242,13.0776,95,5,
77.2021,5.63995,3.23029,2.242,13.0776,95,5,
77.2022,5.64026,3.22876,2.242,13.0776,95,5,
77.2022,5.63995,3.23181,2.242,13.0776,95,5,
77.2022,5.63965,3.22724,2.242,13.0776,95,5,
77.2023,5.63995,3.22724,2.242,13.0776,95,5,
77.2023,5.63538,3.23181,2.242,13.0776,95,5,
77.2023,5.63568,3.23029,2.242,13.0776,95,5,
77.2024,5.63446,3.23181,2.242,13.0776,95,5,
77.2024,5.63477,3.23029,2.242,13.0776,95,5,
77.2024,5.63385,3.23029,2.242,13.0776,95,5,
