3500-SECPT.acq
2 msec/sample
6 channels
RSP, X, RSPEC-R
Volts
EDA, Y, PPGED-R
microsiemens
ECG R-R
Seconds
Respiration Rate
BPM
C7 - EDR
Peaks
C14 - Control
Volts
min,CH1,CH14,CH40,CH42,CH47,CH54,
,89335,89335,89335,89335,89335,89335,
217.282,6.05682,8.08869,0.334,10.9609,679,5,
217.282,6.05682,8.08563,0.334,10.9609,679,5,
217.282,6.05743,8.08563,0.334,10.9609,679,5,
217.282,6.05743,8.08563,0.334,10.9609,679,5,
217.282,6.05713,8.08716,0.334,10.9609,679,5,
217.282,6.05713,8.08563,0.334,10.9609,679,5,
217.282,6.05194,8.08716,0.334,10.9609,679,5,
217.282,6.05194,8.08716,0.334,10.9609,679,5,
217.282,6.05225,8.09631,0.334,10.9609,679,5,
217.282,6.05225,8.09631,0.334,10.9609,679,5,
217.282,6.05225,8.09631,0.334,10.9609,679,5,
217.282,6.05255,8.09784,0.334,10.9609,679,5,
217.282,6.04828,8.09784,0.334,10.9609,679,5,
217.282,6.04767,8.09784,0.334,10.9609,679,5,
217.282,6.04736,8.09631,0.334,10.9609,679,5,
217.282,6.04736,8.09631,0.334,10.9609,679,5,
217.282,6.04797,8.09631,0.334,10.9609,679,5,
217.282,6.04706,8.09784,0.334,10.9609,679,5,
217.282,6.04736,8.09784,0.334,10.9609,679,5,
217.282,6.04248,8.11005,0.334,10.9609,679,5,
217.282,6.04248,8.10547,0.334,10.9609,679,5,
217.283,6.04218,8.107,0.334,10.9609,679,5,
217.283,6.04126,8.10852,0.334,10.9609,679,5,
217.283,6.04248,8.11157,0.334,10.9609,679,5,
217.283,6.04218,8.11005,0.334,10.9609,679,5,
217.283,6.04218,8.107,0.334,10.9609,679,5,
217.283,6.0379,8.10852,0.334,10.9609,679,5,
217.283,6.0376,8.10852,0.334,10.9609,679,5,
217.283,6.0376,8.10852,0.334,10.9609,679,5,
217.283,6.0376,8.10852,0.334,10.9609,679,5,
217.283,6.0376,8.12073,0.334,10.9609,679,5,
217.283,6.0376,8.12073,0.334,10.9609,679,5,
217.283,6.03699,8.12073,0.334,10.9609,679,5,
217.283,6.0376,8.12073,0.334,10.9609,679,5,
217.283,6.03271,8.12073,0.334,10.9609,679,5,
217.283,6.03271,8.12378,0.334,10.9609,679,5,
217.283,6.03271,8.1192,0.334,10.9609,679,5,
217.283,6.03271,8.12073,0.334,10.9609,679,5,
217.283,6.03241,8.1192,0.334,10.9609,679,5,
217.283,6.03271,8.12073,0.334,10.9609,679,5,
217.283,6.03241,8.12225,0.334,10.9609,679,5,
217.283,6.03271,8.13141,0.334,10.9609,679,5,
217.283,6.02783,8.13294,0.334,10.9609,679,5,
217.283,6.02753,8.13294,0.334,10.9609,679,5,
217.283,6.02783,8.13446,0.334,10.9609,679,5,
217.283,6.02814,8.13294,0.334,10.9609,679,5,
217.283,6.02844,8.13141,0.334,10.9609,679,5,
217.283,6.02814,8.13294,0.334,10.9609,679,5,
217.283,6.02692,8.13294,0.334,10.9609,679,5,
217.283,6.02722,8.13751,0.334,10.9609,679,5,
217.284,6.02448,8.13446,0.334,10.9609,679,5,
217.284,6.02325,8.13599,0.334,10.9609,679,5,
217.284,6.02295,8.13141,0.334,10.9609,679,5,
217.284,6.02264,8.14209,0.334,10.9609,679,5,
217.284,6.02325,8.14667,0.334,10.9609,679,5,
217.284,6.02295,8.14667,0.334,10.9609,679,5,
217.284,6.02234,8.14819,0.334,10.9609,679,5,
217.284,6.02264,8.14514,0.334,10.9609,679,5,
217.284,6.02325,8.14667,0.334,10.9609,679,5,
217.284,6.02264,8.14514,0.334,10.9609,679,5,
217.284,6.01807,8.14362,0.334,10.9609,679,5,
217.284,6.01837,8.14667,0.334,10.9609,679,5,
217.284,6.01776,8.14667,0.334,10.9609,679,5,
217.284,6.01837,8.14514,0.334,10.9609,679,5,
217.284,6.01868,8.14667,0.334,10.9609,679,5,
217.284,6.01776,8.14819,0.334,10.9609,679,5,
217.284,6.01807,8.15735,0.334,10.9609,679,5,
217.284,6.01776,8.16193,0.334,10.9609,679,5,
217.284,6.01837,8.1604,0.334,10.9609,679,5,
217.284,6.01837,8.16193,0.334,10.9609,679,5,
217.284,6.01349,8.15735,0.334,10.9609,679,5,
217.284,6.01257,8.15735,0.334,10.9609,679,5,
217.284,6.01257,8.15582,0.334,10.9609,679,5,
217.284,6.01318,8.15888,0.334,10.9609,679,5,
217.284,6.01257,8.1604,0.334,10.9609,679,5,
217.284,6.01257,8.15888,0.334,10.9609,679,5,
217.284,6.01288,8.15735,0.334,10.9609,679,5,
217.284,6.01318,8.15582,0.334,10.9609,679,5,
217.284,6.01318,8.15888,0.334,10.9609,679,5,
217.284,6.01318,8.16956,0.334,10.9609,679,5,
217.285,6.01318,8.16956,0.334,10.9609,679,5,
217.285,6.00922,8.16956,0.334,10.9609,679,5,
217.285,6.0083,8.17108,0.334,10.9609,679,5,
217.285,6.0083,8.16956,0.334,10.9609,679,5,
217.285,6.0083,8.16956,0.334,10.9609,679,5,
217.285,6.0083,8.16956,0.334,10.9609,679,5,
217.285,6.00891,8.16956,0.334,10.9609,679,5,
217.285,6.008,8.16956,0.334,10.9609,679,5,
217.285,6.008,8.16956,0.334,10.9609,679,5,
217.285,6.00891,8.16956,0.334,10.9609,679,5,
217.285,6.0083,8.17108,0.334,10.9609,679,5,
217.285,6.008,8.16956,0.334,10.9609,679,5,
217.285,6.0083,8.17108,0.334,10.9609,679,5,
217.285,6.008,8.18482,0.334,10.9609,679,5,
217.285,6.00372,8.18482,0.334,10.9609,679,5,
217.285,6.00311,8.18329,0.334,10.9609,679,5,
217.285,6.00189,8.18176,0.334,10.9609,679,5,
217.285,6.00342,8.18176,0.334,10.9609,679,5,
217.285,6.00311,8.18176,0.334,10.9609,679,5,
217.285,6.00281,8.18024,0.334,10.9609,679,5,
217.285,6.00342,8.18176,0.334,10.9609,679,5,
217.285,6.00342,8.18176,0.334,10.9609,679,5,
217.285,6.00311,8.18024,0.334,10.9609,679,5,
217.285,6.00281,8.18329,0.334,10.9609,679,5,
217.285,6.00311,8.18329,0.334,10.9609,679,5,
217.285,6.00281,8.18176,0.334,10.9609,679,5,
217.285,6.00281,8.19702,0.334,10.9609,679,5,
217.285,6.00342,8.19702,0.334,10.9609,679,5,
217.285,5.99792,8.1955,0.334,10.9609,679,5,
217.285,5.99792,8.19855,0.334,10.9609,679,5,
217.286,5.99823,8.19244,0.334,10.9609,679,5,
217.286,5.99823,8.19397,0.334,10.9609,679,5,
217.286,5.99823,8.19702,0.334,10.9609,679,5,
217.286,5.99792,8.19244,0.334,10.9609,679,5,
217.286,5.99823,8.19397,0.334,10.9609,679,5,
217.286,5.99792,8.1955,0.334,10.9609,679,5,
217.286,5.99823,8.18787,0.334,10.9609,679,5,
217.286,5.99792,8.19244,0.334,10.9609,679,5,
217.286,5.99792,8.20618,0.334,10.9609,679,5,
217.286,5.99823,8.20618,0.334,10.9609,679,5,
217.286,5.99762,8.20465,0.334,10.9609,679,5,
217.286,5.99792,8.20465,0.334,10.9609,679,5,
217.286,5.99823,8.20465,0.334,10.9609,679,5,
217.286,5.9964,8.20618,0.334,10.9609,679,5,
217.286,5.99335,8.2077,0.334,10.9609,679,5,
217.286,5.99335,8.2077,0.334,10.9609,679,5,
217.286,5.99304,8.2077,0.334,10.9609,679,5,
217.286,5.99335,8.20923,0.334,10.9609,679,5,
217.286,5.99304,8.21076,0.334,10.9609,679,5,
217.286,5.99335,8.20313,0.334,10.9609,679,5,
217.286,5.99335,8.21838,0.334,10.9609,679,5,
217.286,5.99304,8.22144,0.334,10.9609,679,5,
217.286,5.99335,8.21991,0.334,10.9609,679,5,
217.286,5.99304,8.21991,0.334,10.9609,679,5,
217.286,5.99274,8.21991,0.334,10.9609,679,5,
217.286,5.99304,8.21686,0.334,10.9609,679,5,
217.286,5.99335,8.22144,0.334,10.9609,679,5,
217.286,5.99274,8.21686,0.334,10.9609,679,5,
217.286,5.99304,8.21991,0.334,10.9609,679,5,
217.286,5.98816,8.21686,0.334,10.9609,679,5,
217.286,5.98877,8.21991,0.334,10.9609,679,5,
217.287,5.98816,8.21838,0.334,10.9609,679,5,
217.287,5.98816,8.22907,0.334,10.9609,679,5,
217.287,5.98785,8.22907,0.334,10.9609,679,5,
217.287,5.98846,8.22601,0.334,10.9609,679,5,
217.287,5.98816,8.23212,0.334,10.9609,679,5,
217.287,5.98816,8.22907,0.334,10.9609,679,5,
217.287,5.98877,8.23059,0.334,10.9609,679,5,
217.287,5.98846,8.23212,0.334,10.9609,679,5,
217.287,5.98877,8.23059,0.334,10.9609,679,5,
217.287,5.98816,8.23059,0.334,10.9609,679,5,
217.287,5.98816,8.22907,0.334,10.9609,679,5,
217.287,5.98755,8.23059,0.334,10.9609,679,5,
217.287,5.98816,8.23059,0.334,10.9609,679,5,
217.287,5.98694,8.23364,0.334,10.9609,679,5,
217.287,5.98358,8.23822,0.334,10.9609,679,5,
217.287,5.98328,8.24127,0.334,10.9609,679,5,
217.287,5.98358,8.23975,0.334,10.9609,679,5,
217.287,5.98358,8.2428,0.334,10.9609,679,5,
217.287,5.98358,8.2428,0,10.9609,679,5,
217.287,5.98328,8.24585,0,10.9609,679,5,
217.287,5.98389,8.2428,0,10.9609,679,5,
217.287,5.98297,8.2428,0,10.9609,679,5,
217.287,5.98328,8.24432,0,10.9609,679,5,
217.287,5.98297,8.2428,0,10.9609,679,5,
217.287,5.98358,8.2428,0,10.9609,679,5,
217.287,5.98389,8.2428,0,10.9609,679,5,
217.287,5.98297,8.24585,0,10.9609,679,5,
217.287,5.98297,8.24585,0,10.9609,679,5,
217.287,5.98206,8.25653,0,10.9609,679,5,
217.287,5.97839,8.25501,2.268,10.9609,679,5,
217.288,5.97931,8.25195,2.268,10.9609,679,5,
217.288,5.97839,8.25806,2.268,10.9609,679,5,
217.288,5.979,8.25501,2.268,10.9609,679,5,
217.288,5.97778,8.25653,2.268,10.9609,679,5,
217.288,5.97839,8.25501,2.268,10.9609,679,5,
217.288,5.9787,8.25806,2.268,10.9609,679,5,
217.288,5.9787,8.25653,2.268,10.9609,679,5,
217.288,5.979,8.25653,2.268,10.9609,679,5,
217.288,5.97839,8.25348,2.268,10.9609,679,5,
217.288,5.97809,8.25653,2.268,10.9609,679,5,
217.288,5.9787,8.25501,2.268,10.9609,679,5,
217.288,5.979,8.25806,2.268,10.9609,679,5,
217.288,5.97839,8.25653,2.268,10.9609,679,5,
217.288,5.979,8.27026,2.268,10.9609,679,5,
217.288,5.9729,8.26721,2.268,10.9609,679,5,
217.288,5.97321,8.26721,2.268,10.9609,679,5,
217.288,5.97382,8.26721,2.268,10.9609,679,5,
217.288,5.97382,8.27026,2.268,10.9609,679,5,
217.288,5.97351,8.26721,2.268,10.9609,679,5,
217.288,5.97351,8.26874,2.268,10.9609,679,5,
217.288,5.97412,8.26569,2.268,10.9609,679,5,
217.288,5.97412,8.27179,2.268,10.9609,679,5,
217.288,5.97443,8.26721,2.268,10.9609,679,5,
217.288,5.97321,8.26721,2.268,10.9609,679,5,
217.288,5.97382,8.26721,2.268,10.9609,679,5,
217.288,5.97321,8.26874,2.268,10.9609,679,5,
217.288,5.97351,8.26874,2.268,10.9609,679,5,
217.288,5.97412,8.27789,2.268,10.9609,679,5,
217.288,5.97321,8.28095,2.268,10.9609,679,5,
217.288,5.97412,8.28095,2.268,10.9609,679,5,
217.289,5.96863,8.28095,2.268,10.9609,679,5,
217.289,5.96832,8.27942,2.268,10.9609,679,5,
217.289,5.96832,8.27942,2.268,10.9609,679,5,
217.289,5.96802,8.28247,2.268,10.9609,679,5,
217.289,5.96832,8.27789,2.268,10.9609,679,5,
217.289,5.96863,8.28247,2.268,10.9609,679,5,
217.289,5.96863,8.28247,2.268,10.9609,679,5,
217.289,5.96802,8.27637,2.268,10.9609,679,5,
217.289,5.96924,8.28095,2.268,10.9609,679,5,
217.289,5.96924,8.27789,2.268,10.9609,679,5,
217.289,5.96954,8.28247,2.268,10.9609,679,5,
217.289,5.96893,8.27789,2.268,10.9609,679,5,
217.289,5.96832,8.28095,2.268,10.9609,679,5,
217.289,5.96863,8.2901,2.268,10.9609,679,5,
217.289,5.96832,8.29315,2.268,10.9609,679,5,
217.289,5.96924,8.29163,2.268,10.9609,679,5,
217.289,5.96802,8.2901,2.268,10.9609,679,5,
217.289,5.96863,8.29163,2.268,10.9609,679,5,
217.289,5.96375,8.29315,2.268,10.9609,679,5,
217.289,5.96313,8.29163,2.268,10.9609,679,5,
217.289,5.96436,8.29315,2.268,10.9609,679,5,
217.289,5.96375,8.2901,2.268,10.9609,679,5,
217.289,5.96344,8.29468,2.268,10.9609,679,5,
217.289,5.96436,8.29163,2.268,10.9609,679,5,
217.289,5.96405,8.29163,2.268,10.9609,679,5,
217.289,5.96405,8.2901,2.268,10.9609,679,5,
217.289,5.96375,8.29163,2.268,10.9609,679,5,
217.289,5.96405,8.29163,2.268,10.9609,679,5,
217.289,5.96313,8.29315,2.268,10.9609,679,5,
217.29,5.96375,8.2962,2.268,10.9609,679,5,
217.29,5.96313,8.29468,2.268,10.9609,679,5,
217.29,5.96375,8.30689,2.268,10.9609,679,5,
217.29,5.96375,8.30231,2.268,10.9609,679,5,
217.29,5.96405,8.30383,2.268,10.9609,679,5,
217.29,5.96283,8.30689,2.268,10.9609,679,5,
217.29,5.96313,8.30231,2.268,10.9609,679,5,
217.29,5.96344,8.30536,2.268,10.9609,679,5,
217.29,5.96344,8.30689,2.268,10.9609,679,5,
217.29,5.96375,8.29926,2.268,10.9609,679,5,
217.29,5.96375,8.30231,2.268,10.9609,679,5,
217.29,5.96405,8.30383,2.268,10.9609,679,5,
217.29,5.96344,8.30383,2.268,10.9609,679,5,
217.29,5.95917,8.30689,2.268,10.9609,679,5,
217.29,5.95795,8.30841,2.268,10.9609,679,5,
217.29,5.95886,8.30689,2.268,10.9609,679,5,
217.29,5.95856,8.30383,2.268,10.9609,679,5,
217.29,5.95917,8.30231,2.268,10.9609,679,5,
217.29,5.95856,8.30689,2.268,10.9609,679,5,
217.29,5.95886,8.30536,2.268,10.9609,679,5,
217.29,5.95825,8.30383,2.268,10.9609,679,5,
217.29,5.95886,8.31299,2.268,10.9609,679,5,
217.29,5.95856,8.31604,2.268,10.9609,679,5,
217.29,5.95886,8.31604,2.268,10.9609,679,5,
217.29,5.95856,8.31909,2.268,10.9609,679,5,
217.29,5.95856,8.31757,2.268,10.9609,679,5,
217.29,5.95886,8.31452,2.268,10.9609,679,5,
217.29,5.95917,8.31604,2.268,10.9609,679,5,
217.29,5.95825,8.31757,2.268,10.9609,679,5,
217.29,5.95825,8.31909,2.268,10.9609,679,5,
217.291,5.95917,8.31604,2.268,10.9609,679,5,
217.291,5.95917,8.31604,2.268,10.9609,679,5,
217.291,5.95886,8.31757,2.268,10.9609,679,5,
217.291,5.95978,8.31909,2.268,10.9609,679,5,
217.291,5.95978,8.31757,2.268,10.9609,679,5,
217.291,5.95886,8.31757,2.268,10.9609,679,5,
217.291,5.95947,8.31452,2.268,10.9609,679,5,
217.291,5.95856,8.31757,2.268,10.9609,679,5,
217.291,5.95886,8.31757,2.268,10.9609,679,5,
217.291,5.95856,8.31757,2.268,10.9609,679,5,
217.291,5.95856,8.31452,2.268,10.9609,679,5,
217.291,5.95856,8.31452,2.268,10.9609,679,5,
217.291,5.95886,8.32062,2.268,10.9609,679,5,
217.291,5.95886,8.32672,2.268,10.9609,679,5,
217.291,5.95917,8.3252,2.268,10.9609,679,5,
217.291,5.95947,8.32825,2.268,10.9609,679,5,
217.291,5.95917,8.32977,2.268,10.9609,679,5,
217.291,5.95886,8.32977,2.268,10.9609,679,5,
217.291,5.95886,8.32825,2.268,10.9609,679,5,
217.291,5.96008,8.3313,2.268,10.9609,679,5,
217.291,5.96344,8.32977,2.268,10.9609,679,5,
217.291,5.96375,8.32977,2.268,10.9609,679,5,
217.291,5.96405,8.32672,2.268,10.9609,679,5,
217.291,5.96375,8.32672,2.268,10.9609,679,5,
217.291,5.96375,8.32825,2.268,10.9609,679,5,
217.291,5.96405,8.32825,2.268,10.9609,679,5,
217.291,5.96405,8.32977,2.268,10.9609,679,5,
217.291,5.96405,8.32977,2.268,10.9609,679,5,
217.291,5.96466,8.32672,2.268,10.9609,679,5,
217.291,5.96375,8.3313,2.268,10.9609,679,5,
217.292,5.96313,8.32977,2.268,10.9609,679,5,
217.292,5.96405,8.32825,2.268,10.9609,679,5,
217.292,5.96405,8.32825,2.268,10.9609,679,5,
217.292,5.96375,8.32825,2.268,10.9609,679,5,
217.292,5.96375,8.32825,2.268,10.9609,679,5,
217.292,5.96344,8.32672,2.268,10.9609,679,5,
217.292,5.96405,8.33435,2.268,10.9609,679,5,
217.292,5.96344,8.34046,2.268,10.9609,679,5,
217.292,5.96405,8.34351,2.268,10.9609,679,5,
217.292,5.96863,8.34046,2.268,10.9609,679,5,
217.292,5.96863,8.3374,2.268,10.9609,679,5,
217.292,5.96924,8.34503,2.268,10.9609,679,5,
217.292,5.96924,8.34198,2.268,10.9609,679,5,
217.292,5.96863,8.34198,2.268,10.9609,679,5,
217.292,5.96802,8.33893,2.268,10.9609,679,5,
217.292,5.96893,8.34046,2.268,10.9609,679,5,
217.292,5.96863,8.34046,2.268,10.9609,679,5,
217.292,5.96863,8.33893,2.268,10.9609,679,5,
217.292,5.96863,8.34046,2.268,10.9609,679,5,
217.292,5.96954,8.34198,2.268,10.9609,679,5,
217.292,5.96863,8.34046,2.268,10.9609,679,5,
217.292,5.9729,8.34351,2.268,10.9609,679,5,
217.292,5.97412,8.34046,2.268,10.9609,679,5,
217.292,5.97351,8.34046,2.268,10.9609,679,5,
217.292,5.97351,8.34351,2.268,10.9609,679,5,
217.292,5.97351,8.34198,2.268,10.9609,679,5,
217.292,5.97351,8.34503,2.268,10.9609,679,5,
217.292,5.97382,8.34198,2.268,10.9609,679,5,
217.292,5.97412,8.34198,2.268,10.9609,679,5,
217.292,5.97351,8.34351,2.268,10.9609,679,5,
217.292,5.97351,8.34046,2.268,10.9609,679,5,
217.293,5.97748,8.34046,2.268,10.9609,679,5,
217.293,5.9787,8.34503,2.268,10.9609,679,5,
217.293,5.97778,8.35571,2.268,10.9609,679,5,
217.293,5.9787,8.35419,2.268,10.9609,679,5,
217.293,5.97809,8.35571,2.268,10.9609,679,5,
217.293,5.9787,8.35419,2.268,10.9609,679,5,
217.293,5.9787,8.35419,2.268,10.9609,679,5,
217.293,5.97931,8.35419,2.268,10.9609,679,5,
217.293,5.97809,8.35419,2.268,10.9609,679,5,
217.293,5.98267,8.35571,2.268,10.9609,679,5,
217.293,5.98297,8.35266,2.268,10.9609,679,5,
217.293,5.98328,8.35266,2.268,10.9609,679,5,
217.293,5.98267,8.35266,2.268,10.9609,679,5,
217.293,5.98419,8.35114,2.268,10.9609,679,5,
217.293,5.98358,8.35419,2.268,10.9609,679,5,
217.293,5.98328,8.35266,2.268,10.9609,679,5,
217.293,5.98389,8.35571,2.268,10.9609,679,5,
217.293,5.98724,8.35266,2.268,10.9609,679,5,
217.293,5.98877,8.35571,2.268,10.9609,679,5,
217.293,5.98877,8.35419,2.268,10.9609,679,5,
217.293,5.98877,8.35724,2.268,10.9609,679,5,
217.293,5.98846,8.35266,2.268,10.9609,679,5,
217.293,5.98846,8.35266,2.268,10.9609,679,5,
217.293,5.98877,8.35724,2.268,10.9609,679,5,
217.293,5.9906,8.35419,2.268,10.9609,679,5,
217.293,5.99335,8.35419,2.268,10.9609,679,5,
217.293,5.99396,8.35419,2.268,10.9609,679,5,
217.293,5.99396,8.35419,2.268,10.9609,679,5,
217.293,5.99365,8.35419,2.268,10.9609,679,5,
217.293,5.99304,8.35419,2.268,10.9609,679,5,
217.294,5.99304,8.36182,2.268,10.9609,679,5,
217.294,5.99731,8.36487,2.268,10.9609,679,5,
217.294,5.99884,8.36639,2.268,10.9609,679,5,
217.294,5.99792,8.36639,2.268,10.9609,679,5,
217.294,5.99854,8.36487,2.268,10.9609,679,5,
217.294,5.99854,8.36639,2.268,10.9609,679,5,
217.294,5.99854,8.36334,2.268,10.9609,679,5,
217.294,6.00037,8.36334,2.268,10.9609,679,5,
217.294,6.00311,8.36182,2.268,10.9609,679,5,
217.294,6.00311,8.36487,2.268,10.9609,679,5,
217.294,6.00372,8.36334,2.268,10.9609,679,5,
217.294,6.00372,8.36792,2.268,10.9609,679,5,
217.294,6.00342,8.36487,2.268,10.9609,679,5,
217.294,6.00525,8.36639,2.268,10.9609,679,5,
217.294,6.0083,8.36182,2.268,10.9609,679,5,
217.294,6.00769,8.36639,2.268,10.9609,679,5,
217.294,6.0083,8.36487,2.268,10.9609,679,5,
217.294,6.0083,8.36334,2.268,10.9609,679,5,
217.294,6.00708,8.36639,2.268,10.9609,679,5,
217.294,6.01196,8.36487,2.268,10.9609,679,5,
217.294,6.01227,8.36945,2.268,10.9609,679,5,
217.294,6.01257,8.36487,2.268,10.9609,679,5,
217.294,6.01349,8.36639,2.268,10.9609,679,5,
217.294,6.01349,8.36639,2.268,10.9609,679,5,
217.294,6.01776,8.36639,2.268,10.9609,679,5,
217.294,6.01837,8.36487,2.268,10.9609,679,5,
217.294,6.01776,8.36334,2.268,10.9609,679,5,
217.294,6.01837,8.36334,2.268,10.9609,679,5,
217.294,6.01807,8.36487,2.268,10.9609,679,5,
217.294,6.02325,8.36639,2.268,10.9609,679,5,
217.295,6.02295,8.36792,2.268,10.9609,679,5,
217.295,6.02234,8.36792,2.268,10.9609,679,5,
217.295,6.02295,8.36639,2.268,10.9609,679,5,
217.295,6.02295,8.36639,2.268,10.9609,679,5,
217.295,6.02753,8.36792,2.268,10.9609,679,5,
217.295,6.02814,8.38013,2.268,10.9609,679,5,
217.295,6.02753,8.37708,2.268,10.9609,679,5,
217.295,6.02783,8.37708,2.268,10.9609,679,5,
217.295,6.03119,8.38013,2.268,10.9609,679,5,
217.295,6.03271,8.38013,2.268,10.9609,679,5,
217.295,6.03302,8.37402,2.268,10.9609,679,5,
217.295,6.03302,8.37708,2.268,10.9609,679,5,
217.295,6.03394,8.3725,2.268,10.9609,679,5,
217.295,6.03729,8.3786,2.268,10.9609,679,5,
217.295,6.03668,8.37708,2.268,10.9609,679,5,
217.295,6.0376,8.37708,2.268,10.9609,679,5,
217.295,6.03729,8.37708,2.268,10.9609,679,5,
217.295,6.04126,8.37555,2.268,10.9609,679,5,
217.295,6.04187,8.37708,2.268,10.9609,679,5,
217.295,6.04248,8.37708,2.268,10.9609,679,5,
217.295,6.04218,8.3786,2.268,10.9609,679,5,
217.295,6.04706,8.3786,2.268,10.9609,679,5,
217.295,6.04736,8.3786,2.268,10.9609,679,5,
217.295,6.04736,8.37708,2.268,10.9609,679,5,
217.295,6.04767,8.38013,2.268,10.9609,679,5,
217.295,6.05194,8.37708,2.268,10.9609,679,5,
217.295,6.05194,8.3786,2.268,10.9609,679,5,
217.295,6.05194,8.38013,2.268,10.9609,679,5,
217.295,6.05286,8.37708,2.268,10.9609,679,5,
217.296,6.05713,8.37555,2.268,10.9609,679,5,
217.296,6.05652,8.38013,2.268,10.9609,679,5,
217.296,6.05682,8.38165,2.268,10.9609,679,5,
217.296,6.0614,8.37708,2.268,10.9609,679,5,
217.296,6.06201,8.38013,2.268,10.9609,679,5,
217.296,6.06201,8.3786,2.268,10.9609,679,5,
217.296,6.06201,8.3786,2.268,10.9609,679,5,
217.296,6.06659,8.37708,2.268,10.9609,679,5,
217.296,6.06659,8.37708,2.268,10.9609,679,5,
217.296,6.0672,8.37555,2.268,10.9609,679,5,
217.296,6.07086,8.3786,2.268,10.9609,679,5,
217.296,6.07147,8.38013,2.268,10.9609,679,5,
217.296,6.07208,8.37708,2.268,10.9609,679,5,
217.296,6.07208,8.37708,2.268,10.9609,679,5,
217.296,6.07605,8.38013,2.268,10.9609,679,5,
217.296,6.07697,8.39081,2.268,10.9609,679,5,
217.296,6.07605,8.39081,2.268,10.9609,679,5,
217.296,6.08093,8.39233,2.268,10.9609,679,5,
217.296,6.08185,8.38928,2.268,10.9609,679,5,
217.296,6.08093,8.39386,2.268,10.9609,679,5,
217.296,6.08368,8.39081,2.268,10.9609,679,5,
217.296,6.08582,8.39081,2.268,10.9609,679,5,
217.296,6.08612,8.38623,2.268,10.9609,679,5,
217.296,6.08612,8.39081,2.268,10.9609,679,5,
217.296,6.09131,8.38776,2.268,10.9609,679,5,
217.296,6.09192,8.39386,2.268,10.9609,679,5,
217.296,6.09161,8.38928,2.268,10.9609,679,5,
217.296,6.09528,8.39233,2.268,10.9609,679,5,
217.296,6.09619,8.39081,2.268,10.9609,679,5,
217.296,6.09558,8.39081,2.268,10.9609,679,5,
217.297,6.09985,8.39081,2.268,10.9609,679,5,
217.297,6.10077,8.38928,2.268,10.9609,679,5,
217.297,6.10107,8.38928,2.268,10.9609,679,5,
217.297,6.1026,8.39081,2.268,10.9609,679,5,
217.297,6.10565,8.39081,2.268,10.9609,679,5,
217.297,6.10565,8.39386,2.268,10.9609,679,5,
217.297,6.10565,8.38776,2.268,10.9609,679,5,
217.297,6.11084,8.38928,2.268,10.9609,679,5,
217.297,6.11115,8.39081,2.268,10.9609,679,5,
217.297,6.11084,8.39539,2.268,10.9609,679,5,
217.297,6.11511,8.38776,2.268,10.9609,679,5,
217.297,6.11572,8.39081,2.268,10.9609,679,5,
217.297,6.11542,8.39233,2.268,10.9609,679,5,
217.297,6.12,8.39081,2.268,10.9609,679,5,
217.297,6.12091,8.39386,2.268,10.9609,679,5,
217.297,6.12091,8.38928,2.268,10.9609,679,5,
217.297,6.12488,8.38928,2.268,10.9609,679,5,
217.297,6.12488,8.38776,2.268,10.9609,679,5,
217.297,6.12518,8.38928,2.268,10.9609,679,5,
217.297,6.13037,8.38928,2.268,10.9609,679,5,
217.297,6.13037,8.38928,2.268,10.9609,679,5,
217.297,6.13068,8.38776,2.268,10.9609,679,5,
217.297,6.13403,8.38928,2.268,10.9609,679,5,
217.297,6.13464,8.39081,2.268,10.9609,679,5,
217.297,6.13495,8.38928,2.268,10.9609,679,5,
217.297,6.13495,8.39081,2.268,10.9609,679,5,
217.297,6.14044,8.39081,2.268,10.9609,679,5,
217.297,6.13983,8.39233,2.268,10.9609,679,5,
217.297,6.14014,8.38928,2.268,10.9609,679,5,
217.297,6.14502,8.38928,2.268,10.9609,679,5,
217.298,6.14502,8.39081,2.268,10.9609,679,5,
217.298,6.14502,8.39233,2.268,10.9609,679,5,
217.298,6.15021,8.39081,2.268,10.9609,679,5,
217.298,6.1496,8.40149,2.268,10.9609,679,5,
217.298,6.1499,8.40302,2.268,10.9609,679,5,
217.298,6.15448,8.40302,2.268,10.9609,679,5,
217.298,6.15479,8.40454,2.268,10.9609,679,5,
217.298,6.15479,8.40149,2.268,10.9609,679,5,
217.298,6.15997,8.40149,2.268,10.9609,679,5,
217.298,6.15967,8.40149,2.268,10.9609,679,5,
217.298,6.15997,8.39844,2.268,10.9609,679,5,
217.298,6.16425,8.40302,2.268,10.9609,679,5,
217.298,6.16486,8.40149,2.268,10.9609,679,5,
217.298,6.16516,8.40302,2.268,10.9609,679,5,
217.298,6.16913,8.40454,2.268,10.9609,679,5,
217.298,6.16913,8.39996,2.268,10.9609,679,5,
217.298,6.16882,8.40149,2.268,10.9609,679,5,
217.298,6.17371,8.39996,2.268,10.9609,679,5,
217.298,6.17432,8.40454,2.268,10.9609,679,5,
217.298,6.17493,8.40149,2.268,10.9609,679,5,
217.298,6.17828,8.40454,2.268,10.9609,679,5,
217.298,6.17981,8.40149,2.268,10.9609,679,5,
217.298,6.17981,8.40149,2.268,10.9609,679,5,
217.298,6.18347,8.40149,2.268,10.9609,679,5,
217.298,6.18408,8.39996,2.268,10.9609,679,5,
217.298,6.18408,8.40302,2.268,10.9609,679,5,
217.298,6.18561,8.40302,2.268,10.9609,679,5,
217.298,6.18866,8.40302,2.268,10.9609,679,5,
217.298,6.18927,8.40607,2.268,10.9609,679,5,
217.298,6.1908,8.39996,2.268,10.9609,679,5,
217.298,6.19446,8.40302,2.268,10.9609,679,5,
217.299,6.19385,8.40149,2.268,10.9609,679,5,
217.299,6.19446,8.39996,2.268,10.9609,679,5,
217.299,6.19843,8.40302,2.268,10.9609,679,5,
217.299,6.19904,8.40302,2.268,10.9609,679,5,
217.299,6.19934,8.39844,2.268,10.9609,679,5,
217.299,6.20361,8.40302,2.268,10.9609,679,5,
217.299,6.20422,8.40149,2.268,10.9609,679,5,
217.299,6.20422,8.39996,2.268,10.9609,679,5,
217.299,6.2088,8.40302,2.268,10.9609,679,5,
217.299,6.20911,8.40149,2.268,10.9609,679,5,
217.299,6.20972,8.40302,2.268,10.9609,679,5,
217.299,6.21216,8.40302,2.268,10.9609,679,5,
217.299,6.21399,8.40454,2.268,10.9609,679,5,
217.299,6.21399,8.40149,2.268,10.9609,679,5,
217.299,6.21826,8.39844,2.268,10.9609,679,5,
217.299,6.21887,8.40149,2.268,10.9609,679,5,
217.299,6.21887,8.40302,2.268,10.9609,679,5,
217.299,6.2207,8.39996,2.268,10.9609,679,5,
217.299,6.22345,8.40149,2.268,10.9609,679,5,
217.299,6.22345,8.40149,2.268,10.9609,679,5,
217.299,6.22375,8.40149,2.268,10.9609,679,5,
217.299,6.22833,8.39996,2.268,10.9609,679,5,
217.299,6.22833,8.39844,2.268,10.9609,679,5,
217.299,6.22833,8.40302,2.268,10.9609,679,5,
217.299,6.23199,8.39996,2.268,10.9609,679,5,
217.299,6.23322,8.40302,2.268,10.9609,679,5,
217.299,6.23322,8.41827,2.268,10.9609,679,5,
217.299,6.23505,8.41522,2.268,10.9609,679,5,
217.299,6.23779,8.4137,2.268,10.9609,679,5,
217.299,6.2381,8.41217,2.268,10.9609,679,5,
217.3,6.23779,8.41675,2.268,10.9609,679,5,
217.3,6.24237,8.41827,2.268,10.9609,679,5,
217.3,6.24268,8.41675,2.268,10.9609,679,5,
217.3,6.24268,8.41675,2.268,10.9609,679,5,
217.3,6.24512,8.41522,2.268,10.9609,679,5,
217.3,6.24756,8.41522,2.268,10.9609,679,5,
217.3,6.24817,8.4137,2.268,10.9609,679,5,
217.3,6.24756,8.4137,2.268,10.9609,679,5,
217.3,6.25244,8.41217,2.268,10.9609,679,5,
217.3,6.25275,8.41522,2.268,10.9609,679,5,
217.3,6.25244,8.4137,2.268,10.9609,679,5,
217.3,6.25702,8.4137,2.268,10.9609,679,5,
217.3,6.25824,8.41217,2.268,10.9609,679,5,
217.3,6.25763,8.4137,2.268,10.9609,679,5,
217.3,6.25763,8.4137,2.268,10.9609,679,5,
217.3,6.26251,8.41217,2.268,10.9609,679,5,
217.3,6.26343,8.4137,2.268,10.9609,679,5,
217.3,6.26221,8.41522,2.268,10.9609,679,5,
217.3,6.26465,8.4137,2.268,10.9609,679,5,
217.3,6.2674,8.41217,2.268,10.9609,679,5,
217.3,6.26709,8.41522,2.268,10.9609,679,5,
217.3,6.2677,8.41522,2.268,10.9609,679,5,
217.3,6.27167,8.41675,2.268,10.9609,679,5,
217.3,6.27258,8.41675,2.268,10.9609,679,5,
217.3,6.27258,8.4137,2.268,10.9609,679,5,
217.3,6.27289,8.41217,2.268,10.9609,679,5,
217.3,6.27716,8.41675,2.268,10.9609,679,5,
217.3,6.27716,8.41217,2.268,10.9609,679,5,
217.3,6.27747,8.41522,2.268,10.9609,679,5,
217.3,6.27838,8.41217,2.268,10.9609,679,5,
217.301,6.28235,8.41675,2.268,10.9609,679,5,
217.301,6.28265,8.41522,2.268,10.9609,679,5,
217.301,6.28296,8.41675,2.268,10.9609,679,5,
217.301,6.28448,8.41217,2.268,10.9609,679,5,
217.301,6.28754,8.41675,2.268,10.9609,679,5,
217.301,6.28632,8.4137,2.268,10.9609,679,5,
217.301,6.28662,8.41522,2.268,10.9609,679,5,
217.301,6.2915,8.41217,2.268,10.9609,679,5,
217.301,6.29181,8.41675,2.268,10.9609,679,5,
217.301,6.2915,8.41522,2.268,10.9609,679,5,
217.301,6.29181,8.41675,2.268,10.9609,679,5,
217.301,6.29578,8.4137,2.268,10.9609,679,5,
217.301,6.29608,8.41675,2.268,10.9609,679,5,
217.301,6.29669,8.41522,2.268,10.9609,679,5,
217.301,6.297,8.41217,2.268,10.9609,679,5,
217.301,6.29791,8.41217,2.268,10.9609,679,5,
217.301,6.30157,8.41522,2.268,10.9609,679,5,
217.301,6.30219,8.41522,2.268,10.9609,679,5,
217.301,6.30249,8.4137,2.268,10.9609,679,5,
217.301,6.30432,8.41675,2.268,10.9609,679,5,
217.301,6.30676,8.41827,2.268,10.9609,679,5,
217.301,6.30646,8.42743,2.268,10.9609,679,5,
217.301,6.30615,8.42743,2.268,10.9609,679,5,
217.301,6.30615,8.42743,2.268,10.9609,679,5,
217.301,6.31165,8.4259,2.268,10.9609,679,5,
217.301,6.31104,8.43048,2.268,10.9609,679,5,
217.301,6.31134,8.42743,2.268,10.9609,679,5,
217.301,6.31165,8.42743,2.268,10.9609,679,5,
217.301,6.31592,8.42743,2.268,10.9609,679,5,
217.302,6.31592,8.42743,2.268,10.9609,679,5,
217.302,6.31683,8.42743,2.268,10.9609,679,5,
217.302,6.31622,8.4259,2.268,10.9609,679,5,
217.302,6.31653,8.4259,2.268,19.2802,679,5,
217.302,6.32172,8.4259,2.268,19.2802,679,5,
217.302,6.32141,8.42438,2.268,19.2802,679,5,
217.302,6.3208,8.4259,2.268,19.2802,679,5,
217.302,6.32202,8.42896,2.268,19.2802,679,5,
217.302,6.32385,8.42896,2.268,19.2802,679,5,
217.302,6.3269,8.42743,2.268,19.2802,679,5,
217.302,6.3269,8.42896,2.268,19.2802,679,5,
217.302,6.32599,8.4259,2.268,19.2802,679,5,
217.302,6.32599,8.42438,2.268,19.2802,679,5,
217.302,6.33026,8.42896,2.268,19.2802,679,5,
217.302,6.33179,8.42743,2.268,19.2802,679,5,
217.302,6.33118,8.4259,2.268,19.2802,679,5,
217.302,6.33087,8.4259,2.268,19.2802,679,5,
217.302,6.33087,8.4259,2.268,19.2802,679,5,
217.302,6.33514,8.4259,2.268,19.2802,679,5,
217.302,6.33606,8.4259,2.268,19.2802,679,5,
217.302,6.33636,8.4259,2.268,19.2802,679,5,
217.302,6.33575,8.42743,2.268,19.2802,679,5,
217.302,6.33667,8.42438,2.268,19.2802,679,5,
217.302,6.3385,8.4259,2.268,19.2802,679,5,
217.302,6.34125,8.42438,2.268,19.2802,679,5,
217.302,6.34155,8.4259,2.268,19.2802,679,5,
217.302,6.34094,8.42743,2.268,19.2802,679,5,
217.302,6.34125,8.42438,2.268,19.2802,679,5,
217.302,6.34125,8.42896,2.268,19.2802,679,5,
217.302,6.34613,8.43048,2.268,19.2802,679,5,
217.303,6.34644,8.42438,2.268,19.2802,679,5,
217.303,6.34552,8.43048,2.268,19.2802,679,5,
217.303,6.34552,8.4259,2.268,19.2802,679,5,
217.303,6.34552,8.42896,2.268,19.2802,679,5,
217.303,6.3501,8.42743,2.268,19.2802,679,5,
217.303,6.35071,8.4259,2.268,19.2802,679,5,
217.303,6.3504,8.42896,2.268,19.2802,679,5,
217.303,6.35071,8.4259,2.268,19.2802,679,5,
217.303,6.35071,8.42285,2.268,19.2802,679,5,
217.303,6.35132,8.4259,2.268,19.2802,679,5,
217.303,6.35498,8.4259,2.268,19.2802,679,5,
217.303,6.3559,8.42896,2.268,19.2802,679,5,
217.303,6.35559,8.42285,2.268,19.2802,679,5,
217.303,6.35529,8.42896,2.268,19.2802,679,5,
217.303,6.35529,8.4259,2.268,19.2802,679,5,
217.303,6.35529,8.4259,2.268,19.2802,679,5,
217.303,6.35986,8.42438,2.268,19.2802,679,5,
217.303,6.36017,8.4259,2.268,19.2802,679,5,
217.303,6.36047,8.44116,2.268,19.2802,679,5,
217.303,6.36108,8.44116,2.268,19.2802,679,5,
217.303,6.36108,8.43811,2.268,19.2802,679,5,
217.303,6.36078,8.43811,2.268,19.2802,679,5,
217.303,6.36292,8.43964,2.268,19.2802,679,5,
217.303,6.36566,8.43811,2.268,19.2802,679,5,
217.303,6.36505,8.43964,2.268,19.2802,679,5,
217.303,6.36597,8.44116,2.268,19.2802,679,5,
217.303,6.36597,8.43964,2.268,19.2802,679,5,
217.303,6.36566,8.43811,2.268,19.2802,679,5,
217.303,6.36505,8.43811,2.268,19.2802,679,5,
217.303,6.36749,8.44116,2.268,19.2802,679,5,
217.304,6.37024,8.43811,2.268,19.2802,679,5,
217.304,6.37054,8.44116,2.268,19.2802,679,5,
217.304,6.37024,8.43811,2.268,19.2802,679,5,
217.304,6.37054,8.43659,2.268,19.2802,679,5,
217.304,6.37024,8.43964,2.268,19.2802,679,5,
217.304,6.37054,8.44269,2.268,19.2802,679,5,
217.304,6.37085,8.43811,2.268,19.2802,679,5,
217.304,6.37604,8.43659,2.268,19.2802,679,5,
217.304,6.37573,8.43811,2.268,19.2802,679,5,
217.304,6.37543,8.43964,2.268,19.2802,679,5,
217.304,6.37573,8.43964,2.268,19.2802,679,5,
217.304,6.37573,8.43964,2.268,19.2802,679,5,
217.304,6.37604,8.44116,2.268,19.2802,679,5,
217.304,6.37482,8.43964,2.268,19.2802,679,5,
217.304,6.37726,8.44116,2.268,19.2802,679,5,
217.304,6.38062,8.44269,2.268,19.2802,679,5,
217.304,6.38062,8.44116,2.268,19.2802,679,5,
217.304,6.38031,8.44116,2.268,19.2802,679,5,
217.304,6.38,8.43811,2.268,19.2802,679,5,
217.304,6.38062,8.44269,2.268,19.2802,679,5,
217.304,6.38,8.44116,2.268,19.2802,679,5,
217.304,6.38031,8.44116,2.268,19.2802,679,5,
217.304,6.38031,8.43811,2.268,19.2802,679,5,
217.304,6.38428,8.43811,2.268,19.2802,679,5,
217.304,6.38611,8.43964,2.268,19.2802,679,5,
217.304,6.3858,8.44116,2.268,19.2802,679,5,
217.304,6.38489,8.43964,2.268,19.2802,679,5,
217.304,6.38489,8.43811,2.268,19.2802,679,5,
217.304,6.3855,8.43964,2.268,19.2802,679,5,
217.304,6.3855,8.43964,2.268,19.2802,679,5,
217.304,6.38611,8.43811,2.268,19.2802,679,5,
217.305,6.38489,8.43659,2.268,19.2802,679,5,
217.305,6.38519,8.44116,2.268,19.2802,679,5,
217.305,6.38977,8.44116,2.268,19.2802,679,5,
217.305,6.39008,8.43659,2.268,19.2802,679,5,
217.305,6.39008,8.43811,2.268,19.2802,679,5,
217.305,6.39038,8.43811,2.268,19.2802,679,5,
217.305,6.39008,8.43506,2.268,19.2802,679,5,
217.305,6.38977,8.43659,2.268,19.2802,679,5,
217.305,6.39008,8.43659,2.268,19.2802,679,5,
217.305,6.38977,8.43811,2.268,19.2802,679,5,
217.305,6.38977,8.43964,2.268,19.2802,679,5,
217.305,6.39038,8.43811,2.268,19.2802,679,5,
217.305,6.39008,8.43964,2.268,19.2802,679,5,
217.305,6.39191,8.43811,2.268,19.2802,679,5,
217.305,6.39465,8.43811,2.268,19.2802,679,5,
217.305,6.39435,8.44269,2.268,19.2802,679,5,
217.305,6.39465,8.43964,2.268,19.2802,679,5,
217.305,6.39465,8.44269,2.268,19.2802,679,5,
217.305,6.39465,8.43811,2.268,19.2802,679,5,
217.305,6.39526,8.44269,2.268,19.2802,679,5,
217.305,6.39465,8.44116,2.268,19.2802,679,5,
217.305,6.39496,8.44116,2.268,19.2802,679,5,
217.305,6.39465,8.43964,2.268,19.2802,679,5,
217.305,6.39496,8.43964,2.268,19.2802,679,5,
217.305,6.39496,8.44116,2.268,19.2802,679,5,
217.305,6.39465,8.44116,2.268,19.2802,679,5,
217.305,6.39435,8.43964,2.268,19.2802,679,5,
217.305,6.39465,8.43964,2.268,19.2802,679,5,
217.305,6.39893,8.43964,2.268,19.2802,679,5,
217.305,6.40015,8.43811,2.268,19.2802,679,5,
217.306,6.39984,8.44269,2.268,19.2802,679,5,
217.306,6.39923,8.44116,2.268,19.2802,679,5,
217.306,6.39984,8.43811,2.268,19.2802,679,5,
217.306,6.40045,8.43811,2.268,19.2802,679,5,
217.306,6.39984,8.43811,2.268,19.2802,679,5,
217.306,6.39984,8.43811,2.268,19.2802,679,5,
217.306,6.39984,8.43811,2.268,19.2802,679,5,
217.306,6.40015,8.43811,2.268,19.2802,679,5,
217.306,6.39984,8.43964,2.268,19.2802,679,5,
217.306,6.40045,8.44269,2.268,19.2802,679,5,
217.306,6.39954,8.43811,2.268,19.2802,679,5,
217.306,6.39923,8.43964,2.268,19.2802,679,5,
217.306,6.39984,8.43659,2.268,19.2802,679,5,
217.306,6.39984,8.43811,2.268,19.2802,679,5,
217.306,6.39984,8.43811,2.268,19.2802,679,5,
217.306,6.39923,8.43964,2.268,19.2802,679,5,
217.306,6.39954,8.43659,2.268,19.2802,679,5,
217.306,6.39954,8.43964,2.268,19.2802,679,5,
217.306,6.39893,8.43659,2.268,19.2802,679,5,
217.306,6.39984,8.43964,2.268,19.2802,679,5,
217.306,6.39984,8.44269,2.268,19.2802,679,5,
217.306,6.40015,8.44879,2.268,19.2802,679,5,
217.306,6.40137,8.45184,2.268,19.2802,679,5,
217.306,6.40472,8.45184,2.268,19.2802,679,5,
217.306,6.40472,8.44879,2.268,19.2802,679,5,
217.306,6.40472,8.45184,2.268,19.2802,679,5,
217.306,6.40442,8.45032,2.268,19.2802,679,5,
217.306,6.40442,8.45032,2.268,19.2802,679,5,
217.306,6.40472,8.45337,2.268,19.2802,679,5,
217.306,6.40442,8.45032,2.268,19.2802,679,5,
217.307,6.40503,8.4549,2.268,19.2802,679,5,
217.307,6.40533,8.45184,2.268,19.2802,679,5,
217.307,6.40411,8.44879,2.268,19.2802,679,5,
217.307,6.40472,8.45032,2.268,19.2802,679,5,
217.307,6.40442,8.44727,2.268,19.2802,679,5,
217.307,6.40472,8.45184,2.268,19.2802,679,5,
217.307,6.40503,8.45032,2.268,19.2802,679,5,
217.307,6.40442,8.44727,2.268,19.2802,679,5,
217.307,6.40472,8.45337,2.268,19.2802,679,5,
217.307,6.40503,8.44879,2.268,19.2802,679,5,
217.307,6.40442,8.45337,2.268,19.2802,679,5,
217.307,6.40472,8.45184,2.268,19.2802,679,5,
217.307,6.40533,8.45184,2.268,19.2802,679,5,
217.307,6.40442,8.45337,2.268,19.2802,679,5,
217.307,6.40472,8.45184,2.268,19.2802,679,5,
217.307,6.40503,8.44879,2.268,19.2802,679,5,
217.307,6.40503,8.44879,2.268,19.2802,679,5,
217.307,6.40381,8.45184,2.268,19.2802,679,5,
217.307,6.40503,8.45032,2.268,19.2802,679,5,
217.307,6.40472,8.45184,2.268,19.2802,679,5,
217.307,6.40503,8.45184,2.268,19.2802,679,5,
217.307,6.40472,8.45032,2.268,19.2802,679,5,
217.307,6.40472,8.45184,2.268,19.2802,679,5,
217.307,6.40503,8.45184,2.268,19.2802,679,5,
217.307,6.40503,8.45184,2.268,19.2802,679,5,
217.307,6.40442,8.45337,2.268,19.2802,679,5,
217.307,6.40503,8.45032,2.268,19.2802,679,5,
217.307,6.40442,8.45337,2.268,19.2802,679,5,
217.307,6.40442,8.45337,2.268,19.2802,679,5,
217.308,6.40381,8.45184,2.268,19.2802,679,5,
217.308,6.40411,8.45337,2.268,19.2802,679,5,
217.308,6.40381,8.45032,2.268,19.2802,679,5,
217.308,6.39954,8.45184,0.66,19.2802,679,5,
217.308,6.39984,8.45032,0.66,19.2802,679,5,
217.308,6.40015,8.45184,0.66,19.2802,679,5,
217.308,6.39984,8.45032,0.66,19.2802,679,5,
217.308,6.39923,8.45032,0.66,19.2802,679,5,
217.308,6.40015,8.45184,0.66,19.2802,679,5,
217.308,6.39984,8.45337,0.66,19.2802,679,5,
217.308,6.39923,8.45337,0.66,19.2802,679,5,
217.308,6.40015,8.45184,0.66,19.2802,679,5,
217.308,6.39923,8.45032,0.66,19.2802,679,5,
217.308,6.39923,8.45184,0.66,19.2802,679,5,
217.308,6.40015,8.45337,0.66,19.2802,679,5,
217.308,6.39893,8.45184,0.66,19.2802,679,5,
217.308,6.39984,8.45032,0.66,19.2802,679,5,
217.308,6.39893,8.45032,0.66,19.2802,679,5,
217.308,6.39893,8.45032,0.66,19.2802,679,5,
217.308,6.40015,8.45184,0.66,19.2802,679,5,
217.308,6.39954,8.45184,0.66,19.2802,679,5,
217.308,6.39954,8.44879,0.66,19.2802,679,5,
217.308,6.39984,8.44879,0.66,19.2802,679,5,
217.308,6.39923,8.45184,0.66,19.2802,679,5,
217.308,6.39984,8.45184,0.66,19.2802,679,5,
217.308,6.39984,8.45032,0.66,19.2802,679,5,
217.308,6.39923,8.45337,0.66,19.2802,679,5,
217.308,6.39923,8.45032,0.66,19.2802,679,5,
217.308,6.39954,8.45032,0.66,19.2802,679,5,
217.308,6.39984,8.45184,0.66,19.2802,679,5,
217.309,6.39923,8.44879,0.66,19.2802,679,5,
217.309,6.39465,8.45032,0.66,19.2802,679,5,
217.309,6.39465,8.45184,0.66,19.2802,679,5,
217.309,6.39465,8.45032,0.66,19.2802,679,5,
217.309,6.39526,8.45032,0.66,19.2802,679,5,
217.309,6.39435,8.44727,0.66,19.2802,679,5,
217.309,6.39557,8.45184,0.66,19.2802,679,5,
217.309,6.39465,8.44879,0.66,19.2802,679,5,
217.309,6.39526,8.45032,0.66,19.2802,679,5,
217.309,6.39526,8.45032,0.66,19.2802,679,5,
217.309,6.39465,8.45337,0.66,19.2802,679,5,
217.309,6.39435,8.45032,0.66,19.2802,679,5,
217.309,6.39526,8.45032,0.66,19.2802,679,5,
217.309,6.39465,8.45032,0.66,19.2802,679,5,
217.309,6.39557,8.45184,0.66,19.2802,679,5,
217.309,6.39496,8.45032,0.66,19.2802,679,5,
217.309,6.39557,8.45032,0.66,19.2802,679,5,
217.309,6.39496,8.45337,0.66,19.2802,679,5,
217.309,6.39465,8.44879,0.66,19.2802,679,5,
217.309,6.39496,8.45032,0.66,19.2802,679,5,
217.309,6.39496,8.44879,0.66,19.2802,679,5,
217.309,6.38977,8.45184,0.66,19.2802,679,5,
217.309,6.38885,8.44879,0.66,19.2802,679,5,
217.309,6.38977,8.45337,0.66,19.2802,679,5,
217.309,6.39038,8.45184,0.66,19.2802,679,5,
217.309,6.39038,8.4549,0.66,19.2802,679,5,
217.309,6.39008,8.45032,0.66,19.2802,679,5,
217.309,6.39038,8.44879,0.66,19.2802,679,5,
217.309,6.38947,8.44879,0.66,19.2802,679,5,
217.309,6.39038,8.45032,0.66,19.2802,679,5,
217.31,6.39069,8.44879,0.66,19.2802,679,5,
217.31,6.39008,8.44879,0.66,19.2802,679,5,
217.31,6.39099,8.44879,0.66,19.2802,679,5,
217.31,6.38977,8.45032,0.66,19.2802,679,5,
217.31,6.39069,8.45184,0.66,19.2802,679,5,
217.31,6.39008,8.45184,0.66,19.2802,679,5,
217.31,6.38977,8.4549,0.66,19.2802,679,5,
217.31,6.38611,8.45337,0.66,19.2802,679,5,
217.31,6.3858,8.44879,0.66,19.2802,679,5,
217.31,6.38519,8.45184,0.66,19.2802,679,5,
217.31,6.38489,8.45337,0.66,19.2802,679,5,
217.31,6.3858,8.45032,0.66,19.2802,679,5,
217.31,6.38519,8.44879,0.66,19.2802,679,5,
217.31,6.38489,8.45184,0.66,19.2802,679,5,
217.31,6.38428,8.45337,0.66,19.2802,679,5,
217.31,6.38519,8.4549,0.66,19.2802,679,5,
217.31,6.38458,8.45032,0.66,19.2802,679,5,
217.31,6.3855,8.44879,0.66,19.2802,679,5,
217.31,6.38489,8.44879,0.66,19.2802,679,5,
217.31,6.38519,8.45184,0.66,19.2802,679,5,
217.31,6.3858,8.45184,0.66,19.2802,679,5,
217.31,6.38519,8.45184,0.66,19.2802,679,5,
217.31,6.38,8.45032,0.66,19.2802,679,5,
217.31,6.38031,8.45032,0.66,19.2802,679,5,
217.31,6.38,8.45032,0.66,19.2802,679,5,
217.31,6.38,8.45184,0.66,19.2802,679,5,
217.31,6.38092,8.45032,0.66,19.2802,679,5,
217.31,6.38031,8.44727,0.66,19.2802,679,5,
217.31,6.3797,8.45184,0.66,19.2802,679,5,
217.31,6.38,8.45032,0.66,19.2802,679,5,
217.31,6.38031,8.45032,0.66,19.2802,679,5,
217.311,6.38031,8.45337,0.66,19.2802,679,5,
217.311,6.38,8.45032,0.66,19.2802,679,5,
217.311,6.38,8.45184,0.66,19.2802,679,5,
217.311,6.37787,8.44879,0.66,19.2802,679,5,
217.311,6.37573,8.45337,0.66,19.2802,679,5,
217.311,6.37512,8.44727,0.66,19.2802,679,5,
217.311,6.37512,8.45184,0.66,19.2802,679,5,
217.311,6.37451,8.45184,0.66,19.2802,679,5,
217.311,6.37512,8.45032,0.66,19.2802,679,5,
217.311,6.37482,8.45184,0.66,19.2802,679,5,
217.311,6.37482,8.45032,0.66,19.2802,679,5,
217.311,6.37543,8.45184,0.66,19.2802,679,5,
217.311,6.37573,8.45184,0.66,19.2802,679,5,
217.311,6.37512,8.45032,0.66,19.2802,679,5,
217.311,6.37604,8.45337,0.66,19.2802,679,5,
217.311,6.37146,8.45337,0.66,19.2802,679,5,
217.311,6.37085,8.45184,0.66,19.2802,679,5,
217.311,6.37054,8.45337,0.66,19.2802,679,5,
217.311,6.37024,8.45184,0.66,19.2802,679,5,
217.311,6.37024,8.43659,0.66,19.2802,679,5,
217.311,6.37085,8.44116,0.66,19.2802,679,5,
217.311,6.37054,8.43811,0.66,19.2802,679,5,
217.311,6.37115,8.43964,0.66,19.2802,679,5,
217.311,6.37054,8.43964,0.66,19.2802,679,5,
217.311,6.37085,8.44116,0.66,19.2802,679,5,
217.311,6.37024,8.44116,0.66,19.2802,679,5,
217.311,6.36536,8.44116,0.66,19.2802,679,5,
217.311,6.36597,8.43811,0.66,19.2802,679,5,
217.311,6.36505,8.43964,0.66,19.2802,679,5,
217.311,6.36566,8.43659,0.66,19.2802,679,5,
217.312,6.36536,8.43964,0.66,19.2802,679,5,
217.312,6.36566,8.44269,0.66,19.2802,679,5,
217.312,6.36505,8.43964,0.66,19.2802,679,5,
217.312,6.36597,8.43659,0.66,19.2802,679,5,
217.312,6.36566,8.43811,0.66,19.2802,679,5,
217.312,6.36536,8.43811,0.66,19.2802,679,5,
217.312,6.36017,8.44269,0.66,19.2802,679,5,
217.312,6.36047,8.43811,0.66,19.2802,679,5,
217.312,6.36108,8.44269,0.66,19.2802,679,5,
217.312,6.36108,8.43964,0.66,19.2802,679,5,
217.312,6.36047,8.43964,0.66,19.2802,679,5,
217.312,6.36017,8.43659,0.66,19.2802,679,5,
217.312,6.36108,8.43964,0.66,19.2802,679,5,
217.312,6.36139,8.43659,0.66,19.2802,679,5,
217.312,6.36108,8.44116,0.66,19.2802,679,5,
217.312,6.36078,8.43964,0.66,19.2802,679,5,
217.312,6.3562,8.43811,0.66,19.2802,679,5,
217.312,6.3562,8.43811,0.66,19.2802,679,5,
217.312,6.3559,8.44116,0.66,19.2802,679,5,
217.312,6.35529,8.44116,0.66,19.2802,679,5,
217.312,6.35651,8.43811,0.66,19.2802,679,5,
217.312,6.3559,8.43964,0.66,19.2802,679,5,
217.312,6.35559,8.44116,0.66,19.2802,679,5,
217.312,6.3562,8.43659,0.66,19.2802,679,5,
217.312,6.3562,8.44116,0.66,19.2802,679,5,
217.312,6.35071,8.43811,0.66,19.2802,679,5,
217.312,6.35132,8.43964,0.66,19.2802,679,5,
217.312,6.35132,8.43811,0.66,19.2802,679,5,
217.312,6.35132,8.43964,0.66,19.2802,679,5,
217.312,6.35101,8.43659,0.66,19.2802,679,5,
217.313,6.35101,8.44269,0.66,19.2802,679,5,
217.313,6.35071,8.44116,0.66,19.2802,679,5,
217.313,6.35101,8.43964,0.66,19.2802,679,5,
217.313,6.35071,8.43811,0.66,19.2802,679,5,
217.313,6.34674,8.44116,0.66,19.2802,679,5,
217.313,6.34613,8.43964,0.66,19.2802,679,5,
217.313,6.34552,8.43659,0.66,19.2802,679,5,
217.313,6.34613,8.44116,0.66,19.2802,679,5,
217.313,6.34552,8.44116,0.66,19.2802,679,5,
217.313,6.34613,8.44116,0.66,19.2802,679,5,
217.313,6.34644,8.43811,0.66,19.2802,679,5,
217.313,6.34613,8.43964,0.66,19.2802,679,5,
217.313,6.34308,8.44116,0.66,19.2802,679,5,
217.313,6.34125,8.43964,0.66,19.2802,679,5,
217.313,6.34094,8.43659,0.66,19.2802,679,5,
217.313,6.34064,8.43811,0.66,19.2802,679,5,
217.313,6.34125,8.43659,0.66,19.2802,679,5,
217.313,6.34094,8.43811,0.66,19.2802,679,5,
217.313,6.34094,8.44116,0.66,19.2802,679,5,
217.313,6.34125,8.43811,0.66,19.2802,679,5,
217.313,6.33881,8.44116,0.66,19.2802,679,5,
217.313,6.33636,8.43659,0.66,19.2802,679,5,
217.313,6.33606,8.43964,0.66,19.2802,679,5,
217.313,6.33606,8.44269,0.66,19.2802,679,5,
217.313,6.33606,8.43659,0.66,19.2802,679,5,
217.313,6.33545,8.43811,0.66,19.2802,679,5,
217.313,6.33636,8.43964,0.66,19.2802,679,5,
217.313,6.33636,8.43811,0.66,19.2802,679,5,
217.313,6.33423,8.43964,0.66,19.2802,679,5,
217.314,6.33087,8.44116,0.66,19.2802,679,5,
217.314,6.33148,8.44116,0.66,19.2802,679,5,
217.314,6.33118,8.43964,0.66,19.2802,679,5,
217.314,6.33087,8.44116,0.66,19.2802,679,5,
217.314,6.33118,8.43811,0.66,19.2802,679,5,
217.314,6.33087,8.44116,0.66,19.2802,679,5,
217.314,6.33118,8.44116,0.66,19.2802,679,5,
217.314,6.32721,8.43811,0.66,19.2802,679,5,
217.314,6.3266,8.43811,0.66,19.2802,679,5,
217.314,6.3269,8.44269,0.66,19.2802,679,5,
217.314,6.3266,8.44116,0.66,19.2802,679,5,
217.314,6.32629,8.43964,0.66,19.2802,679,5,
217.314,6.3266,8.44116,0.66,19.2802,679,5,
217.314,6.32629,8.44421,0.66,19.2802,679,5,
217.314,6.3266,8.44116,0.66,19.2802,679,5,
217.314,6.32202,8.44116,0.66,19.2802,679,5,
217.314,6.32141,8.43964,0.66,19.2802,679,5,
217.314,6.32172,8.43811,0.66,19.2802,679,5,
217.314,6.32172,8.44116,0.66,19.2802,679,5,
217.314,6.32233,8.43811,0.66,19.2802,679,5,
217.314,6.32141,8.43964,0.66,19.2802,679,5,
217.314,6.32202,8.43811,0.66,19.2802,679,5,
217.314,6.31836,8.43964,0.66,19.2802,679,5,
217.314,6.31592,8.43659,0.66,19.2802,679,5,
217.314,6.31683,8.44116,0.66,19.2802,679,5,
217.314,6.31714,8.43811,0.66,19.2802,679,5,
217.314,6.31683,8.43811,0.66,19.2802,679,5,
217.314,6.31714,8.44421,0.66,19.2802,679,5,
217.314,6.31683,8.44116,0.66,19.2802,679,5,
217.314,6.31622,8.43659,0.66,19.2802,679,5,
217.315,6.31165,8.43811,0.66,19.2802,679,5,
217.315,6.31226,8.43964,0.66,19.2802,679,5,
217.315,6.31256,8.44116,0.66,19.2802,679,5,
217.315,6.31226,8.44269,0.66,19.2802,679,5,
217.315,6.31165,8.42896,0.66,19.2802,679,5,
217.315,6.31195,8.4259,0.66,19.2802,679,5,
217.315,6.31195,8.42438,0.66,19.2802,679,5,
217.315,6.31012,8.42896,0.66,19.2802,679,5,
217.315,6.30646,8.42438,0.66,19.2802,679,5,
217.315,6.30615,8.42438,0.66,19.2802,679,5,
217.315,6.30646,8.42743,0.66,19.2802,679,5,
217.315,6.30676,8.4259,0.66,19.2802,679,5,
217.315,6.30707,8.4259,0.66,19.2802,679,5,
217.315,6.30676,8.4259,0.66,19.2802,679,5,
217.315,6.30676,8.42896,0.66,19.2802,679,5,
217.315,6.30157,8.42285,0.66,19.2802,679,5,
217.315,6.30219,8.4259,0.66,19.2802,679,5,
217.315,6.30249,8.4259,0.66,19.2802,679,5,
217.315,6.30219,8.4259,0.66,19.2802,679,5,
217.315,6.30188,8.42743,0.66,19.2802,679,5,
217.315,6.30188,8.4259,0.66,19.2802,679,5,
217.315,6.30188,8.42896,0.66,19.2802,679,5,
217.315,6.30005,8.42743,0.66,19.2802,679,5,
217.315,6.29639,8.42743,0.66,19.2802,679,5,
217.315,6.2973,8.4259,0.66,19.2802,679,5,
217.315,6.297,8.4259,0.66,19.2802,679,5,
217.315,6.297,8.42743,0.66,19.2802,679,5,
217.315,6.29669,8.4259,0.66,19.2802,679,5,
217.315,6.29669,8.4259,0.66,19.2802,679,5,
217.315,6.2973,8.42896,0.66,19.2802,679,5,
217.315,6.29211,8.42896,0.66,19.2802,679,5,
217.316,6.29181,8.42896,0.66,19.2802,679,5,
217.316,6.29242,8.43048,0.66,19.2802,679,5,
217.316,6.29181,8.4259,0.66,19.2802,679,5,
217.316,6.29242,8.42743,0.66,19.2802,679,5,
217.316,6.29181,8.42896,0.66,19.2802,679,5,
217.316,6.2915,8.42743,0.66,19.2802,679,5,
217.316,6.29211,8.42438,0.66,19.2802,679,5,
217.316,6.28754,8.42743,0.66,19.2802,679,5,
217.316,6.28693,8.42896,0.66,19.2802,679,5,
217.316,6.28784,8.42896,0.66,19.2802,679,5,
217.316,6.28723,8.42438,0.66,19.2802,679,5,
217.316,6.28754,8.4259,0.66,19.2802,679,5,
217.316,6.28632,8.4259,0.66,19.2802,679,5,
217.316,6.28693,8.43048,0.66,19.2802,679,5,
217.316,6.28326,8.42896,0.66,19.2802,679,5,
217.316,6.28174,8.42438,0.66,19.2802,679,5,
217.316,6.28204,8.42743,0.66,19.2802,679,5,
217.316,6.28235,8.42896,0.66,19.2802,679,5,
217.316,6.28143,8.4259,0.66,19.2802,679,5,
217.316,6.28235,8.4259,0.66,19.2802,679,5,
217.316,6.28235,8.42896,0.66,19.2802,679,5,
217.316,6.28204,8.42896,0.66,19.2802,679,5,
217.316,6.27747,8.42438,0.66,19.2802,679,5,
217.316,6.27747,8.42743,0.66,19.2802,679,5,
217.316,6.27716,8.4259,0.66,19.2802,679,5,
217.316,6.27777,8.4259,0.66,19.2802,679,5,
217.316,6.27747,8.42743,0.66,19.2802,679,5,
217.316,6.27777,8.42438,0.66,19.2802,679,5,
217.316,6.27686,8.42438,0.66,19.2802,679,5,
217.316,6.2735,8.42743,0.66,19.2802,679,5,
217.317,6.27258,8.42896,0.66,19.2802,679,5,
217.317,6.27258,8.42743,0.66,19.2802,679,5,
217.317,6.27258,8.4259,0.66,19.2802,679,5,
217.317,6.27197,8.42743,0.66,19.2802,679,5,
217.317,6.27228,8.42743,0.66,19.2802,679,5,
217.317,6.27228,8.4259,0.66,19.2802,679,5,
217.317,6.26953,8.42743,0.66,19.2802,679,5,
217.317,6.2674,8.42438,0.66,19.2802,679,5,
217.317,6.2677,8.42743,0.66,19.2802,679,5,
217.317,6.2674,8.42896,0.66,19.2802,679,5,
217.317,6.2677,8.42743,0.66,19.2802,679,5,
217.317,6.2677,8.42743,0.66,19.2802,679,5,
217.317,6.2674,8.4259,0.66,19.2802,679,5,
217.317,6.2674,8.42743,0.66,19.2802,679,5,
217.317,6.2619,8.42896,0.66,19.2802,679,5,
217.317,6.26221,8.42896,0.66,19.2802,679,5,
217.317,6.26282,8.42896,0.66,19.2802,679,5,
217.317,6.26251,8.42133,0.66,19.2802,679,5,
217.317,6.26251,8.41522,0.66,19.2802,679,5,
217.317,6.26282,8.41522,0.66,19.2802,679,5,
217.317,6.26251,8.41522,0.66,19.2802,679,5,
217.317,6.25793,8.41675,0.66,19.2802,679,5,
217.317,6.25824,8.41217,0.66,19.2802,679,5,
217.317,6.25763,8.4137,0.66,19.2802,679,5,
217.317,6.25793,8.41522,0.66,19.2802,679,5,
217.317,6.25702,8.41522,0.66,19.2802,679,5,
217.317,6.25732,8.41675,0.66,19.2802,679,5,
217.317,6.25519,8.4137,0.66,19.2802,679,5,
217.317,6.25275,8.4137,0.66,19.2802,679,5,
217.317,6.25244,8.41065,0.66,19.2802,679,5,
217.318,6.25336,8.41675,0.66,19.2802,679,5,
217.318,6.25305,8.41522,0.66,19.2802,679,5,
217.318,6.25305,8.41217,0.66,19.2802,679,5,
217.318,6.25305,8.41675,0.66,19.2802,679,5,
217.318,6.24786,8.4137,0.66,19.2802,679,5,
217.318,6.24786,8.4137,0.66,19.2802,679,5,
217.318,6.24817,8.41675,0.66,19.2802,679,5,
217.318,6.24847,8.4137,0.66,19.2802,679,5,
217.318,6.24756,8.41675,0.66,19.2802,679,5,
217.318,6.24756,8.41522,0.66,19.2802,679,5,
217.318,6.24603,8.4137,0.66,19.2802,679,5,
217.318,6.24298,8.41675,0.66,19.2802,679,5,
217.318,6.24359,8.41675,0.66,19.2802,679,5,
217.318,6.24298,8.4137,0.66,19.2802,679,5,
217.318,6.24329,8.41675,0.66,19.2802,679,5,
217.318,6.24359,8.41827,0.66,19.2802,679,5,
217.318,6.24268,8.41675,0.66,19.2802,679,5,
217.318,6.23779,8.41675,0.66,19.2802,679,5,
217.318,6.2384,8.41217,0.66,19.2802,679,5,
217.318,6.2384,8.41675,0.66,19.2802,679,5,
217.318,6.23779,8.41827,0.66,19.2802,679,5,
217.318,6.23749,8.41675,0.66,19.2802,679,5,
217.318,6.23779,8.41522,0.66,19.2802,679,5,
217.318,6.23322,8.41827,0.66,19.2802,679,5,
217.318,6.23322,8.41522,0.66,19.2802,679,5,
217.318,6.2326,8.41522,0.66,19.2802,679,5,
217.318,6.23322,8.41522,0.66,19.2802,679,5,
217.318,6.2323,8.41522,0.66,19.2802,679,5,
217.318,6.23291,8.41675,0.66,19.2802,679,5,
217.319,6.22833,8.41522,0.66,19.2802,679,5,
217.319,6.22833,8.41217,0.66,19.2802,679,5,
217.319,6.22803,8.41217,0.66,19.2802,679,5,
217.319,6.22864,8.4137,0.66,19.2802,679,5,
217.319,6.22803,8.41522,0.66,19.2802,679,5,
217.319,6.22833,8.41675,0.66,19.2802,679,5,
217.319,6.22437,8.41675,0.66,19.2802,679,5,
217.319,6.22406,8.41675,0.66,19.2802,679,5,
217.319,6.22375,8.41675,0.66,19.2802,679,5,
217.319,6.22375,8.4137,0.66,19.2802,679,5,
217.319,6.22345,8.41522,0.66,19.2802,679,5,
217.319,6.22406,8.41522,0.66,19.2802,679,5,
217.319,6.21887,8.4137,0.66,19.2802,679,5,
217.319,6.21948,8.41217,0.66,19.2802,679,5,
217.319,6.21826,8.41522,0.66,19.2802,679,5,
217.319,6.21796,8.4137,0.66,19.2802,679,5,
217.319,6.21948,8.41675,0.66,19.2802,679,5,
217.319,6.21857,8.41522,0.66,19.2802,679,5,
217.319,6.21399,8.4137,0.66,19.2802,679,5,
217.319,6.21368,8.41522,0.66,19.2802,679,5,
217.319,6.21368,8.41675,0.66,19.2802,679,5,
217.319,6.21277,8.41522,0.66,19.2802,679,5,
217.319,6.21429,8.41675,0.66,19.2802,679,5,
217.319,6.21216,8.41675,0.66,19.2802,679,5,
217.319,6.2088,8.40607,0.66,19.2802,679,5,
217.319,6.20911,8.40149,0.66,19.2802,679,5,
217.319,6.2088,8.40149,0.66,19.2802,679,5,
217.319,6.2085,8.40302,0.66,19.2802,679,5,
217.319,6.2088,8.40302,0.66,19.2802,679,5,
217.319,6.20636,8.39844,0.66,19.2802,679,5,
217.32,6.20422,8.40149,0.66,19.2802,679,5,
217.32,6.20392,8.40302,0.66,19.2802,679,5,
217.32,6.20392,8.40149,0.66,19.2802,679,5,
217.32,6.203,8.40454,0.66,19.2802,679,5,
217.32,6.20422,8.40454,0.66,19.2802,679,5,
217.32,6.20239,8.40302,0.66,19.2802,679,5,
217.32,6.19904,8.40454,0.66,19.2802,679,5,
217.32,6.19934,8.40302,0.66,19.2802,679,5,
217.32,6.19873,8.40302,0.66,19.2802,679,5,
217.32,6.19812,8.40149,0.66,19.2802,679,5,
217.32,6.19904,8.39996,0.66,19.2802,679,5,
217.32,6.19659,8.40302,0.66,19.2802,679,5,
217.32,6.19385,8.40454,0.66,19.2802,679,5,
217.32,6.19415,8.40149,0.66,19.2802,679,5,
217.32,6.19446,8.39996,0.66,19.2802,679,5,
217.32,6.19446,8.40302,0.66,19.2802,679,5,
217.32,6.19446,8.40454,0.66,19.2802,679,5,
217.32,6.19354,8.40149,0.66,19.2802,679,5,
217.32,6.18866,8.40149,0.66,19.2802,679,5,
217.32,6.18958,8.40149,0.66,19.2802,679,5,
217.32,6.18958,8.40454,0.66,19.2802,679,5,
217.32,6.18958,8.39996,0.66,19.2802,679,5,
217.32,6.18958,8.39996,0.66,19.2802,679,5,
217.32,6.18958,8.39996,0.66,19.2802,679,5,
217.32,6.185,8.40302,0.66,19.2802,679,5,
217.32,6.18439,8.40149,0.66,19.2802,679,5,
217.32,6.18469,8.40149,0.66,19.2802,679,5,
217.32,6.18408,8.40454,0.66,19.2802,679,5,
217.32,6.18408,8.40302,0.66,19.2802,679,5,
217.32,6.18408,8.40149,0.66,19.2802,679,5,
217.321,6.18011,8.40302,0.66,19.2802,679,5,
217.321,6.18011,8.40149,0.66,19.2802,679,5,
217.321,6.1792,8.40302,0.66,19.2802,679,5,
217.321,6.1795,8.40302,0.66,19.2802,679,5,
217.321,6.1792,8.40302,0.66,19.2802,679,5,
217.321,6.1792,8.39996,0.66,19.2802,679,5,
217.321,6.17493,8.40454,0.66,19.2802,679,5,
217.321,6.17493,8.40149,0.66,19.2802,679,5,
217.321,6.17462,8.40149,0.66,19.2802,679,5,
217.321,6.17432,8.40149,0.66,19.2802,679,5,
217.321,6.17462,8.39996,0.66,19.2802,679,5,
217.321,6.17371,8.40302,0.66,19.2802,679,5,
217.321,6.17218,8.40302,0.66,19.2802,679,5,
217.321,6.16974,8.40454,0.66,19.2802,679,5,
217.321,6.16974,8.40149,0.66,19.2802,679,5,
217.321,6.16913,8.40149,0.66,19.2802,679,5,
217.321,6.16943,8.39386,0.66,19.2802,679,5,
217.321,6.17004,8.38928,0.66,19.2802,679,5,
217.321,6.16943,8.38776,0.66,19.2802,679,5,
217.321,6.16455,8.38928,0.66,19.2802,679,5,
217.321,6.16547,8.39081,0.66,19.2802,679,5,
217.321,6.16516,8.38776,0.66,19.2802,679,5,
217.321,6.16516,8.38776,0.66,19.2802,679,5,
217.321,6.16425,8.38928,0.66,19.2802,679,5,
217.321,6.16516,8.39081,0.66,19.2802,679,5,
217.321,6.15936,8.39081,0.66,19.2802,679,5,
217.321,6.15967,8.39233,0.66,19.2802,679,5,
217.321,6.15967,8.39233,0.66,19.2802,679,5,
217.321,6.16028,8.38928,0.66,19.2802,679,5,
217.321,6.16028,8.39233,0.66,19.2802,679,5,
217.321,6.15997,8.38928,0.66,19.2802,679,5,
217.322,6.15814,8.38776,0.66,19.2802,679,5,
217.322,6.15417,8.38776,0.66,19.2802,679,5,
217.322,6.15509,8.38776,0.66,19.2802,679,5,
217.322,6.15479,8.38928,0.66,19.2802,679,5,
217.322,6.1554,8.39386,0.66,19.2802,679,5,
217.322,6.15509,8.39081,0.66,19.2802,679,5,
217.322,6.15509,8.38776,0.66,19.2802,679,5,
217.322,6.1499,8.39081,0.66,19.2802,679,5,
217.322,6.15021,8.38928,0.66,19.2802,679,5,
217.322,6.15021,8.38928,0.66,19.2802,679,5,
217.322,6.15021,8.39081,0.66,19.2802,679,5,
217.322,6.1496,8.38928,0.66,19.2802,679,5,
217.322,6.15021,8.39233,0.66,19.2802,679,5,
217.322,6.14807,8.38928,0.66,19.2802,679,5,
217.322,6.14532,8.38928,0.66,19.2802,679,5,
217.322,6.14532,8.39081,0.66,19.2802,679,5,
217.322,6.14532,8.38928,0.66,19.2802,679,5,
217.322,6.14532,8.39081,0.66,19.2802,679,5,
217.322,6.14471,8.38928,0.66,19.2802,679,5,
217.322,6.14532,8.38776,0.66,19.2802,679,5,
217.322,6.14136,8.38776,0.66,19.2802,679,5,
217.322,6.14075,8.38928,0.66,19.2802,679,5,
217.322,6.14044,8.39081,0.66,19.2802,679,5,
217.322,6.13983,8.39233,0.66,19.2802,679,5,
217.322,6.14075,8.38623,0.66,19.2802,679,5,
217.322,6.13983,8.37555,0.66,19.2802,679,5,
217.322,6.13953,8.37708,0.66,19.2802,679,5,
217.322,6.13525,8.3786,0.66,19.2802,679,5,
217.322,6.13556,8.38165,0.66,19.2802,679,5,
217.322,6.13464,8.38013,0.66,19.2802,679,5,
217.323,6.13495,8.37708,0.66,19.2802,679,5,
217.323,6.13556,8.3786,0.66,19.2802,679,5,
217.323,6.13525,8.37402,0.66,19.2802,679,5,
217.323,6.13495,8.37708,0.66,19.2802,679,5,
217.323,6.13007,8.3786,0.66,19.2802,679,5,
217.323,6.13068,8.37708,0.66,19.2802,679,5,
217.323,6.12976,8.3786,0.66,19.2802,679,5,
217.323,6.13007,8.37402,0.66,19.2802,679,5,
217.323,6.13037,8.37708,0.66,19.2802,679,5,
217.323,6.13068,8.3786,0.66,19.2802,679,5,
217.323,6.13098,8.37708,0.66,19.2802,679,5,
217.323,6.12579,8.37708,0.66,19.2802,679,5,
217.323,6.12579,8.3786,0.66,19.2802,679,5,
217.323,6.12579,8.37708,0.66,19.2802,679,5,
217.323,6.12488,8.3786,0.66,19.2802,679,5,
217.323,6.12518,8.37555,0.66,19.2802,679,5,
217.323,6.12518,8.37555,0.66,19.2802,679,5,
217.323,6.12549,8.3786,0.66,19.2802,679,5,
217.323,6.12579,8.38165,0.66,19.2802,679,5,
217.323,6.12122,8.37708,0.66,19.2802,679,5,
217.323,6.12091,8.3786,0.66,19.2802,679,5,
217.323,6.12091,8.38013,0.66,19.2802,679,5,
217.323,6.1203,8.3786,0.66,19.2802,679,5,
217.323,6.12061,8.3786,0.66,19.2802,679,5,
217.323,6.12,8.3786,0.66,19.2802,679,5,
217.323,6.12,8.37555,0.66,19.2802,679,5,
217.323,6.11633,8.3786,0.66,19.2802,679,5,
217.323,6.11572,8.37708,0.66,19.2802,679,5,
217.323,6.11542,8.37708,0.66,19.2802,679,5,
217.323,6.11572,8.3786,0.66,19.2802,679,5,
217.324,6.11572,8.36945,0.66,19.2802,679,5,
217.324,6.11572,8.36639,0.66,19.2802,679,5,
217.324,6.11542,8.36487,0.66,19.2802,679,5,
217.324,6.11603,8.36945,0.66,19.2802,679,5,
217.324,6.11145,8.36639,0.66,19.2802,679,5,
217.324,6.11084,8.36639,0.66,19.2802,679,5,
217.324,6.11145,8.36639,0.66,19.2802,679,5,
217.324,6.11115,8.36792,0.66,19.2802,679,5,
217.324,6.11115,8.36639,0.66,19.2802,679,5,
217.324,6.11115,8.36487,0.66,19.2802,679,5,
217.324,6.11053,8.36487,0.66,19.2802,679,5,
217.324,6.11053,8.36487,0.66,19.2802,679,5,
217.324,6.10626,8.36792,0.66,19.2802,679,5,
217.324,6.10596,8.36487,0.66,19.2802,679,5,
217.324,6.10626,8.36639,0.66,19.2802,679,5,
217.324,6.10596,8.37097,0.66,19.2802,679,5,
217.324,6.10596,8.36487,0.66,19.2802,679,5,
217.324,6.10596,8.36487,0.66,19.2802,679,5,
217.324,6.10596,8.36487,0.66,19.2802,679,5,
217.324,6.10626,8.36487,0.66,19.2802,679,5,
217.324,6.10199,8.36792,0.66,19.2802,679,5,
217.324,6.10077,8.36945,0.66,19.2802,679,5,
217.324,6.10077,8.36487,0.66,19.2802,679,5,
217.324,6.10046,8.36945,0.66,19.2802,679,5,
217.324,6.10107,8.36334,0.66,19.2802,679,5,
217.324,6.10107,8.36487,0.66,19.2802,679,5,
217.324,6.10046,8.36487,0.66,19.2802,679,5,
217.324,6.09955,8.36487,0.66,19.2802,679,5,
217.324,6.10107,8.36792,0.66,19.2802,679,5,
217.325,6.09589,8.36792,0.66,19.2802,679,5,
217.325,6.09619,8.36639,0.66,19.2802,679,5,
217.325,6.09619,8.36639,0.66,19.2802,679,5,
217.325,6.09558,8.36487,0.66,19.2802,679,5,
217.325,6.09619,8.36487,0.66,19.2802,679,5,
217.325,6.09619,8.36639,0.66,19.2802,679,5,
217.325,6.09619,8.35419,0.66,19.2802,679,5,
217.325,6.09589,8.35266,0.66,19.2802,679,5,
217.325,6.09589,8.35266,0.66,19.2802,679,5,
217.325,6.091,8.35266,0.66,19.2802,679,5,
217.325,6.09131,8.35419,0.66,19.2802,679,5,
217.325,6.091,8.35114,0.66,19.2802,679,5,
217.325,6.091,8.35419,0.66,19.2802,679,5,
217.325,6.09161,8.35266,0.66,19.2802,679,5,
217.325,6.09192,8.35114,0.66,19.2802,679,5,
217.325,6.091,8.35571,0.66,19.2802,679,5,
217.325,6.091,8.35419,0.66,19.2802,679,5,
217.325,6.09161,8.35571,0.66,19.2802,679,5,
217.325,6.08734,8.35419,0.66,19.2802,679,5,
217.325,6.08673,8.35114,0.66,19.2802,679,5,
217.325,6.08643,8.34961,0.66,19.2802,679,5,
217.325,6.08673,8.35266,0.66,19.2802,679,5,
217.325,6.08673,8.35419,0.66,19.2802,679,5,
217.325,6.08643,8.35419,0.66,19.2802,679,5,
217.325,6.08643,8.35266,0.66,19.2802,679,5,
217.325,6.08612,8.35419,0.66,19.2802,679,5,
217.325,6.08673,8.35419,0.66,19.2802,679,5,
217.325,6.08643,8.35266,0.66,19.2802,679,5,
217.325,6.08154,8.35419,0.66,19.2802,679,5,
217.325,6.08124,8.34961,0.66,19.2802,679,5,
217.326,6.08124,8.35724,0.66,19.2802,679,5,
217.326,6.08154,8.35419,0.66,19.2802,679,5,
217.326,6.08124,8.35419,0.66,19.2802,679,5,
217.326,6.08154,8.35266,0.66,19.2802,679,5,
217.326,6.08154,8.35419,0.66,19.2802,679,5,
217.326,6.08154,8.35571,0.66,19.2802,679,5,
217.326,6.08215,8.35419,0.66,19.2802,679,5,
217.326,6.08185,8.34808,0.66,19.2802,679,5,
217.326,6.07941,8.34198,0.66,19.2802,679,5,
217.326,6.07666,8.33893,0.66,19.2802,679,5,
217.326,6.07605,8.34351,0.66,19.2802,679,5,
217.326,6.07635,8.34351,0.66,19.2802,679,5,
217.326,6.07727,8.34198,0.66,19.2802,679,5,
217.326,6.07635,8.34198,0.66,19.2802,679,5,
217.326,6.07605,8.34198,0.66,19.2802,679,5,
217.326,6.07697,8.34198,0.66,19.2802,679,5,
217.326,6.07666,8.3374,0.66,19.2802,679,5,
217.326,6.07666,8.34198,0.66,19.2802,679,5,
217.326,6.07727,8.34046,0.66,19.2802,679,5,
217.326,6.07452,8.34351,0.66,19.2802,679,5,
217.326,6.07178,8.34198,0.66,19.2802,679,5,
217.326,6.07178,8.34351,0.66,19.2802,679,5,
217.326,6.07208,8.33893,0.66,19.2802,679,5,
217.326,6.07147,8.34046,0.66,19.2802,679,5,
217.326,6.07147,8.34046,0.66,19.2802,679,5,
217.326,6.07147,8.34046,0.66,19.2802,679,5,
217.326,6.07147,8.34351,0.66,19.2802,679,5,
217.326,6.07178,8.34351,0.66,19.2802,679,5,
217.326,6.07208,8.33893,0.66,19.2802,679,5,
217.326,6.07208,8.34046,0.66,19.2802,679,5,
217.327,6.07178,8.34046,0.66,19.2802,679,5,
217.327,6.06781,8.34351,0.66,19.2802,679,5,
217.327,6.06659,8.34046,0.66,19.2802,679,5,
217.327,6.0672,8.34351,0.66,19.2802,679,5,
217.327,6.0672,8.34198,0.66,19.2802,679,5,
217.327,6.0672,8.34046,0.66,19.2802,679,5,
217.327,6.0672,8.33893,0.66,19.2802,679,5,
217.327,6.0672,8.34351,0.66,19.2802,679,5,
217.327,6.0672,8.34046,0.66,19.2802,679,5,
217.327,6.06659,8.33893,0.66,19.2802,679,5,
217.327,6.0672,8.34198,0.66,19.2802,679,5,
217.327,6.06689,8.33893,0.66,19.2802,679,5,
217.327,6.06689,8.33893,0.66,19.2802,679,5,
217.327,6.0672,8.3313,0.66,19.2802,679,5,
217.327,6.06232,8.32977,0.66,19.2802,679,5,
217.327,6.06201,8.32672,0.66,19.2802,679,5,
217.327,6.06201,8.32672,0.66,19.2802,679,5,
217.327,6.0614,8.3313,0.66,19.2802,679,5,
217.327,6.06201,8.32977,0.66,19.2802,679,5,
217.327,6.06293,8.32825,0.66,19.2802,679,5,
217.327,6.06171,8.32977,0.66,19.2802,679,5,
217.327,6.06232,8.32977,0.66,19.2802,679,5,
217.327,6.06262,8.32977,0.66,19.2802,679,5,
217.327,6.06201,8.32825,0.66,19.2802,679,5,
217.327,6.06232,8.32825,0.66,19.2802,679,5,
217.327,6.06262,8.3252,0.66,19.2802,679,5,
217.327,6.06232,8.3313,0.66,19.2802,679,5,
217.327,6.05774,8.32977,0.66,19.2802,679,5,
217.327,6.05652,8.32825,0.66,19.2802,679,5,
217.327,6.05743,8.33283,0.66,19.2802,679,5,
217.327,6.05743,8.32977,0.66,19.2802,679,5,
217.328,6.05743,8.32825,0.66,19.2802,679,5,
217.328,6.05743,8.32825,0.66,19.2802,679,5,
217.328,6.05682,8.33283,0.66,19.2802,679,5,
217.328,6.05713,8.32825,0.66,19.2802,679,5,
217.328,6.05682,8.32825,0.66,19.2802,679,5,
217.328,6.05743,8.32672,0.66,19.2802,679,5,
217.328,6.05713,8.32672,0.66,19.2802,679,5,
217.328,6.05682,8.31757,0.66,19.2802,679,5,
217.328,6.05682,8.31604,0.66,19.2802,679,5,
217.328,6.05225,8.31757,0.66,19.2802,679,5,
217.328,6.05255,8.31604,0.66,19.2802,679,5,
217.328,6.05194,8.31909,0.66,19.2802,679,5,
217.328,6.05255,8.31452,0.66,19.2802,679,5,
217.328,6.05225,8.31452,0.66,19.2802,679,5,
217.328,6.05164,8.31452,0.66,19.2802,679,5,
217.328,6.05255,8.31604,0.66,19.2802,679,5,
217.328,6.05255,8.31909,0.66,19.2802,679,5,
217.328,6.05255,8.31757,0.66,19.2802,679,5,
217.328,6.05164,8.31757,0.66,19.2802,679,5,
217.328,6.05225,8.31757,0.66,19.2802,679,5,
217.328,6.05286,8.31757,0.66,19.2802,679,5,
217.328,6.05164,8.31909,0.66,19.2802,679,5,
217.328,6.04797,8.31604,0.66,19.2802,679,5,
217.328,6.04706,8.31604,0.66,19.2802,679,5,
217.328,6.04736,8.31604,0.66,19.2802,679,5,
217.328,6.04736,8.31757,0.66,19.2802,679,5,
217.328,6.04736,8.31452,0.66,19.2802,679,5,
217.328,6.04797,8.31757,0.66,19.2802,679,5,
217.328,6.04736,8.31604,0.66,19.2802,679,5,
217.328,6.04675,8.31757,0.66,19.2802,679,5,
217.329,6.04675,8.31452,0.66,19.2802,679,5,
217.329,6.04736,8.31452,0.66,19.2802,679,5,
217.329,6.04675,8.30689,0.66,19.2802,679,5,
217.329,6.04706,8.30536,0.66,19.2802,679,5,
217.329,6.04706,8.30231,0.66,19.2802,679,5,
217.329,6.04309,8.30383,0.66,19.2802,679,5,
217.329,6.04187,8.30689,0.66,19.2802,679,5,
217.329,6.04218,8.30536,0.66,19.2802,679,5,
217.329,6.04218,8.30383,0.66,19.2802,679,5,
217.329,6.04218,8.30689,0.66,19.2802,679,5,
217.329,6.04248,8.30231,0.66,19.2802,679,5,
217.329,6.04218,8.30231,0.66,19.2802,679,5,
217.329,6.04187,8.30689,0.66,19.2802,679,5,
217.329,6.04218,8.30536,0.66,19.2802,679,5,
217.329,6.04187,8.30231,0.66,19.2802,679,5,
217.329,6.04248,8.30383,0.66,19.2802,679,5,
217.329,6.04248,8.30536,0.66,19.2802,679,5,
217.329,6.0376,8.30383,0.66,19.2802,679,5,
217.329,6.03699,8.30383,0.66,19.2802,679,5,
217.329,6.0376,8.30689,0.66,19.2802,679,5,
217.329,6.03729,8.30536,0.66,19.2802,679,5,
217.329,6.03668,8.29926,0.66,19.2802,679,5,
217.329,6.0376,8.30383,0.66,19.2802,679,5,
217.329,6.03699,8.30383,0.66,19.2802,679,5,
217.329,6.0376,8.30231,0.66,19.2802,679,5,
217.329,6.0376,8.30231,0.66,19.2802,679,5,
217.329,6.03729,8.29926,0.66,19.2802,679,5,
217.329,6.0376,8.29163,0.66,19.2802,679,5,
217.329,6.03241,8.29315,0.66,19.2802,679,5,
217.329,6.03271,8.29163,0.66,19.2802,679,5,
217.33,6.0321,8.29163,0.66,19.2802,679,5,
217.33,6.0321,8.29163,0.66,19.2802,679,5,
217.33,6.03271,8.29163,0.66,19.2802,679,5,
217.33,6.0321,8.29315,0.66,19.2802,679,5,
217.33,6.0321,8.29315,0.66,19.2802,679,5,
217.33,6.0321,8.29163,0.66,19.2802,679,5,
217.33,6.03271,8.29163,0.66,19.2802,679,5,
217.33,6.03271,8.29163,0.66,19.2802,679,5,
217.33,6.02753,8.29315,0.66,19.2802,679,5,
217.33,6.02692,8.28858,0.66,19.2802,679,5,
217.33,6.02722,8.2901,0.66,19.2802,679,5,
217.33,6.02722,8.29468,0.66,19.2802,679,5,
217.33,6.02814,8.29163,0.66,19.2802,679,5,
217.33,6.02692,8.2901,0.66,19.2802,679,5,
217.33,6.02753,8.29315,0.66,19.2802,679,5,
217.33,6.02753,8.29163,0.66,19.2802,679,5,
217.33,6.02539,8.2901,0.66,19.2802,679,5,
217.33,6.02203,8.29163,0.66,19.2802,679,5,
217.33,6.02234,8.29315,0.66,19.2802,679,5,
217.33,6.02234,8.28858,0.66,19.2802,679,5,
217.33,6.02264,8.29315,0.66,19.2802,679,5,
217.33,6.02234,8.2901,0.66,19.2802,679,5,
217.33,6.02295,8.2901,0.66,19.2802,679,5,
217.33,6.02295,8.29315,0.66,19.2802,679,5,
217.33,6.02325,8.2901,0.66,19.2802,679,5,
217.33,6.01715,8.29163,0.66,19.2802,679,5,
217.33,6.01776,8.28858,0.66,19.2802,679,5,
217.33,6.01807,8.2901,0.66,19.2802,679,5,
217.33,6.01776,8.29468,0.66,19.2802,679,5,
217.331,6.01715,8.28858,0.66,19.2802,679,5,
217.331,6.01837,8.28858,0.66,19.2802,679,5,
217.331,6.01746,8.29163,0.66,19.2802,679,5,
217.331,6.01776,8.29315,0.66,19.2802,679,5,
217.331,6.01257,8.29163,0.66,19.2802,679,5,
217.331,6.01288,8.29315,0.66,19.2802,679,5,
217.331,6.01227,8.29468,0.66,19.2802,679,5,
217.331,6.01349,8.29163,0.66,19.2802,679,5,
217.331,6.01227,8.2901,0.66,19.2802,679,5,
217.331,6.01257,8.2901,0.66,19.2802,679,5,
217.331,6.01349,8.2901,0.66,19.2802,679,5,
217.331,6.01288,8.29163,0.66,19.2802,679,5,
217.331,6.0083,8.2901,0.66,19.2802,679,5,
217.331,6.0083,8.29163,0.66,19.2802,679,5,
217.331,6.008,8.29468,0.66,19.2802,679,5,
217.331,6.00769,8.29315,0.66,19.2802,679,5,
217.331,6.00769,8.29315,0.66,19.2802,679,5,
217.331,6.00861,8.29163,0.66,19.2802,679,5,
217.331,6.00861,8.29163,0.66,19.2802,679,5,
217.331,6.00891,8.29163,0.66,19.2802,679,5,
217.331,6.00342,8.28858,0.66,19.2802,679,5,
217.331,6.00189,8.29163,0.66,19.2802,679,5,
217.331,6.00281,8.29315,0.66,19.2802,679,5,
217.331,6.00281,8.29163,0.66,19.2802,679,5,
217.331,6.00281,8.2901,0.66,19.2802,679,5,
217.331,6.00281,8.29163,0.66,19.2802,679,5,
217.331,6.0025,8.2901,0.66,19.2802,679,5,
217.331,5.99945,8.2901,0.66,19.2802,679,5,
217.331,5.99823,8.29163,0.66,19.2802,679,5,
217.331,5.99823,8.29163,0.66,19.2802,679,5,
217.332,5.99762,8.29468,0.66,19.2802,679,5,
217.332,5.99762,8.29163,0.66,19.2802,679,5,
217.332,5.99792,8.29163,0.66,19.2802,679,5,
217.332,5.99792,8.2901,0.66,19.2802,679,5,
217.332,5.99792,8.2901,0.66,19.2802,679,5,
217.332,5.99426,8.29315,0.66,19.2802,679,5,
217.332,5.99304,8.2901,0.66,19.2802,679,5,
217.332,5.99335,8.28858,0.66,19.2802,679,5,
217.332,5.99304,8.29468,0.66,19.2802,679,5,
217.332,5.99304,8.29468,0.66,19.2802,679,5,
217.332,5.99335,8.29163,0.66,19.2802,679,5,
217.332,5.99304,8.29163,0.66,19.2802,679,5,
217.332,5.9906,8.2901,0.66,19.2802,679,5,
217.332,5.98907,8.28858,0.66,19.2802,679,5,
217.332,5.98846,8.2901,0.66,19.2802,679,5,
217.332,5.98907,8.29315,0.66,19.2802,679,5,
217.332,5.98877,8.29163,0.66,19.2802,679,5,
217.332,5.98755,8.28858,0.66,19.2802,679,5,
217.332,5.98816,8.2901,0.66,19.2802,679,5,
217.332,5.98846,8.29315,0.66,19.2802,679,5,
217.332,5.98389,8.2901,0.66,19.2802,679,5,
217.332,5.98358,8.29773,0.66,19.2802,679,5,
217.332,5.98297,8.29468,0.66,19.2802,679,5,
217.332,5.98358,8.28858,0.66,19.2802,679,5,
217.332,5.98328,8.29163,0.66,19.2802,679,5,
217.332,5.98328,8.29163,0.66,19.2802,679,5,
217.332,5.98328,8.29315,0.66,19.2802,679,5,
217.332,5.98389,8.28858,0.66,19.2802,679,5,
217.332,5.9787,8.29163,0.66,19.2802,679,5,
217.332,5.97839,8.2901,0.66,19.2802,679,5,
217.333,5.979,8.29315,0.66,19.2802,679,5,
217.333,5.979,8.29468,0.66,19.2802,679,5,
217.333,5.97809,8.2901,0.66,19.2802,679,5,
217.333,5.9787,8.29163,0.66,19.2802,679,5,
217.333,5.97809,8.29163,0.66,19.2802,679,5,
217.333,5.97839,8.29163,0.66,19.2802,679,5,
217.333,5.97382,8.29315,0.66,19.2802,679,5,
217.333,5.97321,8.29163,0.66,19.2802,679,5,
217.333,5.97351,8.29315,0.66,19.2802,679,5,
217.333,5.97321,8.29163,0.66,19.2802,679,5,
217.333,5.97351,8.29315,0.66,19.2802,679,5,
217.333,5.97351,8.29315,0.66,19.2802,679,5,
217.333,5.97321,8.29315,0.66,19.2802,679,5,
217.333,5.97412,8.29315,0.66,19.2802,679,5,
217.333,5.97107,8.2901,0.66,19.2802,679,5,
217.333,5.96893,8.29163,0.66,19.2802,679,5,
217.333,5.96893,8.29315,0.66,19.2802,679,5,
217.333,5.96863,8.2901,0.66,19.2802,679,5,
217.333,5.96863,8.25653,0.66,19.2802,679,5,
217.333,5.96893,8.24432,0.66,19.2802,679,5,
217.333,5.96893,8.2428,0.66,19.2802,679,5,
217.333,5.96893,8.24432,0.66,19.2802,679,5,
217.333,5.96832,8.24585,0.66,19.2802,679,5,
217.333,5.96436,8.23212,0.66,19.2802,679,5,
217.333,5.96375,8.22754,0.66,19.2802,679,5,
217.333,5.96283,8.22754,0.66,19.2802,679,5,
217.333,5.96405,8.23059,0.66,19.2802,679,5,
217.333,5.96344,8.23059,0.66,19.2802,679,5,
217.333,5.96375,8.23212,0.66,19.2802,679,5,
217.333,5.96405,8.22754,0.66,19.2802,679,5,
217.333,5.96405,8.22296,0.66,19.2802,679,5,
217.334,5.96344,8.21991,0.66,19.2802,679,5,
217.334,5.95886,8.21991,0.66,19.2802,679,5,
217.334,5.95886,8.22144,0.66,19.2802,679,5,
217.334,5.95825,8.21686,0.66,19.2802,679,5,
217.334,5.95886,8.22144,0.66,19.2802,679,5,
217.334,5.95856,8.21991,0.66,19.2802,679,5,
217.334,5.95856,8.21533,0.66,19.2802,679,5,
217.334,5.95947,8.20923,0.66,19.2802,679,5,
217.334,5.95978,8.20923,0.66,19.2802,679,5,
217.334,5.95917,8.20923,0.66,19.2802,679,5,
217.334,5.95551,8.20618,0.66,19.2802,679,5,
217.334,5.95459,8.20618,0.66,19.2802,679,5,
217.334,5.9549,8.20465,0.66,19.2802,679,5,
217.334,5.95337,8.2077,0.66,19.2802,679,5,
217.334,5.95428,8.20618,0.66,19.2802,679,5,
217.334,5.9549,8.2077,0.66,19.2802,679,5,
217.334,5.95337,8.20618,0.66,19.2802,679,5,
217.334,5.95398,8.2077,0.66,19.2802,679,5,
217.334,5.95428,8.20923,0.66,19.2802,679,5,
217.334,5.95367,8.20923,0.66,19.2802,679,5,
217.334,5.95215,8.1955,0.66,19.2802,679,5,
217.334,5.94879,8.19092,0.66,19.2802,679,5,
217.334,5.94971,8.19092,0.66,19.2802,679,5,
217.334,5.9491,8.19702,0.66,19.2802,679,5,
217.334,5.94971,8.19397,0.66,19.2802,679,5,
217.334,5.9491,8.1955,0.66,19.2802,679,5,
217.334,5.94879,8.1955,0.66,19.2802,679,5,
217.334,5.9494,8.19397,0.66,19.2802,679,5,
217.334,5.94879,8.19244,0.66,19.2802,679,5,
217.334,5.95001,8.19855,0.66,19.2802,679,5,
217.335,5.94971,8.1955,0.66,19.2802,679,5,
217.335,5.94635,8.19244,0.66,19.2802,679,5,
217.335,5.94391,8.19397,0.66,19.2802,679,5,
217.335,5.94391,8.1955,0.66,19.2802,679,5,
217.335,5.9436,8.19244,0.66,19.2802,679,5,
217.335,5.94482,8.1955,0.66,19.2802,679,5,
217.335,5.94421,8.19397,0.66,19.2802,679,5,
217.335,5.94452,8.1955,0.66,19.2802,679,5,
217.335,5.94452,8.1955,0.66,19.2802,679,5,
217.335,5.94482,8.19702,0.66,19.2802,679,5,
217.335,5.94482,8.1955,0.66,19.2802,679,5,
217.335,5.94452,8.1955,0.66,19.2802,679,5,
217.335,5.94421,8.18176,0.66,19.2802,679,5,
217.335,5.94452,8.18329,0.66,19.2802,679,5,
217.335,5.93964,8.18024,0.66,19.2802,679,5,
217.335,5.93994,8.18176,0.66,19.2802,679,5,
217.335,5.93964,8.18176,0.66,19.2802,680,5,
217.335,5.93903,8.18482,0.66,19.2802,680,5,
217.335,5.93964,8.18176,0.66,19.2802,680,5,
217.335,5.93964,8.17871,0.66,19.2802,680,5,
217.335,5.93964,8.18024,0.66,19.2802,680,5,
217.335,5.93964,8.18176,0.66,19.2802,680,5,
217.335,5.93903,8.18176,0.66,19.2802,680,5,
217.335,5.93903,8.18329,0.66,19.2802,680,5,
217.335,5.93933,8.18329,0.66,19.2802,680,5,
217.335,5.93933,8.18634,0.66,19.2802,680,5,
217.335,5.93933,8.18329,0.66,19.2802,680,5,
217.335,5.93933,8.18024,0.66,19.2802,680,5,
217.335,5.93384,8.18329,0.66,19.2802,680,5,
217.335,5.93445,8.18329,0.66,19.2802,680,5,
217.336,5.93414,8.18634,0.66,19.2802,680,5,
217.336,5.93384,8.18176,0.66,19.2802,680,5,
217.336,5.93414,8.18482,0.66,19.2802,680,5,
217.336,5.93475,8.18024,0.66,19.2802,680,5,
217.336,5.93475,8.18024,0.66,19.2802,680,5,
217.336,5.93414,8.18482,0.66,19.2802,680,5,
217.336,5.93384,8.17871,0.66,19.2802,680,5,
217.336,5.93445,8.18329,0.66,19.2802,680,5,
217.336,5.93414,8.18482,0.66,19.2802,680,5,
217.336,5.93445,8.18024,0.66,19.2802,680,5,
217.336,5.93414,8.18329,0.66,19.2802,680,5,
217.336,5.93445,8.18176,0.66,19.2802,680,5,
217.336,5.93414,8.18176,0,19.2802,680,5,
217.336,5.93475,8.18482,0,19.2802,680,5,
217.336,5.93445,8.17261,0,19.2802,680,5,
217.336,5.93445,8.17108,0,19.2802,680,5,
217.336,5.92957,8.17108,2.252,19.2802,680,5,
217.336,5.92957,8.16956,2.252,19.2802,680,5,
217.336,5.93018,8.17108,2.252,19.2802,680,5,
217.336,5.92926,8.16956,2.252,19.2802,680,5,
217.336,5.92987,8.16956,2.252,19.2802,680,5,
217.336,5.92987,8.17108,2.252,19.2802,680,5,
217.336,5.92926,8.16956,2.252,19.2802,680,5,
217.336,5.92957,8.16803,2.252,19.2802,680,5,
217.336,5.93018,8.17108,2.252,19.2802,680,5,
217.336,5.92865,8.16956,2.252,19.2802,680,5,
217.336,5.92926,8.16956,2.252,19.2802,680,5,
217.336,5.92926,8.16956,2.252,19.2802,680,5,
217.336,5.92926,8.16956,2.252,19.2802,680,5,
217.337,5.93018,8.16956,2.252,19.2802,680,5,
217.337,5.92987,8.17261,2.252,19.2802,680,5,
217.337,5.92926,8.16956,2.252,19.2802,680,5,
217.337,5.92896,8.16803,2.252,19.2802,680,5,
217.337,5.92987,8.16956,2.252,19.2802,680,5,
217.337,5.92957,8.17108,2.252,19.2802,680,5,
217.337,5.93048,8.16956,2.252,19.2802,680,5,
217.337,5.92987,8.17261,2.252,19.2802,680,5,
217.337,5.92957,8.16803,2.252,19.2802,680,5,
217.337,5.92926,8.17108,2.252,19.2802,680,5,
217.337,5.92987,8.16803,2.252,19.2802,680,5,
217.337,5.92957,8.16956,2.252,19.2802,680,5,
217.337,5.92926,8.15888,2.252,19.2802,680,5,
217.337,5.92987,8.15735,2.252,19.2802,680,5,
217.337,5.93018,8.15888,2.252,19.2802,680,5,
217.337,5.92987,8.15735,2.252,19.2802,680,5,
217.337,5.92987,8.15582,2.252,19.2802,680,5,
217.337,5.92957,8.15582,2.252,19.2802,680,5,
217.337,5.92987,8.15888,2.252,19.2802,680,5,
217.337,5.93018,8.15888,2.252,19.2802,680,5,
217.337,5.93018,8.1604,2.252,19.2802,680,5,
217.337,5.92896,8.15735,2.252,19.2802,680,5,
217.337,5.92926,8.15582,2.252,19.2802,680,5,
217.337,5.92957,8.15735,2.252,19.2802,680,5,
217.337,5.92926,8.15735,2.252,19.2802,680,5,
217.337,5.92926,8.15582,2.252,19.2802,680,5,
217.337,5.92987,8.15888,2.252,19.2802,680,5,
217.337,5.92896,8.15735,2.252,19.2802,680,5,
217.337,5.92926,8.15888,2.252,19.2802,680,5,
217.337,5.92896,8.15582,2.252,19.2802,680,5,
217.338,5.92987,8.15888,2.252,19.2802,680,5,
217.338,5.92896,8.15735,2.252,19.2802,680,5,
217.338,5.92926,8.15582,2.252,19.2802,680,5,
217.338,5.92926,8.1604,2.252,19.2802,680,5,
217.338,5.92926,8.15888,2.252,19.2802,680,5,
217.338,5.93201,8.15582,2.252,19.2802,680,5,
217.338,5.93475,8.14514,2.252,19.2802,680,5,
217.338,5.93384,8.14819,2.252,19.2802,680,5,
217.338,5.93414,8.14667,2.252,19.2802,680,5,
217.338,5.93384,8.14362,2.252,19.2802,680,5,
217.338,5.93414,8.14362,2.252,19.2802,680,5,
217.338,5.93445,8.14514,2.252,19.2802,680,5,
217.338,5.93414,8.14514,2.252,19.2802,680,5,
217.338,5.93475,8.14362,2.252,19.2802,680,5,
217.338,5.93506,8.14819,2.252,19.2802,680,5,
217.338,5.93475,8.14514,2.252,19.2802,680,5,
217.338,5.93414,8.14819,2.252,19.2802,680,5,
217.338,5.93414,8.14514,2.252,19.2802,680,5,
217.338,5.93414,8.14362,2.252,19.2802,680,5,
217.338,5.93475,8.14362,2.252,19.2802,680,5,
217.338,5.93506,8.14819,2.252,19.2802,680,5,
217.338,5.93872,8.14514,2.252,19.2802,680,5,
217.338,5.93933,8.14514,2.252,19.2802,680,5,
217.338,5.93903,8.14209,2.252,19.2802,680,5,
217.338,5.93964,8.14514,2.252,19.2802,680,5,
217.338,5.93994,8.14514,2.252,19.2802,680,5,
217.338,5.93933,8.14819,2.252,19.2802,680,5,
217.338,5.93933,8.13599,2.252,19.2802,680,5,
217.338,5.93964,8.13141,2.252,19.2802,680,5,
217.338,5.93872,8.13141,2.252,19.2802,680,5,
217.339,5.93933,8.13446,2.252,19.2802,680,5,
217.339,5.93994,8.13141,2.252,19.2802,680,5,
217.339,5.93933,8.13599,2.252,19.2802,680,5,
217.339,5.9436,8.13141,2.252,19.2802,680,5,
217.339,5.94482,8.13141,2.252,19.2802,680,5,
217.339,5.94391,8.13141,2.252,19.2802,680,5,
217.339,5.94452,8.13446,2.252,19.2802,680,5,
217.339,5.94452,8.13446,2.252,19.2802,680,5,
217.339,5.9436,8.13446,2.252,19.2802,680,5,
217.339,5.94421,8.13446,2.252,19.2802,680,5,
217.339,5.94421,8.13599,2.252,19.2802,680,5,
217.339,5.94421,8.13599,2.252,19.2802,680,5,
217.339,5.94452,8.13599,2.252,19.2802,680,5,
217.339,5.94879,8.13141,2.252,19.2802,680,5,
217.339,5.94879,8.13294,2.252,19.2802,680,5,
217.339,5.9491,8.13141,2.252,19.2802,680,5,
217.339,5.94879,8.13294,2.252,19.2802,680,5,
217.339,5.9491,8.13446,2.252,19.2802,680,5,
217.339,5.9494,8.12683,2.252,19.2802,680,5,
217.339,5.94879,8.12073,2.252,19.2802,680,5,
217.339,5.9491,8.12073,2.252,19.2802,680,5,
217.339,5.95398,8.1192,2.252,19.2802,680,5,
217.339,5.95428,8.12073,2.252,19.2802,680,5,
217.339,5.95428,8.1192,2.252,19.2802,680,5,
217.339,5.95459,8.12073,2.252,19.2802,680,5,
217.339,5.95367,8.12225,2.252,19.2802,680,5,
217.339,5.95398,8.12073,2.252,19.2802,680,5,
217.339,5.95367,8.12225,2.252,19.2802,680,5,
217.339,5.95367,8.1192,2.252,19.2802,680,5,
217.339,5.95795,8.12073,2.252,19.2802,680,5,
217.339,5.95886,8.12225,2.252,19.2802,680,5,
217.34,5.95917,8.1192,2.252,19.2802,680,5,
217.34,5.95856,8.12225,2.252,19.2802,680,5,
217.34,5.95947,8.12378,2.252,19.2802,680,5,
217.34,5.95917,8.12225,2.252,19.2802,680,5,
217.34,5.95917,8.12225,2.252,19.2802,680,5,
217.34,5.96252,8.12225,2.252,19.2802,680,5,
217.34,5.96436,8.12073,2.252,19.2802,680,5,
217.34,5.96436,8.10852,2.252,19.2802,680,5,
217.34,5.96405,8.1131,2.252,19.2802,680,5,
217.34,5.96344,8.10852,2.252,19.2802,680,5,
217.34,5.96375,8.11157,2.252,19.2802,680,5,
217.34,5.96405,8.107,2.252,19.2802,680,5,
217.34,5.96863,8.11157,2.252,19.2802,680,5,
217.34,5.96863,8.10852,2.252,19.2802,680,5,
217.34,5.96893,8.11157,2.252,19.2802,680,5,
217.34,5.96863,8.11005,2.252,19.2802,680,5,
217.34,5.96924,8.107,2.252,19.2802,680,5,
217.34,5.96863,8.11005,2.252,19.2802,680,5,
217.34,5.97473,8.11005,2.252,19.2802,680,5,
217.34,5.97443,8.11005,2.252,19.2802,680,5,
217.34,5.9729,8.11005,2.252,19.2802,680,5,
217.34,5.97351,8.10852,2.252,19.2802,680,5,
217.34,5.97382,8.11005,2.252,19.2802,680,5,
217.34,5.97839,8.10852,2.252,19.2802,680,5,
217.34,5.97809,8.11157,2.252,19.2802,680,5,
217.34,5.97839,8.10852,2.252,19.2802,680,5,
217.34,5.97961,8.11157,2.252,19.2802,680,5,
217.34,5.97839,8.09631,2.252,19.2802,680,5,
217.34,5.97931,8.09784,2.252,19.2802,680,5,
217.34,5.9845,8.09631,2.252,19.2802,680,5,
217.341,5.98389,8.09631,2.252,19.2802,680,5,
217.341,5.98389,8.09937,2.252,19.2802,680,5,
217.341,5.98419,8.09784,2.252,19.2802,680,5,
217.341,5.98328,8.09784,2.252,19.2802,680,5,
217.341,5.98846,8.09784,2.252,19.2802,680,5,
217.341,5.98816,8.09631,2.252,19.2802,680,5,
217.341,5.98846,8.09479,2.252,19.2802,680,5,
217.341,5.98907,8.09631,2.252,19.2802,680,5,
217.341,5.98877,8.09631,2.252,19.2802,680,5,
217.341,5.99243,8.09631,2.252,19.2802,680,5,
217.341,5.99304,8.09784,2.252,19.2802,680,5,
217.341,5.99304,8.09631,2.252,19.2802,680,5,
217.341,5.99365,8.09937,2.252,19.2802,680,5,
217.341,5.99304,8.09784,2.252,19.2802,680,5,
217.341,5.99792,8.09631,2.252,19.2802,680,5,
217.341,5.99854,8.09631,2.252,19.2802,680,5,
217.341,5.99854,8.09479,2.252,19.2802,680,5,
217.341,5.99762,8.08411,2.252,19.2802,680,5,
217.341,5.99762,8.08563,2.252,19.2802,680,5,
217.341,6.0025,8.08258,2.252,19.2802,680,5,
217.341,6.00311,8.08563,2.252,19.2802,680,5,
217.341,6.00311,8.08716,2.252,19.2802,680,5,
217.341,6.00342,8.08411,2.252,19.2802,680,5,
217.341,6.00281,8.08563,2.252,19.2802,680,5,
217.341,6.00769,8.08411,2.252,19.2802,680,5,
217.341,6.008,8.08411,2.252,19.2802,680,5,
217.341,6.008,8.08411,2.252,19.2802,680,5,
217.341,6.008,8.08563,2.252,19.2802,680,5,
217.341,6.01074,8.08869,2.252,19.2802,680,5,
217.341,6.01227,8.08411,2.252,19.2802,680,5,
217.342,6.01288,8.08869,2.252,19.2802,680,5,
217.342,6.01318,8.08258,2.252,19.2802,680,5,
217.342,6.01257,8.08563,2.252,19.2802,680,5,
217.342,6.01746,8.08411,2.252,19.2802,680,5,
217.342,6.01715,8.08258,2.252,19.2802,680,5,
217.342,6.01837,8.08411,2.252,19.2802,680,5,
217.342,6.01807,8.08258,2.252,19.2802,680,5,
217.342,6.01776,8.07495,2.252,19.2802,680,5,
217.342,6.02234,8.07648,2.252,19.2802,680,5,
217.342,6.02234,8.078,2.252,19.2802,680,5,
217.342,6.02264,8.07343,2.252,19.2802,680,5,
217.342,6.02264,8.07037,2.252,19.2802,680,5,
217.342,6.02753,8.0719,2.252,19.2802,680,5,
217.342,6.02692,8.07037,2.252,19.2802,680,5,
217.342,6.02722,8.07343,2.252,19.2802,680,5,
217.342,6.02753,8.07343,2.252,19.2802,680,5,
217.342,6.02997,8.06885,2.252,19.2802,680,5,
217.342,6.03271,8.07343,2.252,19.2802,680,5,
217.342,6.0321,8.07037,2.252,19.2802,680,5,
217.342,6.0318,8.07037,2.252,19.2802,680,5,
217.342,6.0321,8.06732,2.252,19.2802,680,5,
217.342,6.03699,8.07648,2.252,19.2802,680,5,
217.342,6.03821,8.07648,2.252,19.2802,680,5,
217.342,6.03729,8.07495,2.252,19.2802,680,5,
217.342,6.0376,8.0719,2.252,19.2802,680,5,
217.342,6.04248,8.07037,2.252,19.2802,680,5,
217.342,6.04279,8.0719,2.252,19.2802,680,5,
217.342,6.04218,8.06122,2.252,19.2802,680,5,
217.342,6.04187,8.05817,2.252,19.2802,680,5,
217.343,6.04675,8.05817,2.252,19.2802,680,5,
217.343,6.04706,8.05817,2.252,19.2802,680,5,
217.343,6.04736,8.05969,2.252,19.2802,680,5,
217.343,6.04736,8.05969,2.252,19.2802,680,5,
217.343,6.05255,8.05817,2.252,19.2802,680,5,
217.343,6.05255,8.05969,2.252,19.2802,680,5,
217.343,6.05194,8.05817,2.252,19.2802,680,5,
217.343,6.05194,8.05817,2.252,19.2802,680,5,
217.343,6.05682,8.05817,2.252,19.2802,680,5,
217.343,6.05713,8.05969,2.252,19.2802,680,5,
217.343,6.05682,8.06122,2.252,19.2802,680,5,
217.343,6.05682,8.05969,2.252,19.2802,680,5,
217.343,6.06201,8.05969,2.252,19.2802,680,5,
217.343,6.06171,8.05664,2.252,19.2802,680,5,
217.343,6.06201,8.05817,2.252,19.2802,680,5,
217.343,6.06201,8.05969,2.252,19.2802,680,5,
217.343,6.0672,8.06122,2.252,19.2802,680,5,
217.343,6.06659,8.06122,2.252,19.2802,680,5,
217.343,6.06659,8.05512,2.252,19.2802,680,5,
217.343,6.0672,8.04596,2.252,19.2802,680,5,
217.343,6.07208,8.04901,2.252,19.2802,680,5,
217.343,6.07178,8.04749,2.252,19.2802,680,5,
217.343,6.07147,8.04749,2.252,19.2802,680,5,
217.343,6.07208,8.04749,2.252,19.2802,680,5,
217.343,6.07666,8.04901,2.252,19.2802,680,5,
217.343,6.07727,8.04749,2.252,19.2802,680,5,
217.343,6.07727,8.05054,2.252,19.2802,680,5,
217.343,6.07605,8.04596,2.252,19.2802,680,5,
217.343,6.08124,8.05054,2.252,19.2802,680,5,
217.343,6.08093,8.04901,2.252,19.2802,680,5,
217.344,6.08185,8.04749,2.252,19.2802,680,5,
217.344,6.08124,8.04749,2.252,19.2802,680,5,
217.344,6.08582,8.04749,2.252,19.2802,680,5,
217.344,6.08643,8.04901,2.252,19.2802,680,5,
217.344,6.08612,8.04901,2.252,19.2802,680,5,
217.344,6.08643,8.04901,2.252,19.2802,680,5,
217.344,6.09039,8.04901,2.252,19.2802,680,5,
217.344,6.09131,8.04749,2.252,19.2802,680,5,
217.344,6.09161,8.04901,2.252,19.2802,680,5,
217.344,6.09131,8.03833,2.252,19.2802,680,5,
217.344,6.09558,8.03528,2.252,19.2802,680,5,
217.344,6.0968,8.03528,2.252,19.2802,680,5,
217.344,6.09619,8.03375,2.252,19.2802,680,5,
217.344,6.09619,8.03528,2.252,19.2802,680,5,
217.344,6.10046,8.03528,2.252,19.2802,680,5,
217.344,6.10077,8.03528,2.252,19.2802,680,5,
217.344,6.10046,8.03681,2.252,19.2802,680,5,
217.344,6.10046,8.03375,2.252,19.2802,680,5,
217.344,6.10596,8.03681,2.252,19.2802,680,5,
217.344,6.10596,8.03528,2.252,19.2802,680,5,
217.344,6.10565,8.03223,2.252,19.2802,680,5,
217.344,6.10596,8.03528,2.252,19.2802,680,5,
217.344,6.11053,8.03223,2.252,19.2802,680,5,
217.344,6.11053,8.03681,2.252,19.2802,680,5,
217.344,6.11084,8.03681,2.252,19.2802,680,5,
217.344,6.11084,8.03223,2.252,19.2802,680,5,
217.344,6.11542,8.03528,2.252,19.2802,680,5,
217.344,6.11572,8.03375,2.252,19.2802,680,5,
217.344,6.11603,8.03375,2.252,19.2802,680,5,
217.344,6.11603,8.02155,2.252,19.2802,680,5,
217.345,6.12,8.02155,2.252,19.2802,680,5,
217.345,6.12122,8.0246,2.252,19.2802,680,5,
217.345,6.12091,8.0246,2.252,19.2802,680,5,
217.345,6.12061,8.02307,2.252,19.2802,680,5,
217.345,6.12488,8.0246,2.252,19.2802,680,5,
217.345,6.12488,8.02002,2.252,19.2802,680,5,
217.345,6.12579,8.02002,2.252,19.2802,680,5,
217.345,6.12488,8.02612,2.252,19.2802,680,5,
217.345,6.12885,8.02307,2.252,19.2802,680,5,
217.345,6.13098,8.02155,2.252,19.2802,680,5,
217.345,6.13068,8.02612,2.252,19.2802,680,5,
217.345,6.13007,8.02155,2.252,19.2802,680,5,
217.345,6.13312,8.02002,2.252,19.2802,680,5,
217.345,6.13556,8.02307,2.252,19.2802,680,5,
217.345,6.13525,8.02307,2.252,19.2802,680,5,
217.345,6.13586,8.02307,2.252,19.2802,680,5,
217.345,6.13525,8.02002,2.252,19.2802,680,5,
217.345,6.13983,8.02155,2.252,19.2802,680,5,
217.345,6.13983,8.02307,2.252,19.2802,680,5,
217.345,6.14014,8.00934,2.252,19.2802,680,5,
217.345,6.14014,8.01239,2.252,19.2802,680,5,
217.345,6.14563,8.01239,2.252,19.2802,680,5,
217.345,6.14502,8.01087,2.252,19.2802,680,5,
217.345,6.14532,8.00781,2.252,19.2802,680,5,
217.345,6.14502,8.00934,2.252,19.2802,680,5,
217.345,6.14868,8.00934,2.252,19.2802,680,5,
217.345,6.1499,8.01087,2.252,19.2802,680,5,
217.345,6.15082,8.00934,2.252,19.2802,680,5,
217.345,6.1499,8.00934,2.252,19.2802,680,5,
217.345,6.15021,8.01239,2.252,19.2802,680,5,
217.345,6.15479,8.00629,2.252,19.2802,680,5,
217.346,6.15509,8.00934,2.252,19.2802,680,5,
217.346,6.15509,8.00781,2.252,19.2802,680,5,
217.346,6.15448,8.00781,2.252,19.2802,680,5,
217.346,6.15875,8.00781,2.252,19.2802,680,5,
217.346,6.15997,8.00934,2.252,19.2802,680,5,
217.346,6.15936,8.01087,2.252,19.2802,680,5,
217.346,6.15967,8.00781,2.252,19.2802,680,5,
217.346,6.16333,8.01087,2.252,19.2802,680,5,
217.346,6.16455,8.00781,2.252,19.2802,680,5,
217.346,6.16455,7.99561,2.252,19.2802,680,5,
217.346,6.16425,7.99561,2.252,19.2802,680,5,
217.346,6.16455,7.99713,2.252,19.2802,680,5,
217.346,6.16913,7.99561,2.252,19.2802,680,5,
217.346,6.16943,7.99866,2.252,19.2802,680,5,
217.346,6.17004,7.99866,2.252,19.2802,680,5,
217.346,6.16943,8.00018,2.252,19.2802,680,5,
217.346,6.17279,7.99866,2.252,19.2802,680,5,
217.346,6.17462,7.99866,2.252,19.2802,680,5,
217.346,6.17462,7.99866,2.252,19.2802,680,5,
217.346,6.17432,7.99866,2.252,19.2802,680,5,
217.346,6.17432,7.99561,2.252,19.2802,680,5,
217.346,6.1792,8.00171,2.252,19.2802,680,5,
217.346,6.1795,7.99713,2.252,19.2802,680,5,
217.346,6.17889,8.00171,2.252,19.2802,680,5,
217.346,6.1792,7.99408,2.252,19.2802,680,5,
217.346,6.18195,7.99866,2.252,19.2802,680,5,
217.346,6.18469,8.00171,2.252,19.2802,680,5,
217.346,6.18469,8.00171,2.252,19.2802,680,5,
217.346,6.185,7.99255,2.252,19.2802,680,5,
217.346,6.18469,7.98645,2.252,19.2802,680,5,
217.347,6.18958,7.98798,2.252,19.2802,680,5,
217.347,6.18958,7.98645,2.252,19.2802,680,5,
217.347,6.18927,7.98798,2.252,19.2802,680,5,
217.347,6.18866,7.98798,2.252,19.2802,680,5,
217.347,6.19232,7.98645,2.252,19.2802,680,5,
217.347,6.19415,7.98645,2.252,19.2802,680,5,
217.347,6.19385,7.98798,2.252,19.2802,680,5,
217.347,6.19354,7.9895,2.252,19.2802,680,5,
217.347,6.19446,7.98493,2.252,19.2802,680,5,
217.347,6.19934,7.98798,2.252,19.2802,680,5,
217.347,6.19904,7.98798,2.252,19.2802,680,5,
217.347,6.19904,7.9895,2.252,19.2802,680,5,
217.347,6.19965,7.98493,2.252,19.2802,680,5,
217.347,6.19904,7.98798,2.252,19.2802,680,5,
217.347,6.20422,7.98798,2.252,19.2802,680,5,
217.347,6.20361,7.98798,2.252,19.2802,680,5,
217.347,6.20331,7.98645,2.252,19.2802,680,5,
217.347,6.20392,7.98645,2.252,19.2802,680,5,
217.347,6.20392,7.98187,2.252,19.2802,680,5,
217.347,6.2088,7.97424,2.252,19.2802,680,5,
217.347,6.20911,7.97424,2.252,19.2802,680,5,
217.347,6.20941,7.97577,2.252,19.2802,680,5,
217.347,6.2088,7.97272,2.252,19.2802,680,5,
217.347,6.21124,7.97577,2.252,19.2802,680,5,
217.347,6.21399,7.97272,2.252,19.2802,680,5,
217.347,6.21338,7.97424,2.252,19.2802,680,5,
217.347,6.21338,7.97424,2.252,19.2802,680,5,
217.347,6.21399,7.97424,2.252,19.2802,680,5,
217.347,6.21643,7.97424,2.252,19.2802,680,5,
217.347,6.21826,7.97119,2.252,19.2802,680,5,
217.348,6.21857,7.97424,2.252,19.2802,680,5,
217.348,6.21857,7.97272,2.252,19.2802,680,5,
217.348,6.21857,7.97424,2.252,19.2802,680,5,
217.348,6.22162,7.97272,2.252,19.2802,680,5,
217.348,6.22375,7.97577,2.252,19.2802,680,5,
217.348,6.22345,7.97577,2.252,19.2802,680,5,
217.348,6.22314,7.97882,2.252,19.2802,680,5,
217.348,6.22345,7.97424,2.252,19.2802,680,5,
217.348,6.22681,7.96509,2.252,19.2802,680,5,
217.348,6.22894,7.96051,2.252,19.2802,680,5,
217.348,6.22864,7.96204,2.252,19.2802,680,5,
217.348,6.22864,7.96204,2.252,19.2802,680,5,
217.348,6.22833,7.96051,2.252,19.2802,680,5,
217.348,6.22864,7.95899,2.252,19.2802,680,5,
217.348,6.23291,7.96051,2.252,19.2802,680,5,
217.348,6.23291,7.96204,2.252,19.2802,680,5,
217.348,6.23291,7.96051,2.252,19.2802,680,5,
217.348,6.23322,7.95899,2.252,19.2802,680,5,
217.348,6.23352,7.96204,2.252,19.2802,680,5,
217.348,6.23718,7.96204,2.252,19.2802,680,5,
217.348,6.2381,7.96051,2.252,19.2802,680,5,
217.348,6.2381,7.96051,2.252,19.2802,680,5,
217.348,6.2381,7.96356,2.252,19.2802,680,5,
217.348,6.23901,7.96204,2.252,19.2802,680,5,
217.348,6.23749,7.95899,2.252,19.2802,680,5,
217.348,6.24298,7.96051,2.252,19.2802,680,5,
217.348,6.24329,7.96204,2.252,19.2802,680,5,
217.348,6.24298,7.96204,2.252,19.2802,680,5,
217.348,6.24237,7.95899,2.252,19.2802,680,5,
217.349,6.24298,7.9483,2.252,19.2802,680,5,
217.349,6.24603,7.9483,2.252,19.2802,680,5,
217.349,6.24847,7.94983,2.252,19.2802,680,5,
217.349,6.24786,7.95288,2.252,19.2802,680,5,
217.349,6.24786,7.94678,2.252,19.2802,680,5,
217.349,6.24817,7.94983,2.252,19.2802,680,5,
217.349,6.24786,7.94983,2.252,19.2802,680,5,
217.349,6.25214,7.94678,2.252,19.2802,680,5,
217.349,6.25305,7.94983,2.252,19.8807,680,5,
217.349,6.25305,7.9483,2.252,19.8807,680,5,
217.349,6.25244,7.94678,2.252,19.8807,680,5,
217.349,6.25244,7.9483,2.252,19.8807,680,5,
217.349,6.25244,7.94678,2.252,19.8807,680,5,
217.349,6.25702,7.95136,2.252,19.8807,680,5,
217.349,6.25702,7.94983,2.252,19.8807,680,5,
217.349,6.25854,7.9483,2.252,19.8807,680,5,
217.349,6.25763,7.9483,2.252,19.8807,680,5,
217.349,6.25793,7.94983,2.252,19.8807,680,5,
217.349,6.25763,7.9483,2.252,19.8807,680,5,
217.349,6.25763,7.94373,2.252,19.8807,680,5,
217.349,6.26221,7.93762,2.252,19.8807,680,5,
217.349,6.2619,7.93152,2.252,19.8807,680,5,
217.349,6.26312,7.94067,2.252,19.8807,680,5,
217.349,6.2619,7.93457,2.252,19.8807,680,5,
217.349,6.26312,7.93762,2.252,19.8807,680,5,
217.349,6.2619,7.93457,2.252,19.8807,680,5,
217.349,6.2674,7.93762,2.252,19.8807,680,5,
217.349,6.2674,7.93457,2.252,19.8807,680,5,
217.349,6.2674,7.93762,2.252,19.8807,680,5,
217.349,6.2674,7.93457,2.252,19.8807,680,5,
217.35,6.26801,7.9361,2.252,19.8807,680,5,
217.35,6.2674,7.9361,2.252,19.8807,680,5,
217.35,6.26709,7.93762,2.252,19.8807,680,5,
217.35,6.27197,7.93915,2.252,19.8807,680,5,
217.35,6.27258,7.93762,2.252,19.8807,680,5,
217.35,6.27258,7.93457,2.252,19.8807,680,5,
217.35,6.27228,7.93457,2.252,19.8807,680,5,
217.35,6.27258,7.9361,2.252,19.8807,680,5,
217.35,6.27258,7.93915,2.252,19.8807,680,5,
217.35,6.27167,7.92694,2.252,19.8807,680,5,
217.35,6.27716,7.92542,2.252,19.8807,680,5,
217.35,6.27747,7.92694,2.252,19.8807,680,5,
217.35,6.27747,7.92236,2.252,19.8807,680,5,
217.35,6.27716,7.92542,2.252,19.8807,680,5,
217.35,6.27686,7.92542,2.252,19.8807,680,5,
217.35,6.27777,7.92389,2.252,19.8807,680,5,
217.35,6.27686,7.92694,2.252,19.8807,680,5,
217.35,6.27747,7.92542,2.252,19.8807,680,5,
217.35,6.28174,7.92542,2.252,19.8807,680,5,
217.35,6.28204,7.92694,2.252,19.8807,680,5,
217.35,6.28204,7.92236,2.252,19.8807,680,5,
217.35,6.28235,7.92542,2.252,19.8807,680,5,
217.35,6.28235,7.92542,2.252,19.8807,680,5,
217.35,6.28296,7.92542,2.252,19.8807,680,5,
217.35,6.28204,7.92542,2.252,19.8807,680,5,
217.35,6.28296,7.92389,2.252,19.8807,680,5,
217.35,6.28693,7.91016,2.252,19.8807,680,5,
217.35,6.28754,7.91473,2.252,19.8807,680,5,
217.35,6.28815,7.91473,2.252,19.8807,680,5,
217.35,6.28693,7.91321,2.252,19.8807,680,5,
217.351,6.28723,7.91016,2.252,19.8807,680,5,
217.351,6.28784,7.91016,2.252,19.8807,680,5,
217.351,6.28723,7.91016,2.252,19.8807,680,5,
217.351,6.28723,7.91168,2.252,19.8807,680,5,
217.351,6.28693,7.91473,2.252,19.8807,680,5,
217.351,6.29211,7.91321,2.252,19.8807,680,5,
217.351,6.29242,7.91016,2.252,19.8807,680,5,
217.351,6.29181,7.91321,2.252,19.8807,680,5,
217.351,6.2912,7.91168,2.252,19.8807,680,5,
217.351,6.29242,7.91321,2.252,19.8807,680,5,
217.351,6.29272,7.91168,2.252,19.8807,680,5,
217.351,6.29181,7.90253,2.252,19.8807,680,5,
217.351,6.29272,7.901,2.252,19.8807,680,5,
217.351,6.29242,7.901,2.252,19.8807,680,5,
217.351,6.297,7.89948,2.252,19.8807,680,5,
217.351,6.29761,7.901,2.252,19.8807,680,5,
217.351,6.29791,7.89948,2.252,19.8807,680,5,
217.351,6.29669,7.901,2.252,19.8807,680,5,
217.351,6.29669,7.901,2.252,19.8807,680,5,
217.351,6.297,7.901,2.252,19.8807,680,5,
217.351,6.29669,7.901,2.252,19.8807,680,5,
217.351,6.297,7.901,2.252,19.8807,680,5,
217.351,6.29639,7.89948,2.252,19.8807,680,5,
217.351,6.297,7.901,2.252,19.8807,680,5,
217.351,6.29944,7.89948,2.252,19.8807,680,5,
217.351,6.30219,7.901,2.252,19.8807,680,5,
217.351,6.30188,7.89642,2.252,19.8807,680,5,
217.351,6.30219,7.88879,2.252,19.8807,680,5,
217.351,6.30188,7.88879,2.252,19.8807,680,5,
217.351,6.30188,7.88727,2.252,19.8807,680,5,
217.351,6.30219,7.88574,2.252,19.8807,680,5,
217.352,6.30188,7.88879,2.252,19.8807,680,5,
217.352,6.30157,7.88879,2.252,19.8807,680,5,
217.352,6.30249,7.89032,2.252,19.8807,680,5,
217.352,6.3028,7.88574,2.252,19.8807,680,5,
217.352,6.3028,7.88879,2.252,19.8807,680,5,
217.352,6.30188,7.88879,2.252,19.8807,680,5,
217.352,6.30676,7.88727,2.252,19.8807,680,5,
217.352,6.30676,7.88574,2.252,19.8807,680,5,
217.352,6.30676,7.89032,2.252,19.8807,680,5,
217.352,6.30707,7.88879,2.252,19.8807,680,5,
217.352,6.30737,7.88727,2.252,19.8807,680,5,
217.352,6.30737,7.88727,2.252,19.8807,680,5,
217.352,6.30676,7.88269,2.252,19.8807,680,5,
217.352,6.30676,7.87659,2.252,19.8807,680,5,
217.352,6.30737,7.87659,2.252,19.8807,680,5,
217.352,6.30646,7.87811,2.252,19.8807,680,5,
217.352,6.30707,7.87354,2.252,19.8807,680,5,
217.352,6.30707,7.87354,2.252,19.8807,680,5,
217.352,6.30676,7.87659,2.252,19.8807,680,5,
217.352,6.30707,7.87811,2.252,19.8807,680,5,
217.352,6.30676,7.87659,2.252,19.8807,680,5,
217.352,6.30981,7.87659,2.252,19.8807,680,5,
217.352,6.31226,7.87506,2.252,19.8807,680,5,
217.352,6.31165,7.87201,2.252,19.8807,680,5,
217.352,6.31226,7.87354,2.252,19.8807,680,5,
217.352,6.31195,7.87354,2.252,19.8807,680,5,
217.352,6.31134,7.87659,2.252,19.8807,680,5,
217.352,6.31165,7.87811,2.252,19.8807,680,5,
217.352,6.31195,7.87506,2.252,19.8807,680,5,
217.352,6.31195,7.87506,2.252,19.8807,680,5,
217.353,6.31226,7.87201,2.252,19.8807,680,5,
217.353,6.31134,7.86591,2.252,19.8807,680,5,
217.353,6.31165,7.86285,2.252,19.8807,680,5,
217.353,6.31195,7.86591,2.252,19.8807,680,5,
217.353,6.31256,7.86438,2.252,19.8807,680,5,
217.353,6.31195,7.8598,2.252,19.8807,680,5,
217.353,6.31195,7.86285,2.252,19.8807,680,5,
217.353,6.31134,7.8598,2.252,19.8807,680,5,
217.353,6.31165,7.86591,2.252,19.8807,680,5,
217.353,6.31165,7.86133,2.252,19.8807,680,5,
217.353,6.31165,7.86591,2.252,19.8807,680,5,
217.353,6.31195,7.86438,2.252,19.8807,680,5,
217.353,6.31104,7.86438,2.252,19.8807,680,5,
217.353,6.31134,7.86133,2.252,19.8807,680,5,
217.353,6.31226,7.86285,2.252,19.8807,680,5,
217.353,6.31195,7.86591,2.252,19.8807,680,5,
217.353,6.31165,7.86591,2.252,19.8807,680,5,
217.353,6.31195,7.86438,2.252,19.8807,680,5,
217.353,6.31134,7.86133,2.252,19.8807,680,5,
217.353,6.31134,7.86133,2.252,19.8807,680,5,
217.353,6.31165,7.85217,2.252,19.8807,680,5,
217.353,6.31226,7.85065,2.252,19.8807,680,5,
217.353,6.31134,7.85217,2.252,19.8807,680,5,
217.353,6.31134,7.85217,2.252,19.8807,680,5,
217.353,6.31134,7.84912,2.252,19.8807,680,5,
217.353,6.31134,7.8537,2.252,19.8807,680,5,
217.353,6.31165,7.8537,2.252,19.8807,680,5,
217.353,6.31134,7.85065,2.252,19.8807,680,5,
217.353,6.31165,7.85217,2.252,19.8807,680,5,
217.353,6.31104,7.85217,2.252,19.8807,680,5,
217.354,6.31195,7.85675,2.252,19.8807,680,5,
217.354,6.31104,7.85217,2.252,19.8807,680,5,
217.354,6.31165,7.85065,2.252,19.8807,680,5,
217.354,6.31195,7.85065,2.252,19.8807,680,5,
217.354,6.31165,7.85065,2.252,19.8807,680,5,
217.354,6.31104,7.85523,2.252,19.8807,680,5,
217.354,6.31134,7.85523,2.252,19.8807,680,5,
217.354,6.31165,7.85523,2.252,19.8807,680,5,
217.354,6.31042,7.8537,2.252,19.8807,680,5,
217.354,6.31165,7.8537,2.252,19.8807,680,5,
217.354,6.31226,7.83691,2.252,19.8807,680,5,
217.354,6.31195,7.83997,2.252,19.8807,680,5,
217.354,6.31226,7.84302,2.252,19.8807,680,5,
217.354,6.31165,7.83997,2.252,19.8807,680,5,
217.354,6.31104,7.83691,2.252,19.8807,680,5,
217.354,6.31134,7.83997,2.252,19.8807,680,5,
217.354,6.31134,7.83844,2.252,19.8807,680,5,
217.354,6.31165,7.84149,2.252,19.8807,680,5,
217.354,6.31165,7.83997,2.252,19.8807,680,5,
217.354,6.31073,7.84302,2.252,19.8807,680,5,
217.354,6.31165,7.83997,2.252,19.8807,680,5,
217.354,6.31134,7.84149,2.252,19.8807,680,5,
217.354,6.31134,7.83844,2.252,19.8807,680,5,
217.354,6.31073,7.84149,2.252,19.8807,680,5,
217.354,6.31165,7.83844,2.252,19.8807,680,5,
217.354,6.31165,7.84149,2.252,19.8807,680,5,
217.354,6.31195,7.83844,2.252,19.8807,680,5,
217.354,6.31134,7.83844,2.252,19.8807,680,5,
217.354,6.31134,7.84149,2.252,19.8807,680,5,
217.355,6.31165,7.83691,2.252,19.8807,680,5,
217.355,6.31165,7.82776,2.252,19.8807,680,5,
217.355,6.30646,7.82776,0.474,19.8807,680,5,
217.355,6.30615,7.82623,0.474,19.8807,680,5,
217.355,6.30676,7.82929,0.474,19.8807,680,5,
217.355,6.30615,7.82776,0.474,19.8807,680,5,
217.355,6.30707,7.82776,0.474,19.8807,680,5,
217.355,6.30646,7.82929,0.474,19.8807,680,5,
217.355,6.30646,7.82776,0.474,19.8807,680,5,
217.355,6.30615,7.82929,0.474,19.8807,680,5,
217.355,6.30615,7.82776,0.474,19.8807,680,5,
217.355,6.30676,7.82929,0.474,19.8807,680,5,
217.355,6.30707,7.82776,0.474,19.8807,680,5,
217.355,6.30676,7.82929,0.474,19.8807,680,5,
217.355,6.30646,7.83081,0.474,19.8807,680,5,
217.355,6.30646,7.82776,0.474,19.8807,680,5,
217.355,6.30707,7.82623,0.474,19.8807,680,5,
217.355,6.30707,7.82929,0.474,19.8807,680,5,
217.355,6.30646,7.83081,0.474,19.8807,680,5,
217.355,6.30646,7.82623,0.474,19.8807,680,5,
217.355,6.30646,7.82776,0.474,19.8807,680,5,
217.355,6.3028,7.82166,0.474,19.8807,680,5,
217.355,6.30157,7.81403,0.474,19.8807,680,5,
217.355,6.30157,7.81708,0.474,19.8807,680,5,
217.355,6.30219,7.81403,0.474,19.8807,680,5,
217.355,6.30188,7.81403,0.474,19.8807,680,5,
217.355,6.30127,7.8186,0.474,19.8807,680,5,
217.355,6.30157,7.81403,0.474,19.8807,680,5,
217.355,6.30157,7.81555,0.474,19.8807,680,5,
217.355,6.30096,7.81555,0.474,19.8807,680,5,
217.356,6.30188,7.8125,0.474,19.8807,680,5,
217.356,6.30157,7.81403,0.474,19.8807,680,5,
217.356,6.30219,7.81403,0.474,19.8807,680,5,
217.356,6.30249,7.81403,0.474,19.8807,680,5,
217.356,6.30188,7.81555,0.474,19.8807,680,5,
217.356,6.30127,7.81403,0.474,19.8807,680,5,
217.356,6.29669,7.81403,0.474,19.8807,680,5,
217.356,6.29669,7.81708,0.474,19.8807,680,5,
217.356,6.29669,7.81555,0.474,19.8807,680,5,
217.356,6.2973,7.8186,0.474,19.8807,680,5,
217.356,6.29669,7.81555,0.474,19.8807,680,5,
217.356,6.2973,7.81403,0.474,19.8807,680,5,
217.356,6.29669,7.81708,0.474,19.8807,680,5,
217.356,6.297,7.80029,0.474,19.8807,680,5,
217.356,6.29669,7.80487,0.474,19.8807,680,5,
217.356,6.297,7.80029,0.474,19.8807,680,5,
217.356,6.29669,7.80487,0.474,19.8807,680,5,
217.356,6.29669,7.80182,0.474,19.8807,680,5,
217.356,6.297,7.80487,0.474,19.8807,680,5,
217.356,6.29181,7.80182,0.474,19.8807,680,5,
217.356,6.29181,7.80487,0.474,19.8807,680,5,
217.356,6.29211,7.80335,0.474,19.8807,680,5,
217.356,6.29181,7.80335,0.474,19.8807,680,5,
217.356,6.2912,7.80487,0.474,19.8807,680,5,
217.356,6.29242,7.80182,0.474,19.8807,680,5,
217.356,6.29181,7.80487,0.474,19.8807,680,5,
217.356,6.29181,7.80182,0.474,19.8807,680,5,
217.356,6.29272,7.80487,0.474,19.8807,680,5,
217.356,6.2915,7.80487,0.474,19.8807,680,5,
217.356,6.29181,7.80335,0.474,19.8807,680,5,
217.357,6.2912,7.80335,0.474,19.8807,680,5,
217.357,6.2915,7.80335,0.474,19.8807,680,5,
217.357,6.28662,7.80335,0.474,19.8807,680,5,
217.357,6.28754,7.79114,0.474,19.8807,680,5,
217.357,6.28662,7.79266,0.474,19.8807,680,5,
217.357,6.28723,7.79114,0.474,19.8807,680,5,
217.357,6.28723,7.79419,0.474,19.8807,680,5,
217.357,6.28693,7.79114,0.474,19.8807,680,5,
217.357,6.28662,7.78961,0.474,19.8807,680,5,
217.357,6.28723,7.78809,0.474,19.8807,680,5,
217.357,6.28662,7.79114,0.474,19.8807,680,5,
217.357,6.28693,7.79114,0.474,19.8807,680,5,
217.357,6.28693,7.78809,0.474,19.8807,680,5,
217.357,6.28235,7.79114,0.474,19.8807,680,5,
217.357,6.28204,7.78961,0.474,19.8807,680,5,
217.357,6.28204,7.78961,0.474,19.8807,680,5,
217.357,6.28265,7.79114,0.474,19.8807,680,5,
217.357,6.28204,7.78656,0.474,19.8807,680,5,
217.357,6.28296,7.78961,0.474,19.8807,680,5,
217.357,6.28265,7.78961,0.474,19.8807,680,5,
217.357,6.28235,7.79114,0.474,19.8807,680,5,
217.357,6.28174,7.79114,0.474,19.8807,680,5,
217.357,6.28204,7.79114,0.474,19.8807,680,5,
217.357,6.28235,7.79572,0.474,19.8807,680,5,
217.357,6.28204,7.77893,0.474,19.8807,680,5,
217.357,6.27716,7.77588,0.474,19.8807,680,5,
217.357,6.27747,7.78046,0.474,19.8807,680,5,
217.357,6.27686,7.77893,0.474,19.8807,680,5,
217.357,6.27777,7.77893,0.474,19.8807,680,5,
217.357,6.27747,7.77893,0.474,19.8807,680,5,
217.357,6.27716,7.77893,0.474,19.8807,680,5,
217.358,6.27686,7.77741,0.474,19.8807,680,5,
217.358,6.27686,7.77741,0.474,19.8807,680,5,
217.358,6.27747,7.78046,0.474,19.8807,680,5,
217.358,6.27655,7.77741,0.474,19.8807,680,5,
217.358,6.27747,7.77741,0.474,19.8807,680,5,
217.358,6.27319,7.78046,0.474,19.8807,680,5,
217.358,6.27289,7.78046,0.474,19.8807,680,5,
217.358,6.27197,7.77741,0.474,19.8807,680,5,
217.358,6.27258,7.77741,0.474,19.8807,680,5,
217.358,6.27319,7.77893,0.474,19.8807,680,5,
217.358,6.27197,7.78046,0.474,19.8807,680,5,
217.358,6.27258,7.77893,0.474,19.8807,680,5,
217.358,6.27228,7.78198,0.474,19.8807,680,5,
217.358,6.27197,7.78046,0.474,19.8807,680,5,
217.358,6.27228,7.76367,0.474,19.8807,680,5,
217.358,6.27258,7.76672,0.474,19.8807,680,5,
217.358,6.27258,7.7652,0.474,19.8807,680,5,
217.358,6.26678,7.7652,0.474,19.8807,680,5,
217.358,6.2677,7.76672,0.474,19.8807,680,5,
217.358,6.2674,7.76672,0.474,19.8807,680,5,
217.358,6.2674,7.76978,0.474,19.8807,680,5,
217.358,6.2677,7.7652,0.474,19.8807,680,5,
217.358,6.26678,7.76672,0.474,19.8807,680,5,
217.358,6.2674,7.7713,0.474,19.8807,680,5,
217.358,6.2674,7.76672,0.474,19.8807,680,5,
217.358,6.2677,7.76672,0.474,19.8807,680,5,
217.358,6.2677,7.76672,0.474,19.8807,680,5,
217.358,6.2677,7.76672,0.474,19.8807,680,5,
217.358,6.26312,7.7652,0.474,19.8807,680,5,
217.358,6.26221,7.76672,0.474,19.8807,680,5,
217.359,6.26221,7.76825,0.474,19.8807,680,5,
217.359,6.26251,7.76825,0.474,19.8807,680,5,
217.359,6.26251,7.76825,0.474,19.8807,680,5,
217.359,6.26312,7.76825,0.474,19.8807,680,5,
217.359,6.26251,7.76672,0.474,19.8807,680,5,
217.359,6.26282,7.75757,0.474,19.8807,680,5,
217.359,6.26282,7.75299,0.474,19.8807,680,5,
217.359,6.26282,7.74994,0.474,19.8807,680,5,
217.359,6.26221,7.75452,0.474,19.8807,680,5,
217.359,6.26251,7.75147,0.474,19.8807,680,5,
217.359,6.25763,7.75299,0.474,19.8807,680,5,
217.359,6.25854,7.75452,0.474,19.8807,680,5,
217.359,6.25763,7.75299,0.474,19.8807,680,5,
217.359,6.25702,7.75604,0.474,19.8807,680,5,
217.359,6.25793,7.75299,0.474,19.8807,680,5,
217.359,6.25732,7.75147,0.474,19.8807,680,5,
217.359,6.25763,7.75757,0.474,19.8807,680,5,
217.359,6.25732,7.75452,0.474,19.8807,680,5,
217.359,6.25702,7.75604,0.474,19.8807,680,5,
217.359,6.25763,7.75452,0.474,19.8807,680,5,
217.359,6.25732,7.75452,0.474,19.8807,680,5,
217.359,6.25336,7.75604,0.474,19.8807,680,5,
217.359,6.25275,7.75452,0.474,19.8807,680,5,
217.359,6.25275,7.75299,0.474,19.8807,680,5,
217.359,6.25275,7.75604,0.474,19.8807,680,5,
217.359,6.25244,7.75147,0.474,19.8807,680,5,
217.359,6.25336,7.75147,0.474,19.8807,680,5,
217.359,6.25275,7.74384,0.474,19.8807,680,5,
217.359,6.25336,7.74231,0.474,19.8807,680,5,
217.359,6.25244,7.74078,0.474,19.8807,680,5,
217.36,6.25275,7.74231,0.474,19.8807,680,5,
217.36,6.25336,7.73773,0.474,19.8807,680,5,
217.36,6.25275,7.73926,0.474,19.8807,680,5,
217.36,6.24817,7.74384,0.474,19.8807,680,5,
217.36,6.24817,7.74078,0.474,19.8807,680,5,
217.36,6.24725,7.74078,0.474,19.8807,680,5,
217.36,6.24756,7.74078,0.474,19.8807,680,5,
217.36,6.24786,7.73926,0.474,19.8807,680,5,
217.36,6.24786,7.74078,0.474,19.8807,680,5,
217.36,6.24817,7.74078,0.474,19.8807,680,5,
217.36,6.24786,7.74231,0.474,19.8807,680,5,
217.36,6.24817,7.74078,0.474,19.8807,680,5,
217.36,6.24817,7.74078,0.474,19.8807,680,5,
217.36,6.24756,7.74078,0.474,19.8807,680,5,
217.36,6.24481,7.74231,0.474,19.8807,680,5,
217.36,6.24329,7.74231,0.474,19.8807,680,5,
217.36,6.24298,7.74231,0.474,19.8807,680,5,
217.36,6.24329,7.73926,0.474,19.8807,680,5,
217.36,6.24298,7.72858,0.474,19.8807,680,5,
217.36,6.2439,7.72858,0.474,19.8807,680,5,
217.36,6.24329,7.72858,0.474,19.8807,680,5,
217.36,6.24207,7.72858,0.474,19.8807,680,5,
217.36,6.24237,7.7301,0.474,19.8807,680,5,
217.36,6.24329,7.72705,0.474,19.8807,680,5,
217.36,6.24298,7.73163,0.474,19.8807,680,5,
217.36,6.24329,7.73163,0.474,19.8807,680,5,
217.36,6.2381,7.72705,0.474,19.8807,680,5,
217.36,6.2381,7.72858,0.474,19.8807,680,5,
217.36,6.23779,7.72858,0.474,19.8807,680,5,
217.361,6.2384,7.72858,0.474,19.8807,680,5,
217.361,6.2381,7.7301,0.474,19.8807,680,5,
217.361,6.2384,7.72858,0.474,19.8807,680,5,
217.361,6.2384,7.7301,0.474,19.8807,680,5,
217.361,6.2381,7.72858,0.474,19.8807,680,5,
217.361,6.2381,7.73316,0.474,19.8807,680,5,
217.361,6.2381,7.73468,0.474,19.8807,680,5,
217.361,6.23749,7.72858,0.474,19.8807,680,5,
217.361,6.23779,7.7301,0.474,19.8807,680,5,
217.361,6.23383,7.73163,0.474,19.8807,680,5,
217.361,6.23352,7.71637,0.474,19.8807,680,5,
217.361,6.23352,7.71637,0.474,19.8807,680,5,
217.361,6.23322,7.7179,0.474,19.8807,680,5,
217.361,6.23322,7.71637,0.474,19.8807,680,5,
217.361,6.23413,7.7179,0.474,19.8807,680,5,
217.361,6.23352,7.72095,0.474,19.8807,680,5,
217.361,6.23291,7.71637,0.474,19.8807,680,5,
217.361,6.23322,7.7179,0.474,19.8807,680,5,
217.361,6.23322,7.7179,0.474,19.8807,680,5,
217.361,6.23291,7.7179,0.474,19.8807,680,5,
217.361,6.23291,7.71484,0.474,19.8807,680,5,
217.361,6.22864,7.72095,0.474,19.8807,680,5,
217.361,6.22833,7.7179,0.474,19.8807,680,5,
217.361,6.22772,7.71637,0.474,19.8807,680,5,
217.361,6.22833,7.71637,0.474,19.8807,680,5,
217.361,6.22833,7.7179,0.474,19.8807,680,5,
217.361,6.22833,7.71942,0.474,19.8807,680,5,
217.361,6.22833,7.7179,0.474,19.8807,680,5,
217.361,6.22803,7.7179,0.474,19.8807,680,5,
217.361,6.22833,7.71637,0.474,19.8807,680,5,
217.362,6.22864,7.7179,0.474,19.8807,680,5,
217.362,6.22833,7.71179,0.474,19.8807,680,5,
217.362,6.22803,7.70569,0.474,19.8807,680,5,
217.362,6.22864,7.70569,0.474,19.8807,680,5,
217.362,6.22345,7.70569,0.474,19.8807,680,5,
217.362,6.22314,7.70416,0.474,19.8807,680,5,
217.362,6.22314,7.70569,0.474,19.8807,680,5,
217.362,6.22253,7.70569,0.474,19.8807,680,5,
217.362,6.22345,7.70416,0.474,19.8807,680,5,
217.362,6.22345,7.70416,0.474,19.8807,680,5,
217.362,6.22406,7.70569,0.474,19.8807,680,5,
217.362,6.22437,7.70264,0.474,19.8807,680,5,
217.362,6.22345,7.70569,0.474,19.8807,680,5,
217.362,6.22406,7.70722,0.474,19.8807,680,5,
217.362,6.22375,7.70416,0.474,19.8807,680,5,
217.362,6.22314,7.70722,0.474,19.8807,680,5,
217.362,6.22131,7.70264,0.474,19.8807,680,5,
217.362,6.21887,7.70416,0.474,19.8807,680,5,
217.362,6.21857,7.70569,0.474,19.8807,680,5,
217.362,6.21857,7.70569,0.474,19.8807,680,5,
217.362,6.21887,7.70569,0.474,19.8807,680,5,
217.362,6.21857,7.70569,0.474,19.8807,680,5,
217.362,6.21857,7.70416,0.474,19.8807,680,5,
217.362,6.21857,7.69348,0.474,19.8807,680,5,
217.362,6.21887,7.69196,0.474,19.8807,680,5,
217.362,6.21887,7.69348,0.474,19.8807,680,5,
217.362,6.21857,7.69348,0.474,19.8807,680,5,
217.362,6.21887,7.69348,0.474,19.8807,680,5,
217.362,6.21857,7.69196,0.474,19.8807,680,5,
217.362,6.21307,7.69653,0.474,19.8807,680,5,
217.363,6.21429,7.69196,0.474,19.8807,680,5,
217.363,6.21368,7.69348,0.474,19.8807,680,5,
217.363,6.21429,7.69806,0.474,19.8807,680,5,
217.363,6.21399,7.69501,0.474,19.8807,680,5,
217.363,6.21399,7.69348,0.474,19.8807,680,5,
217.363,6.21368,7.69348,0.474,19.8807,680,5,
217.363,6.21429,7.69348,0.474,19.8807,680,5,
217.363,6.21399,7.69348,0.474,19.8807,680,5,
217.363,6.21338,7.69348,0.474,19.8807,680,5,
217.363,6.21338,7.69348,0.474,19.8807,680,5,
217.363,6.21429,7.69348,0.474,19.8807,680,5,
217.363,6.20972,7.69501,0.474,19.8807,680,5,
217.363,6.20911,7.69348,0.474,19.8807,680,5,
217.363,6.2088,7.69043,0.474,19.8807,680,5,
217.363,6.20911,7.69196,0.474,19.8807,680,5,
217.363,6.20911,7.67975,0.474,19.8807,680,5,
217.363,6.20911,7.68433,0.474,19.8807,680,5,
217.363,6.20972,7.67822,0.474,19.8807,680,5,
217.363,6.2088,7.67975,0.474,19.8807,680,5,
217.363,6.2088,7.6828,0.474,19.8807,680,5,
217.363,6.20911,7.67822,0.474,19.8807,680,5,
217.363,6.20911,7.68433,0.474,19.8807,680,5,
217.363,6.20422,7.68128,0.474,19.8807,680,5,
217.363,6.20422,7.68128,0.474,19.8807,680,5,
217.363,6.20392,7.68128,0.474,19.8807,680,5,
217.363,6.20422,7.68128,0.474,19.8807,680,5,
217.363,6.20392,7.68585,0.474,19.8807,680,5,
217.363,6.20392,7.6767,0.474,19.8807,680,5,
217.363,6.20422,7.67975,0.474,19.8807,680,5,
217.363,6.20483,7.67975,0.474,19.8807,680,5,
217.363,6.20483,7.68128,0.474,19.8807,680,5,
217.364,6.20422,7.68128,0.474,19.8807,680,5,
217.364,6.19904,7.67975,0.474,19.8807,680,5,
217.364,6.19843,7.67975,0.474,19.8807,680,5,
217.364,6.19904,7.6828,0.474,19.8807,680,5,
217.364,6.19873,7.67975,0.474,19.8807,680,5,
217.364,6.19965,7.67975,0.474,19.8807,680,5,
217.364,6.19904,7.67517,0.474,19.8807,680,5,
217.364,6.19934,7.67059,0.474,19.8807,680,5,
217.364,6.19904,7.66907,0.474,19.8807,680,5,
217.364,6.19904,7.66754,0.474,19.8807,680,5,
217.364,6.19415,7.66602,0.474,19.8807,680,5,
217.364,6.19446,7.66754,0.474,19.8807,680,5,
217.364,6.19476,7.66449,0.474,19.8807,680,5,
217.364,6.19415,7.66907,0.474,19.8807,680,5,
217.364,6.19507,7.66907,0.474,19.8807,680,5,
217.364,6.19385,7.66449,0.474,19.8807,680,5,
217.364,6.19446,7.66602,0.474,19.8807,680,5,
217.364,6.19446,7.66754,0.474,19.8807,680,5,
217.364,6.19415,7.67059,0.474,19.8807,680,5,
217.364,6.18896,7.66907,0.474,19.8807,680,5,
217.364,6.18805,7.66754,0.474,19.8807,680,5,
217.364,6.18927,7.67059,0.474,19.8807,680,5,
217.364,6.18927,7.66602,0.474,19.8807,680,5,
217.364,6.18958,7.66754,0.474,19.8807,680,5,
217.364,6.18927,7.66754,0.474,19.8807,680,5,
217.364,6.18896,7.66754,0.474,19.8807,680,5,
217.364,6.18927,7.66602,0.474,19.8807,680,5,
217.364,6.185,7.66754,0.474,19.8807,680,5,
217.364,6.185,7.67212,0.474,19.8807,680,5,
217.364,6.18469,7.65686,0.474,19.8807,680,5,
217.365,6.185,7.65686,0.474,19.8807,680,5,
217.365,6.18439,7.66144,0.474,19.8807,680,5,
217.365,6.18469,7.65534,0.474,19.8807,680,5,
217.365,6.18439,7.65839,0.474,19.8807,680,5,
217.365,6.18439,7.65534,0.474,19.8807,680,5,
217.365,6.18164,7.65686,0.474,19.8807,680,5,
217.365,6.17981,7.65534,0.474,19.8807,680,5,
217.365,6.1792,7.65991,0.474,19.8807,680,5,
217.365,6.18011,7.65991,0.474,19.8807,680,5,
217.365,6.1792,7.65839,0.474,19.8807,680,5,
217.365,6.18011,7.65839,0.474,19.8807,680,5,
217.365,6.1792,7.65534,0.474,19.8807,680,5,
217.365,6.17981,7.65534,0.474,19.8807,680,5,
217.365,6.17645,7.65839,0.474,19.8807,680,5,
217.365,6.17462,7.65686,0.474,19.8807,680,5,
217.365,6.17432,7.65686,0.474,19.8807,680,5,
217.365,6.17462,7.65534,0.474,19.8807,680,5,
217.365,6.17462,7.65534,0.474,19.8807,680,5,
217.365,6.17401,7.65686,0.474,19.8807,680,5,
217.365,6.17432,7.65228,0.474,19.8807,680,5,
217.365,6.17493,7.65228,0.474,19.8807,680,5,
217.365,6.17035,7.65381,0.474,19.8807,680,5,
217.365,6.16913,7.65534,0.474,19.8807,680,5,
217.365,6.16943,7.65381,0.474,19.8807,680,5,
217.365,6.16913,7.64618,0.474,19.8807,680,5,
217.365,6.16974,7.64465,0.474,19.8807,680,5,
217.365,6.16882,7.64465,0.474,19.8807,680,5,
217.365,6.16882,7.64313,0.474,19.8807,680,5,
217.365,6.16974,7.64313,0.474,19.8807,680,5,
217.365,6.16516,7.64618,0.474,19.8807,680,5,
217.366,6.16486,7.6416,0.474,19.8807,680,5,
217.366,6.16425,7.64313,0.474,19.8807,680,5,
217.366,6.16425,7.64313,0.474,19.8807,680,5,
217.366,6.16455,7.64465,0.474,19.8807,680,5,
217.366,6.16486,7.64465,0.474,19.8807,680,5,
217.366,6.16455,7.64313,0.474,19.8807,680,5,
217.366,6.16028,7.6416,0.474,19.8807,680,5,
217.366,6.15997,7.64313,0.474,19.8807,680,5,
217.366,6.15997,7.64465,0.474,19.8807,680,5,
217.366,6.15967,7.64465,0.474,19.8807,680,5,
217.366,6.15967,7.64313,0.474,19.8807,680,5,
217.366,6.15936,7.6416,0.474,19.8807,680,5,
217.366,6.15967,7.64465,0.474,19.8807,680,5,
217.366,6.15509,7.64465,0.474,19.8807,680,5,
217.366,6.15479,7.64313,0.474,19.8807,680,5,
217.366,6.1554,7.64313,0.474,19.8807,680,5,
217.366,6.15448,7.64465,0.474,19.8807,680,5,
217.366,6.15479,7.64313,0.474,19.8807,680,5,
217.366,6.15509,7.64618,0.474,19.8807,680,5,
217.366,6.15479,7.63092,0.474,19.8807,680,5,
217.366,6.15204,7.63092,0.474,19.8807,680,5,
217.366,6.1499,7.63397,0.474,19.8807,680,5,
217.366,6.1499,7.63245,0.474,19.8807,680,5,
217.366,6.15021,7.63245,0.474,19.8807,680,5,
217.366,6.1499,7.63245,0.474,19.8807,680,5,
217.366,6.1499,7.6294,0.474,19.8807,680,5,
217.366,6.1499,7.63245,0.474,19.8807,680,5,
217.366,6.14716,7.63245,0.474,19.8807,680,5,
217.366,6.14471,7.6294,0.474,19.8807,680,5,
217.367,6.1438,7.63397,0.474,19.8807,680,5,
217.367,6.14471,7.63245,0.474,19.8807,680,5,
217.367,6.14532,7.63245,0.474,19.8807,680,5,
217.367,6.14502,7.63245,0.474,19.8807,680,5,
217.367,6.14471,7.6294,0.474,19.8807,680,5,
217.367,6.14471,7.6355,0.474,19.8807,680,5,
217.367,6.13983,7.63245,0.474,19.8807,680,5,
217.367,6.13983,7.63092,0.474,19.8807,680,5,
217.367,6.14044,7.63397,0.474,19.8807,680,5,
217.367,6.14075,7.6294,0.474,19.8807,680,5,
217.367,6.14044,7.63092,0.474,19.8807,680,5,
217.367,6.13983,7.63092,0.474,19.8807,680,5,
217.367,6.14014,7.63092,0.474,19.8807,680,5,
217.367,6.13586,7.63245,0.474,19.8807,680,5,
217.367,6.13525,7.61871,0.474,19.8807,680,5,
217.367,6.13464,7.61871,0.474,19.8807,680,5,
217.367,6.13434,7.61871,0.474,19.8807,680,5,
217.367,6.13525,7.62024,0.474,19.8807,680,5,
217.367,6.13556,7.61871,0.474,19.8807,680,5,
217.367,6.13525,7.61719,0.474,19.8807,680,5,
217.367,6.13007,7.62177,0.474,19.8807,680,5,
217.367,6.13037,7.62024,0.474,19.8807,680,5,
217.367,6.13068,7.61719,0.474,19.8807,680,5,
217.367,6.12976,7.61719,0.474,19.8807,680,5,
217.367,6.12976,7.62024,0.474,19.8807,680,5,
217.367,6.13007,7.61719,0.474,19.8807,680,5,
217.367,6.13037,7.61871,0.474,19.8807,680,5,
217.367,6.12549,7.61719,0.474,19.8807,680,5,
217.367,6.12518,7.62024,0.474,19.8807,680,5,
217.367,6.12518,7.62177,0.474,19.8807,680,5,
217.368,6.12549,7.62177,0.474,19.8807,680,5,
217.368,6.12518,7.61719,0.474,19.8807,680,5,
217.368,6.12579,7.62177,0.474,19.8807,680,5,
217.368,6.12549,7.61566,0.474,19.8807,680,5,
217.368,6.12122,7.61261,0.474,19.8807,680,5,
217.368,6.12061,7.60803,0.474,19.8807,680,5,
217.368,6.1203,7.61108,0.474,19.8807,680,5,
217.368,6.12,7.60803,0.474,19.8807,680,5,
217.368,6.12061,7.60498,0.474,19.8807,680,5,
217.368,6.1203,7.60803,0.474,19.8807,680,5,
217.368,6.12061,7.60651,0.474,19.8807,680,5,
217.368,6.11786,7.60346,0.474,19.8807,680,5,
217.368,6.11542,7.60651,0.474,19.8807,680,5,
217.368,6.11633,7.61108,0.474,19.8807,680,5,
217.368,6.11572,7.60803,0.474,19.8807,680,5,
217.368,6.11572,7.60498,0.474,19.8807,680,5,
217.368,6.11603,7.60498,0.474,19.8807,680,5,
217.368,6.11603,7.60651,0.474,19.8807,680,5,
217.368,6.11603,7.60803,0.474,19.8807,680,5,
217.368,6.11115,7.60803,0.474,19.8807,680,5,
217.368,6.11115,7.60498,0.474,19.8807,680,5,
217.368,6.11084,7.60651,0.474,19.8807,680,5,
217.368,6.11053,7.5943,0.474,19.8807,680,5,
217.368,6.11053,7.59888,0.474,19.8807,680,5,
217.368,6.11084,7.59583,0.474,19.8807,680,5,
217.368,6.11023,7.59277,0.474,19.8807,680,5,
217.368,6.10626,7.59583,0.474,19.8807,680,5,
217.368,6.10626,7.59583,0.474,19.8807,680,5,
217.368,6.10596,7.6004,0.474,19.8807,680,5,
217.368,6.10565,7.59583,0.474,19.8807,680,5,
217.369,6.10657,7.59125,0.474,19.8807,680,5,
217.369,6.10596,7.59583,0.474,19.8807,680,5,
217.369,6.10596,7.59583,0.474,19.8807,680,5,
217.369,6.10138,7.59125,0.474,19.8807,680,5,
217.369,6.10077,7.5943,0.474,19.8807,680,5,
217.369,6.10077,7.59277,0.474,19.8807,680,5,
217.369,6.10107,7.59735,0.474,19.8807,680,5,
217.369,6.10077,7.59583,0.474,19.8807,680,5,
217.369,6.10107,7.59583,0.474,19.8807,680,5,
217.369,6.10077,7.58209,0.474,19.8807,680,5,
217.369,6.10107,7.58514,0.474,19.8807,680,5,
217.369,6.09589,7.58362,0.474,19.8807,680,5,
217.369,6.09589,7.58514,0.474,19.8807,680,5,
217.369,6.09619,7.58057,0.474,19.8807,680,5,
217.369,6.09589,7.58209,0.474,19.8807,680,5,
217.369,6.09619,7.58514,0.474,19.8807,680,5,
217.369,6.0965,7.58209,0.474,19.8807,680,5,
217.369,6.09528,7.58362,0.474,19.8807,680,5,
217.369,6.09283,7.58514,0.474,19.8807,680,5,
217.369,6.091,7.58362,0.474,19.8807,680,5,
217.369,6.091,7.58362,0.474,19.8807,680,5,
217.369,6.09131,7.58362,0.474,19.8807,680,5,
217.369,6.09161,7.58057,0.474,19.8807,680,5,
217.369,6.0907,7.58057,0.474,19.8807,680,5,
217.369,6.09192,7.58209,0.474,19.8807,680,5,
217.369,6.09131,7.58362,0.474,19.8807,680,5,
217.369,6.08795,7.58209,0.474,19.8807,680,5,
217.369,6.08643,7.58667,0.474,19.8807,680,5,
217.369,6.08612,7.57141,0.474,19.8807,680,5,
217.369,6.08612,7.57446,0.474,19.8807,680,5,
217.369,6.08673,7.57141,0.474,19.8807,680,5,
217.37,6.08673,7.56836,0.474,19.8807,680,5,
217.37,6.08643,7.56989,0.474,19.8807,680,5,
217.37,6.08612,7.57141,0.474,19.8807,680,5,
217.37,6.08337,7.56836,0.474,19.8807,680,5,
217.37,6.08154,7.56989,0.474,19.8807,680,5,
217.37,6.08154,7.57294,0.474,19.8807,680,5,
217.37,6.08185,7.56989,0.474,19.8807,680,5,
217.37,6.08154,7.57446,0.474,19.8807,680,5,
217.37,6.08185,7.56989,0.474,19.8807,680,5,
217.37,6.08154,7.56989,0.474,19.8807,680,5,
217.37,6.08154,7.56989,0.474,19.8807,680,5,
217.37,6.08124,7.57141,0.474,19.8807,680,5,
217.37,6.07758,7.56836,0.474,19.8807,680,5,
217.37,6.07727,7.56989,0.474,19.8807,680,5,
217.37,6.07666,7.57141,0.474,19.8807,680,5,
217.37,6.07697,7.56989,0.474,19.8807,680,5,
217.37,6.07635,7.57141,0.474,19.8807,680,5,
217.37,6.07727,7.55615,0.474,19.8807,680,5,
217.37,6.07666,7.55768,0.474,19.8807,680,5,
217.37,6.07758,7.56073,0.474,19.8807,680,5,
217.37,6.07635,7.55921,0.474,19.8807,680,5,
217.37,6.07178,7.56226,0.474,19.8807,680,5,
217.37,6.07269,7.55768,0.474,19.8807,680,5,
217.37,6.07178,7.56073,0.474,19.8807,680,5,
217.37,6.07239,7.56073,0.474,19.8807,680,5,
217.37,6.07178,7.56073,0.474,19.8807,680,5,
217.37,6.07208,7.55921,0.474,19.8807,680,5,
217.37,6.07239,7.55921,0.474,19.8807,680,5,
217.37,6.07086,7.56073,0.474,19.8807,680,5,
217.37,6.07147,7.56073,0.474,19.8807,680,5,
217.371,6.06781,7.55768,0.474,19.8807,680,5,
217.371,6.0672,7.55921,0.474,19.8807,680,5,
217.371,6.0672,7.56073,0.474,19.8807,680,5,
217.371,6.06659,7.56226,0.474,19.8807,680,5,
217.371,6.06689,7.56073,0.474,19.8807,680,5,
217.371,6.0672,7.55921,0.474,19.8807,680,5,
217.371,6.0675,7.56073,0.474,19.8807,680,5,
217.371,6.06628,7.55768,0.474,19.8807,680,5,
217.371,6.06659,7.55768,0.474,19.8807,680,5,
217.371,6.06628,7.55768,0.474,19.8807,680,5,
217.371,6.06201,7.55005,0.474,19.8807,680,5,
217.371,6.06232,7.547,0.474,19.8807,680,5,
217.371,6.06171,7.54242,0.474,19.8807,680,5,
217.371,6.06201,7.547,0.474,19.8807,680,5,
217.371,6.06201,7.547,0.474,19.8807,680,5,
217.371,6.06201,7.547,0.474,19.8807,680,5,
217.371,6.06232,7.54852,0.474,19.8807,680,5,
217.371,6.06201,7.54547,0.474,19.8807,680,5,
217.371,6.06171,7.547,0.474,19.8807,680,5,
217.371,6.06201,7.54547,0.474,19.8807,680,5,
217.371,6.0611,7.547,0.474,19.8807,680,5,
217.371,6.05682,7.54547,0.474,19.8807,680,5,
217.371,6.05713,7.54395,0.474,19.8807,680,5,
217.371,6.05713,7.54395,0.474,19.8807,680,5,
217.371,6.05682,7.54242,0.474,19.8807,680,5,
217.371,6.05713,7.54547,0.474,19.8807,680,5,
217.371,6.05682,7.54852,0.474,19.8807,680,5,
217.371,6.05682,7.54852,0.474,19.8807,680,5,
217.371,6.05713,7.54852,0.474,19.8807,680,5,
217.371,6.05743,7.54395,0.474,19.8807,680,5,
217.372,6.05713,7.54547,0.474,19.8807,680,5,
217.372,6.05743,7.5531,0.474,19.8807,680,5,
217.372,6.05194,7.54547,0.474,19.8807,680,5,
217.372,6.05255,7.547,0.474,19.8807,680,5,
217.372,6.05194,7.54547,0.474,19.8807,680,5,
217.372,6.05164,7.53174,0.474,19.8807,680,5,
217.372,6.05316,7.53784,0.474,19.8807,680,5,
217.372,6.05194,7.53479,0.474,19.8807,680,5,
217.372,6.05225,7.53327,0.474,19.8807,680,5,
217.372,6.05164,7.53327,0.474,19.8807,680,5,
