4300-SECPT.acq
2 msec/sample
6 channels
RSP, X, RSPEC-R
Volts
EDA, Y, PPGED-R
microsiemens
ECG R-R
Seconds
Respiration Rate
BPM
C7 - EDR
Peaks
C14 - Control
Volts
sec,CH1,CH14,CH40,CH42,CH47,CH54,
,49105,49105,49105,49105,49105,49105,
4471.45,1.02844,5.9021,0,18.2593,99,0,
4471.46,1.02448,5.90515,0,18.2593,99,0,
4471.46,1.02417,5.90668,0,18.2593,99,0,
4471.46,1.0199,5.90668,0,18.2593,99,0,
4471.46,1.01959,5.90515,0,18.2593,99,0,
4471.46,1.01868,5.90515,0,18.2593,99,0,
4471.47,1.01562,5.9082,0,18.2593,99,0,
4471.47,1.01501,5.90515,0,18.2593,99,0,
4471.47,1.00952,5.90363,0,18.2593,99,0,
4471.47,1.01013,5.90668,0,18.2593,99,0,
4471.47,1.00647,5.90363,0,18.2593,99,0,
4471.48,1.00494,5.9021,0,18.2593,99,0,
4471.48,1.00525,5.90668,0,18.2593,99,0,
4471.48,1.00037,5.9021,0,18.2593,99,0,
4471.48,0.999756,5.90515,0,18.2593,99,0,
4471.48,0.997009,5.90363,0,18.2593,99,0,
4471.49,0.996094,5.90363,0,18.2593,99,0,
4471.49,0.994873,5.9021,0,18.2593,99,0,
4471.49,0.991211,5.9021,0,18.2593,99,0,
4471.49,0.991211,5.90363,0,18.2593,99,0,
4471.49,0.986938,5.90515,0,18.2593,99,0,
4471.5,0.985413,5.90515,0,18.2593,99,0,
4471.5,0.985413,5.90515,0,18.2593,99,0,
4471.5,0.979919,5.9021,0,18.2593,99,0,
4471.5,0.98053,5.90363,0,18.2593,99,0,
4471.5,0.976562,5.90363,0,18.2593,99,0,
4471.51,0.975952,5.90668,0,18.2593,99,0,
4471.51,0.975952,5.90668,0,18.2593,99,0,
4471.51,0.970764,5.90515,0,18.2593,99,0,
4471.51,0.970154,5.90363,0,18.2593,99,0,
4471.51,0.967102,5.90668,0,18.2593,99,0,
4471.52,0.966187,5.90515,0,18.2593,99,0,
4471.52,0.965881,5.90668,0,18.2593,99,0,
4471.52,0.961304,5.9021,0,18.2593,99,0,
4471.52,0.960999,5.90668,0,18.2593,99,0,
4471.52,0.957642,5.90515,0,18.2593,99,0,
4471.53,0.956421,5.90515,0,18.2593,99,0,
4471.53,0.955811,5.90515,0,18.2593,99,0,
4471.53,0.951233,5.90515,0,18.2593,99,0,
4471.53,0.950928,5.90515,0,18.2593,99,0,
4471.53,0.947876,5.90363,0,18.2593,99,0,
4471.54,0.94696,5.90515,0,18.2593,99,0,
4471.54,0.94635,5.90668,0,18.2593,99,0,
4471.54,0.941467,5.90515,0,18.2593,99,0,
4471.54,0.941162,5.90668,0,18.2593,99,0,
4471.54,0.940247,5.90515,0,18.2593,99,0,
4471.55,0.93689,5.90668,0,18.2593,99,0,
4471.55,0.936584,5.9021,0,18.2593,99,0,
4471.55,0.932617,5.90515,0,18.2593,99,0,
4471.55,0.932007,5.90363,0,18.2593,99,0,
4471.55,0.932007,5.90668,0,18.2593,99,0,
4471.56,0.927429,5.9021,0,18.2593,99,0,
4471.56,0.926514,5.90515,0,18.2593,99,0,
4471.56,0.925903,5.90363,0,18.2593,99,0,
4471.56,0.921326,5.90515,0,18.2593,99,0,
4471.56,0.921631,5.90668,0,18.2593,99,0,
4471.57,0.917664,5.90515,0,18.2593,99,0,
4471.57,0.916748,5.90668,0,18.2593,99,0,
4471.57,0.917053,5.9082,0,18.2593,99,0,
4471.57,0.912781,5.90668,0,18.2593,99,0,
4471.57,0.911865,5.90363,0,18.2593,99,0,
4471.58,0.910645,5.90668,0,18.2593,99,0,
4471.58,0.907593,5.90363,0,18.2593,99,0,
4471.58,0.907288,5.90515,0,18.2593,99,0,
4471.58,0.90271,5.90363,0,18.2593,99,0,
4471.58,0.902405,5.90515,0,18.2593,99,0,
4471.59,0.90271,5.90668,0,18.2593,99,0,
4471.59,0.897217,5.90515,0,18.2593,99,0,
4471.59,0.897827,5.90668,0,18.2593,99,0,
4471.59,0.895691,5.9082,0,18.2593,99,0,
4471.59,0.89325,5.90668,0,18.2593,99,0,
4471.6,0.892639,5.90668,0,18.2593,99,0,
4471.6,0.889282,5.90668,0,18.2593,99,0,
4471.6,0.888062,5.90515,0,18.2593,99,0,
4471.6,0.887451,5.90057,0,18.2593,99,0,
4471.6,0.882568,5.90668,0,18.2593,99,0,
4471.61,0.882568,5.9082,0,18.2593,99,0,
4471.61,0.882568,5.90515,0,18.2593,99,0,
4471.61,0.877991,5.90363,0,18.2593,99,0,
4471.61,0.878601,5.90668,0,18.2593,99,0,
4471.61,0.876465,5.90668,0,18.2593,99,0,
4471.62,0.872803,5.90515,0,18.2593,99,0,
4471.62,0.873108,5.90363,0,18.2593,99,0,
4471.62,0.869446,5.90668,0,18.2593,99,0,
4471.62,0.86792,5.9082,0,18.2593,99,0,
4471.62,0.868225,5.90515,0,18.2593,99,0,
4471.63,0.863037,5.90668,0,18.2593,99,0,
4471.63,0.862732,5.90515,0,18.2593,99,0,
4471.63,0.861816,5.90973,0,18.2593,99,0,
4471.63,0.858154,5.90668,0,18.2593,99,0,
4471.63,0.857544,5.9082,0,18.2593,99,0,
4471.64,0.853882,5.90668,0,18.2593,99,0,
4471.64,0.852966,5.90668,0,18.2593,99,0,
4471.64,0.853271,5.90363,0,18.2593,99,0,
4471.64,0.849915,5.90363,0,18.2593,99,0,
4471.64,0.848083,5.90515,0,18.2593,99,0,
4471.65,0.847473,5.90668,0,18.2593,99,0,
4471.65,0.843201,5.9082,0,18.2593,99,0,
4471.65,0.843811,5.90668,0,18.2593,99,0,
4471.65,0.840454,5.90668,0,18.2593,99,0,
4471.65,0.839233,5.90668,0,18.2593,99,0,
4471.66,0.838623,5.90515,0,18.2593,99,0,
4471.66,0.833435,5.90515,0,18.2593,99,0,
4471.66,0.833435,5.90515,0,18.2593,99,0,
4471.66,0.830383,5.90668,0,18.2593,99,0,
4471.66,0.828552,5.9082,0,18.2593,99,0,
4471.67,0.827332,5.90668,0,18.2593,99,0,
4471.67,0.82428,5.90363,0,18.2593,99,0,
4471.67,0.823669,5.90363,0,18.2593,99,0,
4471.67,0.819092,5.90515,0,18.2593,99,0,
4471.67,0.818787,5.90668,0,18.2593,99,0,
4471.68,0.815735,5.90515,0,18.2593,99,0,
4471.68,0.813599,5.90668,0,18.2593,99,0,
4471.68,0.814209,5.90515,0,18.2593,99,0,
4471.68,0.809021,5.90515,0,18.2593,99,0,
4471.68,0.809021,5.90668,0,18.2593,99,0,
4471.69,0.803528,5.90515,0,18.2593,99,0,
4471.69,0.803833,5.90668,0,18.2593,99,0,
4471.69,0.800476,5.90515,0,18.2593,99,0,
4471.69,0.79895,5.90515,0,18.2593,99,0,
4471.69,0.798035,5.90668,0,18.2593,99,0,
4471.7,0.794067,5.90515,0,18.2593,99,0,
4471.7,0.794678,5.90668,0,18.2593,99,0,
4471.7,0.789795,5.90515,0,18.2593,99,0,
4471.7,0.789185,5.9021,0,18.2593,99,0,
4471.7,0.784607,5.90515,0,18.2593,99,0,
4471.71,0.784912,5.9082,0,18.2593,99,0,
4471.71,0.78064,5.90515,0,18.2593,99,0,
4471.71,0.779419,5.90363,0,18.2593,99,0,
4471.71,0.775757,5.90515,0,18.2593,99,0,
4471.71,0.775452,5.90668,0,18.2593,99,0,
4471.72,0.773926,5.90668,0,18.2593,99,0,
4471.72,0.769958,5.90668,0,18.2593,99,0,
4471.72,0.770874,5.9082,0,18.2593,99,0,
4471.72,0.765076,5.90515,0,18.2593,99,0,
4471.72,0.765381,5.90363,0,18.2593,99,0,
4471.73,0.760193,5.9021,0,18.2593,99,0,
4471.73,0.759583,5.9021,0,18.2593,99,0,
4471.73,0.755005,5.90515,0,18.2593,99,0,
4471.73,0.755005,5.9082,0,18.2593,99,0,
4471.73,0.751953,5.90515,0,18.2593,99,0,
4471.74,0.750732,5.90363,0,18.2593,99,0,
4471.74,0.74707,5.90363,0,18.2593,99,0,
4471.74,0.745544,5.90515,0,18.2593,99,0,
4471.74,0.744629,5.90515,0,18.2593,99,0,
4471.74,0.740662,5.9082,0,18.2593,99,0,
4471.75,0.740356,5.90668,0,18.2593,99,0,
4471.75,0.735474,5.90515,0,18.2593,99,0,
4471.75,0.735474,5.90668,0,18.2593,99,0,
4471.75,0.731812,5.90515,0,18.2593,99,0,
4471.75,0.730591,5.9082,0,18.2593,99,0,
4471.76,0.726318,5.90363,0,18.2593,99,0,
4471.76,0.725098,5.90668,0,18.2593,99,0,
4471.76,0.722656,5.90515,0,18.2593,99,0,
4471.76,0.720825,5.90515,0,18.2593,99,0,
4471.76,0.719299,5.9082,0,18.2593,99,0,
4471.77,0.716248,5.90515,0,18.2593,99,0,
4471.77,0.715027,5.90363,0,18.2593,99,0,
4471.77,0.71167,5.90515,0,18.2593,99,0,
4471.77,0.710754,5.90668,0,18.2593,99,0,
4471.77,0.706177,5.90668,0,18.2593,99,0,
4471.78,0.706482,5.90668,0,18.2593,99,0,
4471.78,0.701599,5.90668,0,18.2593,99,0,
4471.78,0.701294,5.9021,0,18.2593,99,0,
4471.78,0.697632,5.9021,0,18.2593,99,0,
4471.78,0.696411,5.90515,0,18.2593,99,0,
4471.79,0.696716,5.90515,0,18.2593,99,0,
4471.79,0.691528,5.90515,0,18.2593,99,0,
4471.79,0.691528,5.90668,0,18.2593,99,0,
4471.79,0.686951,5.90668,0,18.2593,99,0,
4471.79,0.686951,5.90515,0,18.2593,99,0,
4471.8,0.682373,5.9021,0,18.2593,99,0,
4471.8,0.681763,5.90363,0,18.2593,99,0,
4471.8,0.681458,5.90515,0,18.2593,99,0,
4471.8,0.67688,5.90363,0,18.2593,99,0,
4471.8,0.67627,5.90973,0,18.2593,99,0,
4471.81,0.672302,5.90515,0,18.2593,99,0,
4471.81,0.671997,5.90515,0,18.2593,99,0,
4471.81,0.669861,5.9082,0,18.2593,99,0,
4471.81,0.666809,5.90515,0,18.2593,99,0,
4471.81,0.666809,5.90363,0,18.2593,99,0,
4471.82,0.662537,5.90668,0,18.2593,99,0,
4471.82,0.661926,5.90515,0,18.2593,99,0,
4471.82,0.660706,5.90363,0,18.2593,99,0,
4471.82,0.657349,5.90363,0,18.2593,99,0,
4471.82,0.657043,5.90363,0,18.2593,99,0,
4471.83,0.653381,5.90363,0,18.2593,99,0,
4471.83,0.652771,5.90973,0,18.2593,99,0,
4471.83,0.652466,5.90668,0,18.2593,99,0,
4471.83,0.647278,5.90668,0,18.2593,99,0,
4471.83,0.647888,5.90515,0,18.2593,99,0,
4471.84,0.646057,5.90668,0,18.2593,99,0,
4471.84,0.642395,5.90668,0,18.2593,99,0,
4471.84,0.6427,5.90668,0,18.2593,99,0,
4471.84,0.641785,5.90668,0,18.2593,99,0,
4471.84,0.637512,5.90515,0,18.2593,99,0,
4471.85,0.637207,5.90668,0,18.2593,99,0,
4471.85,0.633545,5.90668,0,18.2593,99,0,
4471.85,0.632629,5.90515,0,18.2593,99,0,
4471.85,0.632935,5.90515,0,18.2593,99,0,
4471.85,0.628967,5.9082,0,18.2593,99,0,
4471.86,0.627136,5.90363,0,18.2593,99,0,
4471.86,0.627136,5.9082,0,18.2593,99,0,
4471.86,0.626221,5.9082,0,18.2593,99,0,
4471.86,0.622864,5.90515,0,18.2593,99,0,
4471.86,0.623169,5.90363,0,18.2593,99,0,
4471.87,0.622864,5.90668,0,18.2593,99,0,
4471.87,0.617981,5.90515,0,18.2593,99,0,
4471.87,0.618286,5.90668,0,18.2593,99,0,
4471.87,0.618591,5.90515,0,18.2593,99,0,
4471.87,0.613708,5.90363,0,18.2593,99,0,
4471.88,0.613098,5.90363,0,18.2593,99,0,
4471.88,0.613403,5.90668,0,18.2593,99,0,
4471.88,0.613708,5.90668,0,18.2593,99,0,
4471.88,0.608521,5.90668,0,18.2593,99,0,
4471.88,0.608215,5.90668,0,18.2593,99,0,
4471.89,0.60791,5.90668,0,18.2593,99,0,
4471.89,0.6073,5.90668,0,18.2593,99,0,
4471.89,0.603638,5.90515,0,18.2593,99,0,
4471.89,0.603943,5.9021,0,18.2593,99,0,
4471.89,0.603638,5.90668,0,18.2593,99,0,
4471.9,0.601807,5.90668,0,18.2593,99,0,
4471.9,0.59906,5.90363,0,18.2593,99,0,
4471.9,0.598145,5.90668,0,18.2593,99,0,
4471.9,0.59845,5.90363,0,18.2593,99,0,
4471.9,0.59845,5.90515,0,18.2593,99,0,
4471.91,0.593262,5.90515,0,18.2593,99,0,
4471.91,0.593567,5.9021,0,18.2593,99,0,
4471.91,0.592957,5.90668,0,18.2593,99,0,
4471.91,0.593567,5.90668,0,18.2593,99,0,
4471.91,0.59021,5.90363,0,18.2593,99,0,
4471.92,0.588074,5.90515,0,18.2593,99,0,
4471.92,0.589294,5.90515,0,18.2593,99,0,
4471.92,0.588379,5.90515,0,18.2593,99,0,
4471.92,0.588684,5.90515,0,18.2593,99,0,
4471.92,0.583801,5.90057,0,18.2593,99,0,
4471.93,0.583801,5.9021,0,18.2593,99,0,
4471.93,0.584106,5.90515,0,18.2593,99,0,
4471.93,0.583801,5.90363,0,18.2593,99,0,
4471.93,0.583191,5.90515,0,18.2593,99,0,
4471.93,0.579834,5.90363,0,18.2593,99,0,
4471.94,0.578613,5.9082,0,18.2593,99,0,
4471.94,0.578613,5.90515,0,18.2593,99,0,
4471.94,0.579529,5.90363,0,18.2593,99,0,
4471.94,0.578613,5.90515,0,18.2593,99,0,
4471.94,0.578308,5.9082,0,18.2593,99,0,
4471.95,0.574036,5.90668,0,18.2593,99,0,
4471.95,0.57312,5.90515,0,18.2593,99,0,
4471.95,0.574036,5.90668,0,18.2593,99,0,
4471.95,0.574341,5.90668,0,18.2593,99,0,
4471.95,0.574341,5.90515,0,18.2593,99,0,
4471.96,0.57373,5.9082,0,18.2593,99,0,
4471.96,0.569458,5.90668,0,18.2593,99,0,
4471.96,0.569458,5.90515,0,18.2593,99,0,
4471.96,0.569458,5.90515,0,18.2593,99,0,
4471.96,0.569153,5.90515,0,18.2593,99,0,
4471.97,0.569153,5.90363,0,18.2593,99,0,
4471.97,0.568542,5.90668,0,18.2593,99,0,
4471.97,0.567627,5.90515,0,18.2593,99,0,
4471.97,0.56366,5.90363,3.012,18.2593,99,0,
4471.97,0.564575,5.90515,3.012,18.2593,99,0,
4471.98,0.56427,5.9082,3.012,18.2593,99,0,
4471.98,0.56427,5.90668,3.012,18.2593,99,0,
4471.98,0.563354,5.90515,3.012,18.2593,99,0,
4471.98,0.564575,5.90668,3.012,18.2593,99,0,
4471.98,0.563354,5.90363,3.012,18.2593,99,0,
4471.99,0.560913,5.9082,3.012,18.2593,99,0,
4471.99,0.559692,5.90668,3.012,18.2593,99,0,
4471.99,0.559082,5.90515,3.012,18.2593,99,0,
4471.99,0.559387,5.9021,3.012,18.2593,99,0,
4471.99,0.559387,5.90515,3.012,18.2593,99,0,
4472,0.559387,5.90515,3.012,18.2593,99,0,
4472,0.559998,5.90515,3.012,18.2593,99,0,
4472,0.559082,5.90515,3.012,18.2593,99,0,
4472,0.558777,5.90668,3.012,18.2593,99,0,
4472,0.559387,5.90363,3.012,18.2593,99,0,
4472.01,0.554504,5.90363,3.012,18.2593,99,0,
4472.01,0.55481,5.90668,3.012,18.2593,99,0,
4472.01,0.554199,5.90515,3.012,18.2593,99,0,
4472.01,0.554504,5.90363,3.012,18.2593,99,0,
4472.01,0.554504,5.90973,3.012,18.2593,99,0,
4472.02,0.554504,5.9082,3.012,18.2593,99,0,
4472.02,0.55481,5.90668,3.012,18.2593,99,0,
4472.02,0.553894,5.90363,3.012,18.2593,99,0,
4472.02,0.554199,5.90515,3.012,18.2593,99,0,
4472.02,0.554199,5.9082,3.012,18.2593,99,0,
4472.03,0.553894,5.90668,3.012,18.2593,99,0,
4472.03,0.554504,5.90515,3.012,18.2593,99,0,
4472.03,0.553894,5.90668,3.012,18.2593,99,0,
4472.03,0.553894,5.9021,3.012,18.2593,99,0,
4472.03,0.553894,5.90363,3.012,18.2593,99,0,
4472.04,0.549011,5.90668,3.012,18.2593,99,0,
4472.04,0.549011,5.90515,3.012,18.2593,99,0,
4472.04,0.549927,5.90363,3.012,18.2593,99,0,
4472.04,0.549316,5.9082,3.012,18.2593,99,0,
4472.04,0.548706,5.90515,3.012,18.2593,99,0,
4472.05,0.549622,5.90668,3.012,18.2593,99,0,
4472.05,0.549622,5.9082,3.012,18.2593,99,0,
4472.05,0.549011,5.90668,3.012,18.2593,99,0,
4472.05,0.549622,5.90515,3.012,18.2593,99,0,
4472.05,0.549927,5.90668,3.012,18.2593,99,0,
4472.06,0.549316,5.90515,3.012,18.2593,99,0,
4472.06,0.549316,5.90515,3.012,18.2593,99,0,
4472.06,0.549622,5.90668,3.012,18.2593,99,0,
4472.06,0.549927,5.90668,3.012,18.2593,99,0,
4472.06,0.549011,5.90515,3.012,18.2593,99,0,
4472.07,0.549622,5.90515,3.012,18.2593,99,0,
4472.07,0.549316,5.90515,3.012,18.2593,99,0,
4472.07,0.549622,5.90363,3.012,18.2593,99,0,
4472.07,0.550232,5.90515,3.012,18.2593,99,0,
4472.07,0.549927,5.9082,3.012,18.2593,99,0,
4472.08,0.549622,5.90363,3.012,18.2593,99,0,
4472.08,0.549622,5.9082,3.012,18.2593,99,0,
4472.08,0.549622,5.90515,3.012,18.2593,99,0,
4472.08,0.550232,5.90363,3.012,18.2593,99,0,
4472.08,0.549011,5.90363,3.012,18.2593,99,0,
4472.09,0.553284,5.90363,3.012,18.2593,99,0,
4472.09,0.553894,5.90668,3.012,18.2593,99,0,
4472.09,0.55481,5.90668,3.012,18.2593,99,0,
4472.09,0.554504,5.90668,3.012,18.2593,99,0,
4472.09,0.553894,5.90515,3.012,18.2593,99,0,
4472.1,0.554199,5.90515,3.012,18.2593,99,0,
4472.1,0.55481,5.90363,3.012,18.2593,99,0,
4472.1,0.55481,5.90363,3.012,18.2593,99,0,
4472.1,0.55481,5.90363,3.012,18.2593,99,0,
4472.1,0.554504,5.90363,3.012,18.2593,99,0,
4472.11,0.55481,5.90668,3.012,18.2593,99,0,
4472.11,0.554504,5.90515,3.012,18.2593,99,0,
4472.11,0.558777,5.90515,3.012,18.2593,99,0,
4472.11,0.559692,5.9082,3.012,18.2593,99,0,
4472.11,0.559387,5.90668,3.012,18.2593,99,0,
4472.12,0.559692,5.90515,3.012,18.2593,99,0,
4472.12,0.558777,5.90668,3.012,18.2593,99,0,
4472.12,0.558777,5.90515,3.012,18.2593,99,0,
4472.12,0.559692,5.9082,3.012,18.2593,99,0,
4472.12,0.560913,5.9021,3.012,18.2593,99,0,
4472.13,0.563354,5.9082,3.012,18.2593,99,0,
4472.13,0.56427,5.90515,3.012,18.2593,99,0,
4472.13,0.563965,5.90515,3.012,18.2593,99,0,
4472.13,0.563965,5.90515,3.012,18.2593,99,0,
4472.13,0.563965,5.90515,3.012,18.2593,99,0,
4472.14,0.567932,5.90515,3.012,18.2593,99,0,
4472.14,0.569153,5.90515,3.012,18.2593,99,0,
4472.14,0.569458,5.90363,3.012,18.2593,99,0,
4472.14,0.569458,5.90515,3.012,18.2593,99,0,
4472.14,0.569153,5.90515,3.012,18.2593,99,0,
4472.15,0.57251,5.9082,3.012,18.2593,99,0,
4472.15,0.574036,5.90668,3.012,18.2593,99,0,
4472.15,0.574036,5.90515,3.012,18.2593,99,0,
4472.15,0.573425,5.90515,3.012,18.2593,99,0,
4472.15,0.576172,5.9082,3.012,18.2593,99,0,
4472.16,0.578918,5.90973,3.012,18.2593,99,0,
4472.16,0.578003,5.9082,3.012,18.2593,99,0,
4472.16,0.578918,5.9021,3.012,18.2593,99,0,
4472.16,0.580139,5.9082,3.012,18.2593,99,0,
4472.16,0.584106,5.90363,3.012,18.2593,99,0,
4472.17,0.584106,5.90515,3.012,18.2593,99,0,
4472.17,0.583496,5.9082,3.012,18.2593,99,0,
4472.17,0.588074,5.90973,3.012,18.2593,99,0,
4472.17,0.588684,5.90515,3.012,18.2593,99,0,
4472.17,0.588379,5.90668,3.012,18.2593,99,0,
4472.18,0.588379,5.90668,3.012,18.2593,99,0,
4472.18,0.593262,5.90668,3.012,18.2593,99,0,
4472.18,0.593567,5.9082,3.012,18.2593,99,0,
4472.18,0.594177,5.90668,3.012,18.2593,99,0,
4472.18,0.59845,5.90668,3.012,18.2593,99,0,
4472.19,0.598145,5.90515,3.012,18.2593,99,0,
4472.19,0.59845,5.90515,3.012,18.2593,99,0,
4472.19,0.603638,5.90363,3.012,18.2593,99,0,
4472.19,0.603943,5.90515,3.012,18.2593,99,0,
4472.19,0.603943,5.9082,3.012,18.2593,99,0,
4472.2,0.608521,5.90515,3.012,18.2593,99,0,
4472.2,0.608826,5.90515,3.012,18.2593,99,0,
4472.2,0.608521,5.90668,3.012,18.2593,99,0,
4472.2,0.613708,5.90363,3.012,18.2593,99,0,
4472.2,0.614014,5.90515,3.012,18.2593,99,0,
4472.21,0.613403,5.90668,3.012,18.2593,99,0,
4472.21,0.618286,5.9082,3.012,18.2593,99,0,
4472.21,0.618896,5.90363,3.012,18.2593,99,0,
4472.21,0.619812,5.90515,3.012,18.2593,99,0,
4472.21,0.623169,5.90363,3.012,18.2593,99,0,
4472.22,0.622864,5.90668,3.012,18.2593,99,0,
4472.22,0.627136,5.9082,3.012,18.2593,99,0,
4472.22,0.627136,5.90515,3.012,18.2593,99,0,
4472.22,0.627136,5.90515,3.012,18.2593,99,0,
4472.22,0.632019,5.90515,3.012,18.2593,99,0,
4472.23,0.632019,5.9082,3.012,18.2593,99,0,
4472.23,0.634155,5.90515,3.012,18.2593,99,0,
4472.23,0.637207,5.90515,3.012,18.2593,99,0,
4472.23,0.637207,5.90363,3.012,18.2593,99,0,
4472.23,0.642395,5.90515,3.012,18.2593,99,0,
4472.24,0.642395,5.90668,3.012,18.2593,99,0,
4472.24,0.643311,5.90363,3.012,18.2593,99,0,
4472.24,0.646973,5.9021,3.012,18.2593,99,0,
4472.24,0.647583,5.90057,3.012,18.2593,99,0,
4472.24,0.652161,5.90668,3.012,18.2593,99,0,
4472.25,0.651855,5.9082,3.012,18.2593,99,0,
4472.25,0.655518,5.9082,3.012,18.2593,99,0,
4472.25,0.656738,5.90363,3.012,18.2593,99,0,
4472.25,0.657043,5.90363,3.012,18.2593,99,0,
4472.25,0.661926,5.90515,3.012,18.2593,99,0,
4472.26,0.661926,5.90515,3.012,18.2593,99,0,
4472.26,0.666504,5.90363,3.012,18.2593,99,0,
4472.26,0.666809,5.90515,3.012,18.2593,99,0,
4472.26,0.66864,5.9082,3.012,18.2593,99,0,
4472.26,0.671997,5.90363,3.012,18.2593,99,0,
4472.27,0.671997,5.90515,3.012,18.2593,99,0,
4472.27,0.67688,5.90668,3.012,18.2593,99,0,
4472.27,0.67749,5.9021,3.012,18.2593,99,0,
4472.27,0.680237,5.90515,3.012,18.2593,99,0,
4472.27,0.681458,5.90668,3.012,18.2593,99,0,
4472.28,0.683289,5.90668,3.012,18.2593,99,0,
4472.28,0.68634,5.90515,3.012,18.2593,99,0,
4472.28,0.68634,5.90668,3.012,18.2593,99,0,
4472.28,0.690918,5.90363,3.012,18.2593,99,0,
4472.28,0.692139,5.90668,3.012,18.2593,99,0,
4472.29,0.69519,5.90668,3.012,18.2593,99,0,
4472.29,0.696716,5.9082,3.012,18.2593,99,0,
4472.29,0.697632,5.90668,3.012,18.2593,99,0,
4472.29,0.701294,5.90668,3.012,18.2593,99,0,
4472.29,0.701294,5.90668,3.012,18.2593,99,0,
4472.3,0.705566,5.90668,3.012,18.2593,99,0,
4472.3,0.706482,5.90668,3.012,18.2593,99,0,
4472.3,0.709534,5.9082,3.012,18.2593,99,0,
4472.3,0.71106,5.9082,3.012,18.2593,99,0,
4472.3,0.712891,5.90668,3.012,18.2593,99,0,
4472.31,0.716248,5.9082,3.012,18.2593,99,0,
4472.31,0.716248,5.90668,3.012,18.2593,99,0,
4472.31,0.72113,5.90515,3.012,18.2593,99,0,
4472.31,0.720825,5.9082,3.012,18.2593,99,0,
4472.31,0.724792,5.90363,3.012,18.2593,99,0,
4472.32,0.725098,5.90515,3.012,18.2593,99,0,
4472.32,0.726318,5.90515,3.012,18.2593,99,0,
4472.32,0.730896,5.90668,3.012,18.2593,99,0,
4472.32,0.731201,5.90515,3.012,18.2593,99,0,
4472.32,0.735474,5.90668,3.012,18.2593,99,0,
4472.33,0.735474,5.90668,3.012,18.2593,99,0,
4472.33,0.737305,5.9021,3.012,18.2593,99,0,
4472.33,0.740356,5.9082,3.012,18.2593,99,0,
4472.33,0.741272,5.90668,3.012,18.2593,99,0,
4472.33,0.745239,5.90363,3.012,18.2593,99,0,
4472.34,0.746155,5.90363,3.012,18.2593,99,0,
4472.34,0.749207,5.9082,3.012,18.2593,99,0,
4472.34,0.750122,5.90515,3.012,18.2593,99,0,
4472.34,0.750122,5.90363,3.012,18.2593,99,0,
4472.34,0.755615,5.90515,3.012,18.2593,99,0,
4472.35,0.755005,5.90515,3.012,18.2593,99,0,
4472.35,0.759277,5.90668,3.012,18.2593,99,0,
4472.35,0.760193,5.90668,3.012,18.2593,99,0,
4472.35,0.760803,5.9082,3.012,18.2593,99,0,
4472.35,0.764771,5.9082,3.012,18.2593,99,0,
4472.36,0.765076,5.90515,3.012,18.2593,99,0,
4472.36,0.768738,5.90515,3.012,18.2593,99,0,
4472.36,0.769958,5.9082,3.012,18.2593,99,0,
4472.36,0.769653,5.9082,3.012,18.2593,99,0,
4472.36,0.774841,5.9082,3.012,18.2593,99,0,
4472.37,0.775146,5.90515,3.012,18.2593,99,0,
4472.37,0.775452,5.90668,3.012,18.2593,99,0,
4472.37,0.780029,5.90363,3.012,18.2593,99,0,
4472.37,0.780029,5.90668,3.012,18.2593,99,0,
4472.37,0.78125,5.90057,3.012,18.2593,99,0,
4472.38,0.784607,5.90515,3.012,18.2593,99,0,
4472.38,0.784607,5.90668,3.012,18.2593,99,0,
4472.38,0.788269,5.90515,3.012,18.2593,99,0,
4472.38,0.78949,5.90668,3.012,18.2593,99,0,
4472.38,0.789185,5.9082,3.012,18.2593,99,0,
4472.39,0.794678,5.9021,3.012,18.2593,99,0,
4472.39,0.794067,5.90668,3.012,18.2593,99,0,
4472.39,0.794067,5.90668,3.012,18.2593,99,0,
4472.39,0.79895,5.90515,3.012,18.2593,99,0,
4472.39,0.799561,5.90363,3.012,18.2593,99,0,
4472.4,0.799561,5.9082,3.012,18.2593,99,0,
4472.4,0.804138,5.90668,3.012,18.2593,99,0,
4472.4,0.804138,5.90515,3.012,18.2593,99,0,
4472.4,0.804749,5.90668,3.012,18.2593,99,0,
4472.4,0.808105,5.90515,3.012,18.2593,99,0,
4472.41,0.809326,5.9082,3.012,18.2593,99,0,
4472.41,0.809021,5.9082,3.012,18.2593,99,0,
4472.41,0.810547,5.90668,3.012,18.2593,99,0,
4472.41,0.813904,5.9082,3.012,18.2593,99,0,
4472.41,0.814514,5.9082,3.012,18.2593,99,0,
4472.42,0.814209,5.90668,3.012,18.2593,99,0,
4472.42,0.818176,5.9082,3.012,18.2593,99,0,
4472.42,0.818481,5.90668,3.012,18.2593,99,0,
4472.42,0.818481,5.90363,3.012,18.2593,99,0,
4472.42,0.818787,5.90363,3.012,18.2593,99,0,
4472.43,0.823364,5.9082,3.012,18.2593,99,0,
4472.43,0.823975,5.90515,3.012,18.2593,99,0,
4472.43,0.82428,5.90668,3.012,18.2593,99,0,
4472.43,0.825195,5.90668,3.012,18.2593,99,0,
4472.43,0.829163,5.9021,3.012,18.2593,99,0,
4472.44,0.828552,5.90973,3.012,18.2593,99,0,
4472.44,0.829468,5.9082,3.012,18.2593,99,0,
4472.44,0.830383,5.90515,3.012,18.2593,99,0,
4472.44,0.834351,5.90363,3.012,18.2593,99,0,
4472.44,0.834045,5.90668,3.012,18.2593,99,0,
4472.45,0.833435,5.9082,3.012,18.2593,99,0,
4472.45,0.833435,5.90363,3.012,18.2593,99,0,
4472.45,0.838928,5.9021,3.012,18.2593,99,0,
4472.45,0.838928,5.9082,3.012,18.2593,99,0,
4472.45,0.838013,5.90668,3.012,18.2593,99,0,
4472.46,0.838623,5.90515,3.012,18.2593,99,0,
4472.46,0.840454,5.90668,3.012,18.2593,99,0,
4472.46,0.843506,5.90363,3.012,18.2593,99,0,
4472.46,0.844116,5.9021,3.012,18.2593,99,0,
4472.46,0.843201,5.90668,3.012,18.2593,99,0,
4472.47,0.844116,5.90363,3.012,18.2593,99,0,
4472.47,0.843811,5.90668,3.012,18.2593,99,0,
4472.47,0.847778,5.90515,3.012,18.2593,99,0,
4472.47,0.849609,5.90515,3.012,18.2593,99,0,
4472.47,0.848694,5.90515,3.012,18.2593,99,0,
4472.48,0.848999,5.90515,3.012,18.2593,99,0,
4472.48,0.847778,5.90515,3.012,18.2593,99,0,
4472.48,0.847473,5.90363,3.012,18.2593,99,0,
4472.48,0.853271,5.90363,3.012,18.2593,99,0,
4472.48,0.853882,5.90363,3.012,18.2593,99,0,
4472.49,0.853577,5.90668,3.012,18.2593,99,0,
4472.49,0.852966,5.90363,3.012,18.2593,99,0,
4472.49,0.852966,5.90515,3.012,18.2593,99,0,
4472.49,0.853271,5.9082,3.012,18.2593,99,0,
4472.49,0.852966,5.90363,3.012,18.2593,99,0,
4472.5,0.854492,5.90668,3.012,18.2593,99,0,
4472.5,0.858765,5.90515,3.012,18.2593,99,0,
4472.5,0.858459,5.90515,3.012,18.2593,99,0,
4472.5,0.858154,5.90515,3.012,18.2593,99,0,
4472.5,0.857849,5.90515,3.012,18.2593,99,0,
4472.51,0.858459,5.90668,3.012,18.2593,99,0,
4472.51,0.858459,5.90363,3.012,18.2593,99,0,
4472.51,0.858154,5.90515,3.012,18.2593,99,0,
4472.51,0.858459,5.9082,3.012,18.2593,99,0,
4472.51,0.857849,5.90363,3.012,18.2593,99,0,
4472.52,0.858154,5.90363,3.012,18.2593,99,0,
4472.52,0.857849,5.90668,3.012,18.2593,99,0,
4472.52,0.862732,5.90668,3.012,18.2593,99,0,
4472.52,0.863037,5.90515,3.012,18.2593,99,0,
4472.52,0.863342,5.90668,3.012,18.2593,99,0,
4472.53,0.863037,5.90515,3.012,18.2593,99,0,
4472.53,0.863037,5.90515,3.012,18.2593,99,0,
4472.53,0.863342,5.90363,3.012,18.2593,99,0,
4472.53,0.863342,5.90515,3.012,18.2593,99,0,
4472.53,0.863037,5.90668,3.012,18.2593,99,0,
4472.54,0.862732,5.90363,3.012,18.2593,99,0,
4472.54,0.863037,5.90515,3.012,18.2593,99,0,
4472.54,0.863342,5.9082,3.012,18.2593,99,0,
4472.54,0.863342,5.9021,3.012,18.2593,99,0,
4472.54,0.862427,5.90363,3.012,15.8646,99,0,
4472.55,0.862732,5.90668,3.012,15.8646,99,0,
4472.55,0.863647,5.9082,3.012,15.8646,99,0,
4472.55,0.863037,5.90515,3.012,15.8646,99,0,
4472.55,0.862427,5.9082,3.012,15.8646,99,0,
4472.55,0.863037,5.90668,3.012,15.8646,99,0,
4472.56,0.862732,5.90515,3.012,15.8646,99,0,
4472.56,0.863037,5.90363,3.012,15.8646,99,0,
4472.56,0.863342,5.90668,3.012,15.8646,99,0,
4472.56,0.863037,5.90515,3.012,15.8646,99,0,
4472.56,0.862732,5.90363,3.012,15.8646,99,0,
4472.57,0.858154,5.90363,3.012,15.8646,99,0,
4472.57,0.858459,5.90515,3.012,15.8646,99,0,
4472.57,0.858154,5.90515,3.012,15.8646,99,0,
4472.57,0.857849,5.90668,3.012,15.8646,99,0,
4472.57,0.858154,5.90515,3.012,15.8646,99,0,
4472.58,0.857849,5.90668,3.012,15.8646,99,0,
4472.58,0.857544,5.90363,3.012,15.8646,99,0,
4472.58,0.858154,5.90363,3.012,15.8646,99,0,
4472.58,0.857849,5.9082,3.012,15.8646,99,0,
4472.58,0.857544,5.90668,3.012,15.8646,99,0,
4472.59,0.852661,5.90515,3.012,15.8646,99,0,
4472.59,0.853882,5.9021,3.012,15.8646,99,0,
4472.59,0.853271,5.9082,3.012,15.8646,99,0,
4472.59,0.853577,5.90668,3.012,15.8646,99,0,
4472.59,0.852966,5.90515,3.012,15.8646,99,0,
4472.6,0.852051,5.90363,3.012,15.8646,99,0,
4472.6,0.848389,5.90515,3.012,15.8646,99,0,
4472.6,0.848389,5.90363,3.012,15.8646,99,0,
4472.6,0.848083,5.90668,3.012,15.8646,99,0,
4472.6,0.849304,5.90515,3.012,15.8646,99,0,
4472.61,0.843811,5.90668,3.012,15.8646,99,0,
4472.61,0.843506,5.90515,3.012,15.8646,99,0,
4472.61,0.844116,5.90515,3.012,15.8646,99,0,
4472.61,0.843201,5.90515,3.012,15.8646,99,0,
4472.61,0.838928,5.90668,3.012,15.8646,99,0,
4472.62,0.838623,5.9082,0.344,15.8646,99,0,
4472.62,0.838623,5.90363,0.344,15.8646,99,0,
4472.62,0.838013,5.90363,0.344,15.8646,99,0,
4472.62,0.83313,5.90668,0.344,15.8646,99,0,
4472.62,0.83374,5.90973,0.344,15.8646,99,0,
4472.63,0.834045,5.90515,0.344,15.8646,99,0,
4472.63,0.828552,5.90515,0.344,15.8646,99,0,
4472.63,0.828552,5.90515,0.344,15.8646,99,0,
4472.63,0.828552,5.90668,0.344,15.8646,99,0,
4472.63,0.824585,5.9021,0.344,15.8646,99,0,
4472.64,0.823669,5.90515,0.344,15.8646,99,0,
4472.64,0.822754,5.90515,0.344,15.8646,99,0,
4472.64,0.819397,5.90668,0.344,15.8646,99,0,
4472.64,0.818481,5.90515,0.344,15.8646,99,0,
4472.64,0.814819,5.90973,0.344,15.8646,99,0,
4472.65,0.814209,5.9021,0.344,15.8646,99,0,
4472.65,0.814209,5.90515,0.344,15.8646,99,0,
4472.65,0.809326,5.9082,0.344,15.8646,99,0,
4472.65,0.809326,5.90515,0.344,15.8646,99,0,
4472.65,0.8078,5.90515,0.344,15.8646,99,0,
4472.66,0.804138,5.90515,0.344,15.8646,99,0,
4472.66,0.803833,5.90668,0.344,15.8646,99,0,
4472.66,0.79895,5.90363,0.344,15.8646,99,0,
4472.66,0.799255,5.90515,0.344,15.8646,99,0,
4472.66,0.794678,5.90515,0.344,15.8646,99,0,
4472.67,0.794373,5.90668,0.344,15.8646,99,0,
4472.67,0.794067,5.90668,0.344,15.8646,99,0,
4472.67,0.78949,5.90363,0.344,15.8646,99,0,
4472.67,0.789185,5.90515,0.344,15.8646,99,0,
4472.67,0.784607,5.90668,0.344,15.8646,99,0,
4472.68,0.784607,5.9082,0.344,15.8646,99,0,
4472.68,0.780945,5.90363,0.344,15.8646,99,0,
4472.68,0.780029,5.90363,0.344,15.8646,99,0,
4472.68,0.779114,5.90515,0.344,15.8646,99,0,
4472.68,0.774536,5.90668,0.344,15.8646,99,0,
4472.69,0.773926,5.9082,0.344,15.8646,99,0,
4472.69,0.770264,5.90515,0.344,15.8646,99,0,
4472.69,0.769653,5.90668,0.344,15.8646,99,0,
4472.69,0.765381,5.90363,0.344,15.8646,99,0,
4472.69,0.765381,5.89905,0.344,15.8646,99,0,
4472.7,0.760193,5.90668,0.344,15.8646,99,0,
4472.7,0.759583,5.90363,0.344,15.8646,99,0,
4472.7,0.755005,5.90363,0.344,15.8646,99,0,
4472.7,0.75531,5.90668,0.344,15.8646,99,0,
4472.7,0.751343,5.90363,0.344,15.8646,99,0,
4472.71,0.750732,5.90515,0.344,15.8646,99,0,
4472.71,0.74585,5.90363,0.344,15.8646,99,0,
4472.71,0.746155,5.90515,0.344,15.8646,99,0,
4472.71,0.740662,5.9082,0.344,15.8646,99,0,
4472.71,0.741272,5.90668,0.344,15.8646,99,0,
4472.72,0.735779,5.90363,0.344,15.8646,99,0,
4472.72,0.735474,5.90363,0.344,15.8646,99,0,
4472.72,0.731201,5.90515,0.344,15.8646,99,0,
4472.72,0.731506,5.90515,0.344,15.8646,99,0,
4472.72,0.726318,5.90668,0.344,15.8646,99,0,
4472.73,0.725708,5.90668,0.344,15.8646,99,0,
4472.73,0.720825,5.90668,0.344,15.8646,99,0,
4472.73,0.72113,5.90515,0.344,15.8646,99,0,
4472.73,0.716248,5.90668,0.344,15.8646,99,0,
4472.73,0.715637,5.90668,0.344,15.8646,99,0,
4472.74,0.711365,5.90515,0.344,15.8646,99,0,
4472.74,0.710144,5.90668,0.344,15.8646,99,0,
4472.74,0.706177,5.90515,0.344,15.8646,99,0,
4472.74,0.706177,5.9082,0.344,15.8646,99,0,
4472.74,0.701599,5.9082,0.344,15.8646,99,0,
4472.75,0.700378,5.90668,0.344,15.8646,99,0,
4472.75,0.696106,5.90363,0.344,15.8646,99,0,
4472.75,0.695496,5.90668,0.344,15.8646,99,0,
4472.75,0.691223,5.90668,0.344,15.8646,99,0,
4472.75,0.687866,5.90363,0.344,15.8646,99,0,
4472.76,0.687256,5.90363,0.344,15.8646,99,0,
4472.76,0.683594,5.9021,0.344,15.8646,99,0,
4472.76,0.682068,5.90363,0.344,15.8646,99,0,
4472.76,0.676575,5.9082,0.344,15.8646,99,0,
4472.76,0.67688,5.90668,0.344,15.8646,99,0,
4472.77,0.672302,5.90515,0.344,15.8646,99,0,
4472.77,0.671997,5.9082,0.344,15.8646,99,0,
4472.77,0.667419,5.9082,0.344,15.8646,99,0,
4472.77,0.665894,5.90668,0.344,15.8646,99,0,
4472.77,0.662231,5.90668,0.344,15.8646,99,0,
4472.78,0.658569,5.90668,0.344,15.8646,99,0,
4472.78,0.656738,5.90515,0.344,15.8646,99,0,
4472.78,0.653076,5.90363,0.344,15.8646,99,0,
4472.78,0.652161,5.90515,0.344,15.8646,99,0,
4472.78,0.647583,5.90363,0.344,15.8646,99,0,
4472.79,0.647583,5.90363,0.344,15.8646,99,0,
4472.79,0.6427,5.90973,0.344,15.8646,99,0,
4472.79,0.640869,5.90363,0.344,15.8646,99,0,
4472.79,0.636902,5.90515,0.344,15.8646,99,0,
4472.79,0.63385,5.90668,0.344,15.8646,99,0,
4472.8,0.63324,5.90515,0.344,15.8646,99,0,
4472.8,0.628052,5.90363,0.344,15.8646,99,0,
4472.8,0.627747,5.90515,0.344,15.8646,99,0,
4472.8,0.623169,5.90363,0.344,15.8646,99,0,
4472.8,0.622864,5.90668,0.344,15.8646,99,0,
4472.81,0.620422,5.90668,0.344,15.8646,99,0,
4472.81,0.613098,5.90668,0.344,15.8646,99,0,
4472.81,0.609436,5.90363,0.344,15.8646,99,0,
4472.81,0.60791,5.90363,0.344,15.8646,99,0,
4472.81,0.603027,5.90668,0.344,15.8646,99,0,
4472.82,0.603638,5.90515,0.344,15.8646,99,0,
4472.82,0.59845,5.90668,0.344,15.8646,99,0,
4472.82,0.597229,5.9082,0.344,15.8646,99,0,
4472.82,0.593262,5.90668,0.344,15.8646,99,0,
4472.82,0.592041,5.90515,0.344,15.8646,99,0,
4472.83,0.588684,5.9021,0.344,15.8646,99,0,
4472.83,0.585327,5.90515,0.344,15.8646,99,0,
4472.83,0.583801,5.90668,0.344,15.8646,99,0,
4472.83,0.579224,5.90668,0.344,15.8646,99,0,
4472.83,0.579529,5.90363,0.344,15.8646,99,0,
4472.84,0.57373,5.90668,0.344,15.8646,99,0,
4472.84,0.572205,5.9021,0.344,15.8646,99,0,
4472.84,0.568848,5.90668,0.344,15.8646,99,0,
4472.84,0.564575,5.90668,0.344,15.8646,99,0,
4472.84,0.564575,5.90668,0.344,15.8646,99,0,
4472.85,0.559387,5.9021,0.344,15.8646,99,0,
4472.85,0.559998,5.90668,0.344,15.8646,99,0,
4472.85,0.555115,5.90363,0.344,15.8646,99,0,
4472.85,0.554199,5.9082,0.344,15.8646,99,0,
4472.85,0.549622,5.9082,0.344,15.8646,99,0,
4472.86,0.547791,5.9021,0.344,15.8646,99,0,
4472.86,0.544434,5.90363,0.344,15.8646,99,0,
4472.86,0.541077,5.90515,0.344,15.8646,99,0,
4472.86,0.539551,5.90515,0.344,15.8646,99,0,
4472.86,0.536194,5.90515,0.344,15.8646,99,0,
4472.87,0.534973,5.90668,0.344,15.8646,99,0,
4472.87,0.529785,5.90363,0.344,15.8646,99,0,
4472.87,0.530701,5.90668,0.344,15.8646,99,0,
4472.87,0.524902,5.90668,0.344,15.8646,99,0,
4472.87,0.525208,5.90363,0.344,15.8646,99,0,
4472.88,0.52002,5.90363,0.344,15.8646,99,0,
4472.88,0.518799,5.90668,0.344,15.8646,99,0,
4472.88,0.514221,5.90668,0.344,15.8646,99,0,
4472.88,0.515442,5.90363,0.344,15.8646,99,0,
4472.88,0.510254,5.90515,0.344,15.8646,99,0,
4472.89,0.509949,5.90363,0.344,15.8646,99,0,
4472.89,0.504761,5.90363,0.344,15.8646,99,0,
4472.89,0.503235,5.90668,0.344,15.8646,99,0,
4472.89,0.500183,5.90363,0.344,15.8646,99,0,
4472.89,0.498657,5.90668,0.344,15.8646,99,0,
4472.9,0.4953,5.90515,0.344,15.8646,99,0,
4472.9,0.491028,5.90515,0.344,15.8646,99,0,
4472.9,0.489807,5.90973,0.344,15.8646,99,0,
4472.9,0.48645,5.90973,0.344,15.8646,99,0,
4472.9,0.48645,5.90668,0.344,15.8646,99,0,
4472.91,0.481262,5.90363,0.344,15.8646,99,0,
4472.91,0.481567,5.90515,0.344,15.8646,99,0,
4472.91,0.475464,5.90515,0.344,15.8646,99,0,
4472.91,0.475464,5.9082,0.344,15.8646,99,0,
4472.91,0.471191,5.90515,0.344,15.8646,99,0,
4472.92,0.470581,5.90515,0.344,15.8646,99,0,
4472.92,0.466309,5.90668,0.344,15.8646,99,0,
4472.92,0.465393,5.90668,0.344,15.8646,99,0,
4472.92,0.461426,5.9082,0.344,15.8646,99,0,
4472.92,0.461121,5.90515,0.344,15.8646,99,0,
4472.93,0.455933,5.90363,0.344,15.8646,99,0,
4472.93,0.456238,5.90515,0.344,15.8646,99,0,
4472.93,0.45166,5.90515,0.344,15.8646,99,0,
4472.93,0.451355,5.90668,0.344,15.8646,99,0,
4472.93,0.446167,5.90668,0.344,15.8646,99,0,
4472.94,0.446472,5.90515,0.344,15.8646,99,0,
4472.94,0.4422,5.90668,0.344,15.8646,99,0,
4472.94,0.440674,5.90363,0.344,15.8646,99,0,
4472.94,0.436401,5.9082,0.344,15.8646,99,0,
4472.94,0.436401,5.90668,0.344,15.8646,99,0,
4472.95,0.431824,5.9082,0.344,15.8646,99,0,
4472.95,0.431519,5.90363,0.344,15.8646,99,0,
4472.95,0.430603,5.90515,0.344,15.8646,99,0,
4472.95,0.422058,5.90515,0.344,15.8646,99,0,
4472.95,0.421753,5.90668,0.344,15.8646,99,0,
4472.96,0.41687,5.90973,0.344,15.8646,99,0,
4472.96,0.41748,5.90668,0.344,15.8646,99,0,
4472.96,0.412292,5.90515,0.344,15.8646,99,0,
4472.96,0.412292,5.90668,0.344,15.8646,99,0,
4472.96,0.410767,5.90973,0.344,15.8646,99,0,
4472.97,0.407104,5.9082,0.344,15.8646,99,0,
4472.97,0.405884,5.90515,0.344,15.8646,99,0,
4472.97,0.402222,5.9021,0.344,15.8646,99,0,
4472.97,0.402832,5.90363,0.344,15.8646,99,0,
4472.97,0.397034,5.90515,0.344,15.8646,99,0,
4472.98,0.397339,5.90515,0.344,15.8646,99,0,
4472.98,0.397339,5.90668,0.344,15.8646,99,0,
4472.98,0.394287,5.90363,0.344,15.8646,99,0,
4472.98,0.387268,5.9021,0.344,15.8646,99,0,
4472.98,0.387573,5.90363,0.344,15.8646,99,0,
4472.99,0.382996,5.9021,0.344,15.8646,99,0,
4472.99,0.38269,5.90515,0.344,15.8646,99,0,
4472.99,0.376892,5.90668,0.344,15.8646,99,0,
4472.99,0.378113,5.90668,0.344,15.8646,99,0,
4472.99,0.374756,5.9082,0.344,15.8646,99,0,
4473,0.37323,5.90363,0.344,15.8646,99,0,
4473,0.372009,5.9021,0.344,15.8646,99,0,
4473,0.368347,5.90363,0.344,15.8646,99,0,
4473,0.368347,5.90515,0.344,15.8646,99,0,
4473,0.36377,5.9021,0.344,15.8646,99,0,
4473.01,0.363159,5.9021,0.344,15.8646,99,0,
4473.01,0.36377,5.90668,0.344,15.8646,99,0,
4473.01,0.361938,5.90668,0.344,15.8646,99,0,
4473.01,0.357056,5.90363,0.344,15.8646,99,0,
4473.01,0.353394,5.90363,0.344,15.8646,99,0,
4473.02,0.353088,5.9082,0.344,15.8646,99,0,
4473.02,0.349121,5.90515,0.344,15.8646,99,0,
4473.02,0.348511,5.9021,0.344,15.8646,99,0,
4473.02,0.34729,5.9082,0.344,15.8646,99,0,
4473.02,0.343018,5.90515,0.344,15.8646,99,0,
4473.03,0.343323,5.90515,0.344,15.8646,99,0,
4473.03,0.339355,5.90515,0.344,15.8646,99,0,
4473.03,0.33844,5.90363,0.344,15.8646,99,0,
4473.03,0.336914,5.90515,0.344,15.8646,99,0,
4473.03,0.333862,5.90668,0.344,15.8646,99,0,
4473.04,0.333557,5.90363,0.344,15.8646,99,0,
4473.04,0.330505,5.90668,0.344,15.8646,99,0,
4473.04,0.328064,5.90668,0.344,15.8646,99,0,
4473.04,0.328674,5.9082,0.344,15.8646,99,0,
4473.04,0.324402,5.9082,0.344,15.8646,99,0,
4473.05,0.324097,5.90668,0.344,15.8646,99,0,
4473.05,0.323486,5.9082,0.344,15.8646,99,0,
4473.05,0.32196,5.90668,0.344,15.8646,99,0,
4473.05,0.318604,5.90668,0.344,15.8646,99,0,
4473.05,0.314636,5.90668,0.344,15.8646,99,0,
4473.06,0.314636,5.90668,0.344,15.8646,99,0,
4473.06,0.314026,5.90973,0.344,15.8646,99,0,
4473.06,0.309448,5.9082,0.344,15.8646,99,0,
4473.06,0.309448,5.90515,0.344,15.8646,99,0,
4473.06,0.309143,5.90668,0.344,15.8646,99,0,
4473.07,0.30426,5.90668,0.344,15.8646,99,0,
4473.07,0.304565,5.90668,0.344,15.8646,99,0,
4473.07,0.30426,5.90515,0.344,15.8646,99,0,
4473.07,0.30304,5.90668,0.344,15.8646,99,0,
4473.07,0.299988,5.90973,0.344,15.8646,99,0,
4473.08,0.299072,5.90668,0.344,15.8646,99,0,
4473.08,0.298462,5.90515,0.344,15.8646,99,0,
4473.08,0.294189,5.9082,0.344,15.8646,99,0,
4473.08,0.294495,5.90363,0.344,15.8646,99,0,
4473.08,0.293579,5.90363,0.344,15.8646,99,0,
4473.09,0.289612,5.90668,0.344,15.8646,99,0,
4473.09,0.289001,5.90363,0.344,15.8646,99,0,
4473.09,0.288391,5.91126,0.344,15.8646,99,0,
4473.09,0.284729,5.90668,0.344,15.8646,99,0,
4473.09,0.285034,5.90515,0.344,15.8646,99,0,
4473.1,0.284729,5.9082,0.344,15.8646,99,0,
4473.1,0.279846,5.90668,0.344,15.8646,99,0,
4473.1,0.279541,5.9021,0.344,15.8646,99,0,
4473.1,0.280457,5.9082,0.344,15.8646,99,0,
4473.1,0.274658,5.90363,0.344,15.8646,99,0,
4473.11,0.275269,5.90515,0.344,15.8646,99,0,
4473.11,0.275574,5.90515,0.344,15.8646,99,0,
4473.11,0.273743,5.90363,0.344,15.8646,99,0,
4473.11,0.270081,5.90668,0.344,15.8646,99,0,
4473.11,0.270081,5.90515,0.344,15.8646,99,0,
4473.12,0.266418,5.90515,0.344,15.8646,99,0,
4473.12,0.265198,5.90363,0.344,15.8646,99,0,
4473.12,0.264893,5.90363,0.344,15.8646,99,0,
4473.12,0.261536,5.90668,0.344,15.8646,99,0,
4473.12,0.259705,5.90668,0.344,15.8646,99,0,
4473.13,0.259705,5.90515,0.344,15.8646,99,0,
4473.13,0.260315,5.90515,0.344,15.8646,99,0,
4473.13,0.255127,5.90363,0.344,15.8646,99,0,
4473.13,0.256042,5.90668,0.344,15.8646,99,0,
4473.13,0.255127,5.90668,0.344,15.8646,99,0,
4473.14,0.25177,5.9082,0.344,15.8646,99,0,
4473.14,0.250549,5.90515,0.344,15.8646,99,0,
4473.14,0.250854,5.90668,0.344,15.8646,99,0,
4473.14,0.250549,5.9021,0.344,15.8646,99,0,
4473.14,0.245361,5.90515,0.344,15.8646,99,0,
4473.15,0.245667,5.90668,0.344,15.8646,99,0,
4473.15,0.246277,5.90668,0.344,15.8646,99,0,
4473.15,0.241699,5.9082,0.344,15.8646,99,0,
4473.15,0.240784,5.90363,0.344,15.8646,99,0,
4473.15,0.240784,5.90973,0.344,15.8646,99,0,
4473.16,0.240784,5.90668,0.344,15.8646,99,0,
4473.16,0.236511,5.9082,0.344,15.8646,99,0,
4473.16,0.235596,5.90363,0.344,15.8646,99,0,
4473.16,0.235596,5.90363,0.344,15.8646,99,0,
4473.16,0.235291,5.9082,0.344,15.8646,99,0,
4473.17,0.230713,5.9021,0.344,15.8646,99,0,
4473.17,0.230408,5.90515,0.344,15.8646,99,0,
4473.17,0.230103,5.9082,0.344,15.8646,99,0,
4473.17,0.230103,5.90515,0.344,15.8646,99,0,
4473.17,0.22583,5.90515,0.344,15.8646,99,0,
4473.18,0.225525,5.90363,0.344,15.8646,99,0,
4473.18,0.226135,5.90668,0.344,15.8646,99,0,
4473.18,0.224609,5.90515,0.344,15.8646,99,0,
4473.18,0.221252,5.90515,0.344,15.8646,99,0,
4473.18,0.221252,5.90515,0.344,15.8646,99,0,
4473.19,0.220947,5.9082,0.344,15.8646,99,0,
4473.19,0.21759,5.90668,0.344,15.8646,99,0,
4473.19,0.21637,5.90515,0.344,15.8646,99,0,
4473.19,0.216675,5.90515,0.344,15.8646,99,0,
4473.19,0.216064,5.90515,0.344,15.8646,99,0,
4473.2,0.212402,5.90668,0.344,15.8646,99,0,
4473.2,0.210571,5.90363,0.344,15.8646,99,0,
4473.2,0.210876,5.90515,0.344,15.8646,99,0,
4473.2,0.211487,5.9082,0.344,15.8646,99,0,
4473.2,0.207825,5.9082,0.344,15.8646,99,0,
4473.21,0.205688,5.90668,0.344,15.8646,99,0,
4473.21,0.205994,5.9021,0.344,15.8646,99,0,
4473.21,0.206604,5.90363,0.344,15.8646,99,0,
4473.21,0.202637,5.90668,0.344,15.8646,99,0,
4473.21,0.201416,5.90668,0.344,15.8646,99,0,
4473.22,0.201111,5.90668,0.344,15.8646,99,0,
4473.22,0.202026,5.90363,0.344,15.8646,99,0,
4473.22,0.196228,5.90515,0.344,15.8646,99,0,
4473.22,0.197144,5.90515,0.344,15.8646,99,0,
4473.22,0.196838,5.90363,0.344,15.8646,99,0,
4473.23,0.196533,5.9021,0.344,15.8646,99,0,
4473.23,0.191956,5.90515,0.344,15.8646,99,0,
4473.23,0.191956,5.9082,0.344,15.8646,99,0,
4473.23,0.19165,5.90363,0.344,15.8646,99,0,
4473.23,0.191345,5.90363,0.344,15.8646,99,0,
4473.24,0.186768,5.90515,0.344,15.8646,99,0,
4473.24,0.186768,5.90515,0.344,15.8646,99,0,
4473.24,0.186462,5.90515,0.344,15.8646,99,0,
4473.24,0.185852,5.90515,0.344,15.8646,99,0,
4473.24,0.181885,5.9082,0.344,15.8646,99,0,
4473.25,0.181885,5.90668,0.344,15.8646,99,0,
4473.25,0.18158,5.90515,0.344,15.8646,99,0,
4473.25,0.177917,5.90668,0.344,15.8646,99,0,
4473.25,0.176697,5.9021,0.344,15.8646,99,0,
4473.25,0.177307,5.90668,0.344,15.8646,99,0,
4473.26,0.176392,5.9021,0.344,15.8646,99,0,
4473.26,0.172424,5.90515,0.344,15.8646,99,0,
4473.26,0.171509,5.9082,0.344,15.8646,99,0,
4473.26,0.172119,5.9082,0.344,15.8646,99,0,
4473.26,0.169983,5.90668,0.344,15.8646,99,0,
4473.27,0.166931,5.9082,0.344,15.8646,99,0,
4473.27,0.167236,5.9021,0.344,15.8646,99,0,
4473.27,0.166931,5.90515,0.344,15.8646,99,0,
4473.27,0.161743,5.90668,0.344,15.8646,99,0,
4473.27,0.162048,5.90363,0.344,15.8646,99,0,
4473.28,0.162048,5.90515,0.344,15.8646,99,0,
4473.28,0.158997,5.9082,0.344,15.8646,99,0,
4473.28,0.157166,5.90515,0.344,15.8646,99,0,
4473.28,0.157166,5.90515,0.344,15.8646,99,0,
4473.28,0.153198,5.90515,0.344,15.8646,99,0,
4473.29,0.152588,5.90668,0.344,15.8646,99,0,
4473.29,0.152283,5.90363,0.344,15.8646,99,0,
4473.29,0.151367,5.90363,0.344,15.8646,99,0,
4473.29,0.14679,5.90973,0.344,15.8646,99,0,
4473.29,0.14801,5.90973,0.344,15.8646,99,0,
4473.3,0.146484,5.90363,0.344,15.8646,99,0,
4473.3,0.142517,5.90668,0.344,15.8646,99,0,
4473.3,0.142822,5.90668,0.344,15.8646,99,0,
4473.3,0.142822,5.90668,0.344,15.8646,99,0,
4473.3,0.137634,5.90363,0.344,15.8646,99,0,
4473.31,0.137329,5.90668,0.344,15.8646,99,0,
4473.31,0.136719,5.90515,0.344,15.8646,99,0,
4473.31,0.133057,5.90668,0.344,15.8646,99,0,
4473.31,0.133057,5.90515,0.344,15.8646,99,0,
4473.31,0.133362,5.90515,0.344,15.8646,99,0,
4473.32,0.127869,5.9082,0.344,15.8646,99,0,
4473.32,0.128784,5.90363,0.344,15.8646,99,0,
4473.32,0.128174,5.9082,0.344,15.8646,99,0,
4473.32,0.124512,5.90515,0.344,15.8646,99,0,
4473.32,0.123291,5.90363,0.344,15.8646,99,0,
4473.33,0.123596,5.90668,0.344,15.8646,99,0,
4473.33,0.118408,5.90515,0.344,15.8646,99,0,
4473.33,0.118408,5.90363,0.344,15.8646,99,0,
4473.33,0.117493,5.90515,0.344,15.8646,99,0,
4473.33,0.113525,5.90515,0.344,15.8646,99,0,
4473.34,0.114136,5.9021,0.344,15.8646,99,0,
4473.34,0.111389,5.90515,0.344,15.8646,99,0,
4473.34,0.109253,5.90668,0.344,15.8646,99,0,
4473.34,0.108032,5.9082,0.344,15.8646,99,0,
4473.34,0.104065,5.90515,0.344,15.8646,99,0,
4473.35,0.103455,5.90668,0.344,15.8646,99,0,
4473.35,0.101624,5.9082,0.344,15.8646,99,0,
4473.35,0.0982666,5.90668,0.344,15.8646,99,0,
4473.35,0.0985718,5.90515,0.344,15.8646,99,0,
4473.35,0.0942993,5.90668,0.344,15.8646,99,0,
4473.36,0.093689,5.9082,0.344,15.8646,99,0,
4473.36,0.0918579,5.90363,0.344,15.8646,99,0,
4473.36,0.088501,5.90363,0.344,15.8646,99,0,
4473.36,0.088501,5.90668,0.344,15.8646,99,0,
4473.36,0.083313,5.90515,0.344,15.8646,99,0,
4473.37,0.0842285,5.90515,0.344,15.8646,99,0,
4473.37,0.0802612,5.90515,0.344,15.8646,99,0,
4473.37,0.0793457,5.90668,0.344,15.8646,99,0,
4473.37,0.0799561,5.9082,0.344,15.8646,99,0,
4473.37,0.0744629,5.90668,0.344,15.8646,99,0,
4473.38,0.0747681,5.9082,0.344,15.8646,99,0,
4473.38,0.0695801,5.90515,0.344,15.8646,99,0,
4473.38,0.0695801,5.90515,0.344,15.8646,99,0,
4473.38,0.0665283,5.90668,0.344,15.8646,99,0,
4473.38,0.0650024,5.90668,0.344,15.8646,99,0,
4473.39,0.0634766,5.90515,0.344,15.8646,99,0,
4473.39,0.0601196,5.90668,0.344,15.8646,99,0,
4473.39,0.0601196,5.90515,0.344,15.8646,99,0,
4473.39,0.0549316,5.90668,0.344,15.8646,99,0,
4473.39,0.0552368,5.9082,0.344,15.8646,99,0,
4473.4,0.0512695,5.9082,0.344,15.8646,99,0,
4473.4,0.0497437,5.90515,0.344,15.8646,99,0,
4473.4,0.0491333,5.9082,0.344,15.8646,99,0,
4473.4,0.0445557,5.9082,0.344,15.8646,99,0,
4473.4,0.045166,5.90515,0.344,15.8646,99,0,
4473.41,0.039978,5.90363,0.344,15.8646,99,0,
4473.41,0.039978,5.90515,0.344,15.8646,99,0,
4473.41,0.0363159,5.90668,0.344,15.8646,99,0,
4473.41,0.0350952,5.90668,0.344,15.8646,99,0,
4473.41,0.0305176,5.9082,0.344,15.8646,99,0,
4473.42,0.0311279,5.90363,0.344,15.8646,99,0,
4473.42,0.0296021,5.90515,0.344,15.8646,99,0,
4473.42,0.0259399,5.90515,0.344,15.8646,99,0,
4473.42,0.0253296,5.9021,0.344,15.8646,99,0,
4473.42,0.020752,5.90668,0.344,15.8646,99,0,
4473.43,0.020752,5.90515,0.344,15.8646,99,0,
4473.43,0.015564,5.90515,0.344,15.8646,99,0,
4473.43,0.015564,5.90515,0.344,15.8646,99,0,
4473.43,0.0109863,5.90363,0.344,15.8646,99,0,
4473.43,0.0109863,5.90363,0.344,15.8646,99,0,
4473.44,0.00701904,5.90668,0.344,15.8646,99,0,
4473.44,0.00549316,5.90515,0.344,15.8646,99,0,
4473.44,0.00488281,5.90668,0.344,15.8646,99,0,
4473.44,0.000915527,5.9082,0.344,15.8646,99,0,
4473.44,0.000305176,5.9082,0.344,15.8646,99,0,
4473.45,-0.00457764,5.90363,0.344,15.8646,99,0,
4473.45,-0.00457764,5.90668,0.344,15.8646,99,0,
4473.45,-0.00854492,5.90973,0.344,15.8646,99,0,
4473.45,-0.00854492,5.90515,0.344,15.8646,99,0,
4473.45,-0.0137329,5.90668,0.344,15.8646,99,0,
4473.46,-0.0134277,5.90515,0.344,15.8646,99,0,
4473.46,-0.0189209,5.90363,0.344,15.8646,99,0,
4473.46,-0.0186157,5.9021,0.344,15.8646,99,0,
4473.46,-0.0228882,5.90363,0.344,15.8646,99,0,
4473.46,-0.0234985,5.90668,0.344,15.8646,99,0,
4473.47,-0.0274658,5.9082,0.344,15.8646,99,0,
4473.47,-0.0286865,5.9082,0.344,15.8646,99,0,
4473.47,-0.0292969,5.9082,0.344,15.8646,99,0,
4473.47,-0.0332642,5.90668,0.344,15.8646,99,0,
4473.47,-0.0344849,5.90668,0.344,15.8646,99,0,
4473.48,-0.038147,5.90668,0.344,15.8646,99,0,
4473.48,-0.0387573,5.90363,0.344,15.8646,99,0,
4473.48,-0.043335,5.90973,0.344,15.8646,99,0,
4473.48,-0.043335,5.90363,0.344,15.8646,99,0,
4473.48,-0.0482178,5.90515,0.344,15.8646,99,0,
4473.49,-0.0479126,5.90515,0.344,15.8646,99,0,
4473.49,-0.0527954,5.90668,0.344,15.8646,99,0,
4473.49,-0.0537109,5.9082,0.344,15.8646,99,0,
4473.49,-0.0570679,5.90363,0.344,15.8646,99,0,
4473.49,-0.057373,5.9082,0.344,15.8646,99,0,
4473.5,-0.0622559,5.9082,0.344,15.8646,99,0,
4473.5,-0.0622559,5.9082,0.344,15.8646,99,0,
4473.5,-0.0665283,5.90515,0.344,15.8646,99,0,
4473.5,-0.0680542,5.90515,0.344,15.8646,99,0,
4473.5,-0.0717163,5.9082,0.344,15.8646,99,0,
4473.51,-0.072937,5.90515,0.344,15.8646,99,0,
4473.51,-0.0762939,5.9082,0.344,15.8646,99,0,
4473.51,-0.0769043,5.90668,0.344,15.8646,99,0,
4473.51,-0.0790405,5.9021,0.344,15.8646,99,0,
4473.51,-0.0827026,5.9082,0.344,15.8646,99,0,
4473.52,-0.083313,5.9082,0.344,15.8646,99,0,
4473.52,-0.0866699,5.90668,0.344,15.8646,99,0,
4473.52,-0.0891113,5.9082,0.344,15.8646,99,0,
4473.52,-0.0912476,5.90668,0.344,15.8646,99,0,
4473.52,-0.0924683,5.90515,0.344,15.8646,99,0,
4473.53,-0.0970459,5.90515,0.344,15.8646,99,0,
4473.53,-0.0976562,5.90515,0.344,15.8646,99,0,
4473.53,-0.098877,5.90363,0.344,15.8646,99,0,
4473.53,-0.106812,5.90668,0.344,15.8646,99,0,
4473.53,-0.106812,5.90668,0.344,15.8646,99,0,
4473.54,-0.111694,5.90515,0.344,15.8646,99,0,
4473.54,-0.111389,5.90363,0.344,15.8646,99,0,
4473.54,-0.116577,5.90515,0.344,15.8646,99,0,
4473.54,-0.116882,5.90363,0.344,15.8646,99,0,
4473.54,-0.116882,5.90363,0.344,15.8646,99,0,
4473.55,-0.12146,5.9082,0.344,15.8646,99,0,
4473.55,-0.12146,5.90363,0.344,15.8646,99,0,
4473.55,-0.126038,5.90668,0.344,15.8646,99,0,
4473.55,-0.126038,5.90363,0.344,15.8646,99,0,
4473.55,-0.127563,5.91126,0.344,15.8646,99,0,
4473.56,-0.13092,5.90515,0.344,15.8646,99,0,
4473.56,-0.133057,5.90057,0.344,15.8646,99,0,
4473.56,-0.136108,5.90515,0.344,15.8646,99,0,
4473.56,-0.136414,5.90515,0.344,15.8646,99,0,
4473.56,-0.140991,5.9082,0.344,15.8646,99,0,
4473.57,-0.141602,5.90668,0.344,15.8646,99,0,
4473.57,-0.146484,5.9082,0.344,15.8646,99,0,
4473.57,-0.145874,5.90363,0.344,15.8646,99,0,
4473.57,-0.150757,5.90363,0.344,15.8646,99,0,
4473.57,-0.150757,5.90515,0.344,15.8646,99,0,
4473.58,-0.155945,5.9021,0.344,15.8646,99,0,
4473.58,-0.155945,5.90668,0.344,15.8646,99,0,
4473.58,-0.160217,5.90668,0.344,15.8646,99,0,
4473.58,-0.160522,5.90668,0.344,15.8646,99,0,
4473.58,-0.162354,5.90668,0.344,15.8646,99,0,
4473.59,-0.16571,5.90515,0.344,15.8646,99,0,
4473.59,-0.166321,5.90363,0.344,15.8646,99,0,
4473.59,-0.170898,5.90668,0.344,15.8646,99,0,
4473.59,-0.170593,5.90363,0.344,15.8646,99,0,
4473.59,-0.175781,5.90973,0.344,15.8646,99,0,
4473.6,-0.175476,5.90363,0.344,15.8646,99,0,
4473.6,-0.180359,5.90515,0.344,15.8646,99,0,
4473.6,-0.180664,5.90515,0.344,15.8646,99,0,
4473.6,-0.184631,5.90668,0.344,15.8646,99,0,
4473.6,-0.185242,5.90668,0.344,15.8646,99,0,
4473.61,-0.188293,5.90363,0.344,15.8646,99,0,
4473.61,-0.190125,5.90515,0.344,15.8646,99,0,
4473.61,-0.19165,5.9021,0.344,15.8646,99,0,
4473.61,-0.195007,5.90363,0.344,15.8646,99,0,
4473.61,-0.195618,5.90515,0.344,15.8646,99,0,
4473.62,-0.19989,5.9082,0.344,15.8646,99,0,
4473.62,-0.200195,5.9082,0.344,15.8646,99,0,
4473.62,-0.204468,5.9082,0.344,15.8646,99,0,
4473.62,-0.204773,5.90515,0.344,15.8646,99,0,
4473.62,-0.20874,5.9082,0.344,15.8646,99,0,
4473.63,-0.210876,5.90515,0.344,15.8646,99,0,
4473.63,-0.213928,5.90668,0.344,15.8646,99,0,
4473.63,-0.214844,5.90363,0.344,15.8646,99,0,
4473.63,-0.215149,5.9021,0.344,15.8646,99,0,
4473.63,-0.219421,5.90515,0.344,15.8646,99,0,
4473.64,-0.219727,5.90973,0.344,15.8646,99,0,
4473.64,-0.22522,5.90668,0.344,15.8646,99,0,
4473.64,-0.225525,5.90668,0.344,15.8646,99,0,
4473.64,-0.229797,5.90363,0.344,15.8646,99,0,
4473.64,-0.229187,5.90973,0.344,15.8646,99,0,
4473.65,-0.233154,5.90515,0.344,15.8646,99,0,
4473.65,-0.23407,5.90668,0.344,15.8646,99,0,
4473.65,-0.235596,5.90363,0.344,15.8646,99,0,
4473.65,-0.239563,5.90668,0.344,15.8646,99,0,
4473.65,-0.239258,5.90515,0.344,15.8646,99,0,
4473.66,-0.243835,5.9082,0.344,15.8646,99,0,
4473.66,-0.244446,5.90515,0.344,15.8646,99,0,
4473.66,-0.247803,5.9082,0.344,15.8646,99,0,
4473.66,-0.249023,5.90668,0.344,15.8646,99,0,
4473.66,-0.250244,5.90668,0.344,15.8646,99,0,
4473.67,-0.253906,5.90668,0.344,15.8646,99,0,
4473.67,-0.253906,5.90515,0.344,15.8646,99,0,
4473.67,-0.259705,5.9082,0.344,15.8646,99,0,
4473.67,-0.258789,5.90668,0.344,15.8646,99,0,
4473.67,-0.263367,5.9082,0.344,15.8646,99,0,
4473.68,-0.263672,5.90363,0.344,15.8646,99,0,
4473.68,-0.265198,5.9082,0.344,15.8646,99,0,
4473.68,-0.26886,5.90668,0.344,15.8646,99,0,
4473.68,-0.268555,5.90668,0.344,15.8646,99,0,
4473.68,-0.273438,5.90363,0.344,15.8646,99,0,
4473.69,-0.274048,5.90668,0.344,15.8646,99,0,
4473.69,-0.277405,5.90363,0.344,15.8646,99,0,
4473.69,-0.278625,5.90668,0.344,15.8646,99,0,
4473.69,-0.27771,5.9082,0.344,15.8646,99,0,
4473.69,-0.283813,5.9082,0.344,15.8646,99,0,
4473.7,-0.283813,5.9021,0.344,15.8646,99,0,
4473.7,-0.28717,5.90515,0.344,15.8646,99,0,
4473.7,-0.288391,5.9082,0.344,15.8646,99,0,
4473.7,-0.289001,5.90668,0.344,15.8646,99,0,
4473.7,-0.293274,5.90515,0.344,15.8646,99,0,
4473.71,-0.293579,5.90363,0.344,15.8646,99,0,
4473.71,-0.296936,5.90668,0.344,15.8646,99,0,
4473.71,-0.297852,5.90363,0.344,15.8646,99,0,
4473.71,-0.298157,5.90515,0.344,15.8646,99,0,
4473.71,-0.303345,5.90668,0.344,15.8646,99,0,
4473.72,-0.30304,5.90668,0.344,15.8646,99,0,
4473.72,-0.304565,5.90515,0.344,15.8646,99,0,
4473.72,-0.307617,5.90515,0.344,15.8646,99,0,
4473.72,-0.307922,5.90363,0.344,15.8646,99,0,
4473.72,-0.312195,5.90515,0.344,15.8646,99,0,
4473.73,-0.31311,5.90363,0.344,15.8646,99,0,
4473.73,-0.3125,5.90515,0.344,15.8646,99,0,
4473.73,-0.317688,5.9021,0.344,15.8646,99,0,
4473.73,-0.317993,5.90515,0.344,15.8646,99,0,
4473.73,-0.318909,5.90515,0.344,15.8646,99,0,
4473.74,-0.323181,5.90668,0.344,15.8646,99,0,
4473.74,-0.323181,5.90363,0.344,15.8646,99,0,
4473.74,-0.324097,5.90515,0.344,15.8646,99,0,
4473.74,-0.327759,5.90668,0.344,15.8646,99,0,
4473.74,-0.327148,5.90515,0.344,15.8646,99,0,
4473.75,-0.331726,5.90668,0.344,15.8646,99,0,
4473.75,-0.332642,5.9082,0.344,15.8646,99,0,
4473.75,-0.332031,5.90363,0.344,15.8646,99,0,
4473.75,-0.336609,5.90515,0.344,15.8646,99,0,
4473.75,-0.337219,5.9082,0.344,15.8646,99,0,
4473.76,-0.336914,5.90363,0.344,15.8646,99,0,
4473.76,-0.341187,5.9082,0.344,15.8646,99,0,
4473.76,-0.341797,5.90668,0.344,15.8646,99,0,
4473.76,-0.342102,5.90668,0.344,15.8646,99,0,
4473.76,-0.346069,5.9082,0.344,15.8646,99,0,
4473.77,-0.347595,5.90668,0.344,15.8646,99,0,
4473.77,-0.346985,5.90668,0.344,15.8646,99,0,
4473.77,-0.348511,5.90668,0.344,15.8646,99,0,
4473.77,-0.351562,5.90668,0.344,15.8646,99,0,
4473.77,-0.352173,5.90668,0.344,15.8646,99,0,
4473.78,-0.352173,5.90515,0.344,15.8646,99,0,
4473.78,-0.356445,5.90668,0.344,15.8646,99,0,
4473.78,-0.356445,5.90515,0.344,15.8646,99,0,
4473.78,-0.357056,5.9082,0.344,15.8646,99,0,
4473.78,-0.361328,5.90515,0.344,15.8646,99,0,
4473.79,-0.361023,5.90515,0.344,15.8646,99,0,
4473.79,-0.361633,5.9082,0.344,15.8646,99,0,
4473.79,-0.365295,5.90668,0.344,15.8646,99,0,
4473.79,-0.366211,5.9082,0.344,15.8646,99,0,
4473.79,-0.366211,5.9082,0.344,15.8646,99,0,
4473.8,-0.367126,5.9082,0.344,15.8646,99,0,
4473.8,-0.371704,5.90668,0.344,15.8646,99,0,
4473.8,-0.372009,5.90363,0.344,15.8646,99,0,
4473.8,-0.372314,5.90668,0.344,15.8646,99,0,
4473.8,-0.37323,5.90515,0.344,15.8646,99,0,
4473.81,-0.376892,5.90515,0.344,15.8646,99,0,
4473.81,-0.376282,5.90363,0.344,15.8646,99,0,
4473.81,-0.376892,5.90668,0.344,15.8646,99,0,
4473.81,-0.380249,5.90363,0.344,15.8646,99,0,
4473.81,-0.38147,5.90515,0.344,15.8646,99,0,
4473.82,-0.380859,5.90515,0.344,15.8646,99,0,
4473.82,-0.386353,5.90668,0.344,15.8646,99,0,
4473.82,-0.386658,5.90363,0.344,15.8646,99,0,
4473.82,-0.386047,5.90363,0.344,15.8646,99,0,
4473.82,-0.386353,5.9082,0.344,15.8646,99,0,
4473.83,-0.39032,5.90668,0.344,15.8646,99,0,
4473.83,-0.391541,5.90363,0.344,15.8646,99,0,
4473.83,-0.391541,5.90668,0.344,15.8646,99,0,
4473.83,-0.391235,5.89905,0.344,15.8646,99,0,
4473.83,-0.391541,5.89295,0.344,15.8646,99,0,
4473.84,-0.391846,5.896,0.344,15.8646,99,0,
4473.84,-0.396423,5.89447,0.344,15.8646,99,0,
4473.84,-0.396423,5.89295,0.344,15.8646,99,0,
4473.84,-0.396729,5.89447,0.344,15.8646,99,0,
4473.84,-0.395813,5.89295,0.344,15.8646,99,0,
4473.85,-0.401306,5.89295,0.344,15.8646,99,0,
4473.85,-0.401917,5.89447,0.344,15.8646,99,0,
4473.85,-0.400696,5.896,0.344,15.8646,99,0,
4473.85,-0.400391,5.89447,0.344,15.8646,99,0,
4473.85,-0.401001,5.896,0.344,15.8646,99,0,
4473.86,-0.405884,5.896,0.344,15.8646,99,0,
4473.86,-0.406494,5.89142,0.344,15.8646,99,0,
4473.86,-0.405884,5.89447,0.344,15.8646,99,0,
4473.86,-0.405884,5.88837,0.344,15.8646,99,0,
4473.86,-0.40741,5.89295,0.344,15.8646,99,0,
4473.87,-0.411072,5.89447,0.344,15.8646,99,0,
4473.87,-0.410767,5.89447,0.344,15.8646,99,0,
4473.87,-0.410767,5.89142,0.344,15.8646,99,0,
4473.87,-0.411072,5.896,0.344,15.8646,99,0,
4473.87,-0.412598,5.896,0.344,15.8646,99,0,
4473.88,-0.415649,5.89447,0.344,15.8646,99,0,
4473.88,-0.415955,5.89295,0.344,15.8646,99,0,
4473.88,-0.415649,5.89752,0.344,15.8646,99,0,
4473.88,-0.415955,5.89142,0.344,15.8646,99,0,
4473.88,-0.415649,5.89295,0.344,15.8646,99,0,
4473.89,-0.420532,5.89447,0.344,15.8646,99,0,
4473.89,-0.420837,5.896,0.344,15.8646,99,0,
4473.89,-0.420532,5.896,0.344,15.8646,99,0,
4473.89,-0.419922,5.89752,0.344,15.8646,99,0,
4473.89,-0.426025,5.896,0.344,15.8646,99,0,
4473.9,-0.42572,5.89142,0.344,15.8646,99,0,
4473.9,-0.42572,5.89295,0.344,15.8646,99,0,
4473.9,-0.424805,5.89295,0.344,15.8646,99,0,
4473.9,-0.426331,5.89447,0.344,15.8646,99,0,
4473.9,-0.42572,5.89142,0.344,15.8646,99,0,
4473.91,-0.428772,5.89447,0.344,15.8646,99,0,
4473.91,-0.430603,5.89295,0.344,15.8646,99,0,
4473.91,-0.430603,5.89752,0.344,15.8646,99,0,
4473.91,-0.430298,5.89447,0.344,15.8646,99,0,
4473.91,-0.429688,5.89295,0.344,15.8646,99,0,
4473.92,-0.430603,5.89447,0.344,15.8646,99,0,
4473.92,-0.430603,5.89295,0.344,15.8646,99,0,
4473.92,-0.432129,5.89447,0.344,15.8646,99,0,
4473.92,-0.436096,5.896,0.344,15.8646,99,0,
4473.92,-0.435181,5.89447,0.344,15.8646,99,0,
4473.93,-0.43457,5.89295,0.344,15.8646,99,0,
4473.93,-0.435486,5.89295,0.344,15.8646,99,0,
4473.93,-0.435181,5.89142,0.344,15.8646,99,0,
4473.93,-0.435486,5.89447,0.344,15.8646,99,0,
4473.93,-0.435181,5.896,0.344,15.8646,99,0,
4473.94,-0.440674,5.896,0.344,15.8646,99,0,
4473.94,-0.439758,5.88989,0.344,15.8646,99,0,
4473.94,-0.440369,5.89447,0.344,15.8646,99,0,
4473.94,-0.440063,5.88989,0.344,15.8646,99,0,
4473.94,-0.440369,5.89142,0.344,15.8646,99,0,
4473.95,-0.440063,5.89142,0.344,15.8646,99,0,
4473.95,-0.440369,5.896,0.344,15.8646,99,0,
4473.95,-0.440063,5.88989,0.344,15.8646,99,0,
4473.95,-0.444946,5.896,0.344,15.8646,99,0,
4473.95,-0.444641,5.896,0.344,15.8646,99,0,
4473.96,-0.445251,5.89295,0.344,15.8646,99,0,
4473.96,-0.444641,5.89295,0.344,15.8646,99,0,
4473.96,-0.444946,5.89295,0.344,15.8646,99,0,
4473.96,-0.444641,5.88837,0.344,15.8646,99,0,
4473.96,-0.444641,5.896,0.344,15.8646,99,0,
4473.97,-0.444946,5.89447,0.344,15.8646,99,0,
4473.97,-0.445251,5.89447,0.344,15.8646,99,0,
4473.97,-0.450439,5.89447,0.344,15.8646,99,0,
4473.97,-0.450134,5.89295,0.344,15.8646,99,0,
4473.97,-0.450439,5.89142,0.344,15.8646,99,0,
4473.98,-0.450134,5.89295,0.344,15.8646,99,0,
4473.98,-0.450134,5.89447,0.344,15.8646,99,0,
4473.98,-0.449829,5.89447,0.344,15.8646,99,0,
4473.98,-0.450134,5.89295,0.344,15.8646,99,0,
4473.98,-0.450134,5.89142,0.344,15.8646,99,0,
4473.99,-0.450134,5.89295,0.344,15.8646,99,0,
4473.99,-0.449524,5.89295,0.344,15.8646,99,0,
4473.99,-0.455017,5.89142,0.344,15.8646,99,0,
4473.99,-0.454712,5.89752,0.344,15.8646,99,0,
4473.99,-0.455627,5.89447,0.344,15.8646,99,0,
4474,-0.455017,5.89295,0.344,15.8646,99,0,
4474,-0.454712,5.896,0.344,15.8646,99,0,
4474,-0.454712,5.896,0.344,15.8646,99,0,
4474,-0.454712,5.89295,0.344,15.8646,99,0,
4474,-0.454712,5.89295,0.344,15.8646,99,0,
4474.01,-0.455017,5.89295,0.344,15.8646,99,0,
4474.01,-0.455017,5.89447,0.344,15.8646,99,0,
4474.01,-0.455322,5.896,0.344,15.8646,99,0,
4474.01,-0.455627,5.89447,0.344,15.8646,99,0,
4474.01,-0.458984,5.89447,0.344,15.8646,99,0,
4474.02,-0.459595,5.89295,0.344,15.8646,99,0,
4474.02,-0.460205,5.89295,0.344,15.8646,99,0,
4474.02,-0.459595,5.89295,0.344,15.8646,99,0,
4474.02,-0.4599,5.89142,0.344,15.8646,99,0,
4474.02,-0.4599,5.89295,0.344,15.8646,99,0,
4474.03,-0.460205,5.89295,0.344,15.8646,99,0,
4474.03,-0.4599,5.89142,0.344,15.8646,99,0,
4474.03,-0.4599,5.89142,0.344,15.8646,99,0,
4474.03,-0.4599,5.89752,0.344,15.8646,99,0,
4474.03,-0.460815,5.89295,0.344,15.8646,99,0,
4474.04,-0.4599,5.89142,0.344,15.8646,99,0,
4474.04,-0.459595,5.89142,0.344,15.8646,99,0,
4474.04,-0.46051,5.89295,0.344,15.8646,99,0,
4474.04,-0.4599,5.88989,0.344,15.8646,99,0,
4474.04,-0.464478,5.896,0.344,15.8646,99,0,
4474.05,-0.465698,5.88989,0.344,15.8646,99,0,
4474.05,-0.464783,5.89295,0.344,15.8646,99,0,
4474.05,-0.464783,5.88989,0.344,15.8646,99,0,
4474.05,-0.465393,5.88989,0.344,15.8646,99,0,
4474.05,-0.464783,5.896,0.344,15.8646,99,0,
4474.06,-0.464478,5.89447,0.344,15.8646,99,0,
4474.06,-0.464783,5.89447,0.344,15.8646,99,0,
4474.06,-0.464783,5.89447,0.344,15.8646,99,0,
4474.06,-0.465088,5.89295,0.344,15.8646,99,0,
4474.06,-0.464783,5.89142,0.344,15.8646,99,0,
4474.07,-0.465393,5.896,0.344,15.8646,99,0,
4474.07,-0.464783,5.89447,0.344,15.8646,99,0,
4474.07,-0.464172,5.89752,0.344,15.8646,99,0,
4474.07,-0.464783,5.896,0.344,15.8646,99,0,
4474.07,-0.464478,5.896,0.344,15.8646,99,0,
4474.08,-0.465698,5.89295,0.344,15.8646,99,0,
4474.08,-0.464783,5.89447,0.344,15.8646,99,0,
4474.08,-0.465088,5.88989,0.344,15.8646,99,0,
4474.08,-0.465088,5.89295,0.344,15.8646,99,0,
4474.08,-0.465088,5.896,0.344,15.8646,99,0,
4474.09,-0.464783,5.89295,0.344,15.8646,99,0,
4474.09,-0.466003,5.896,0.344,15.8646,99,0,
4474.09,-0.469666,5.89295,0.344,15.8646,99,0,
4474.09,-0.469055,5.88989,0.344,15.8646,99,0,
4474.09,-0.469666,5.89295,0.344,15.8646,99,0,
4474.1,-0.46875,5.89447,0.344,15.8646,99,0,
4474.1,-0.469666,5.896,0.344,15.8646,99,0,
4474.1,-0.469666,5.896,0.344,15.8646,99,0,
4474.1,-0.469666,5.896,0.344,15.8646,99,0,
4474.1,-0.469666,5.88989,0.344,15.8646,99,0,
4474.11,-0.46936,5.89295,0.344,15.8646,99,0,
4474.11,-0.46936,5.89142,0.344,15.8646,99,0,
4474.11,-0.470276,5.896,0.344,15.8646,99,0,
4474.11,-0.469666,5.89295,0.344,15.8646,99,0,
4474.11,-0.469971,5.89295,0.344,15.8646,99,0,
4474.12,-0.469971,5.88989,0.344,15.8646,99,0,
4474.12,-0.469971,5.89295,0.344,15.8646,99,0,
4474.12,-0.469666,5.896,0.344,15.8646,99,0,
4474.12,-0.469055,5.89295,0.344,15.8646,99,0,
4474.12,-0.469971,5.89752,0.344,15.8646,99,0,
4474.13,-0.469666,5.89447,0.344,15.8646,99,0,
4474.13,-0.46936,5.89295,0.344,15.8646,99,0,
4474.13,-0.46936,5.88989,0.344,15.8646,99,0,
4474.13,-0.46936,5.89447,0.344,15.8646,99,0,
4474.13,-0.469666,5.89447,0.344,15.8646,99,0,
4474.14,-0.469055,5.896,0.344,15.8646,99,0,
4474.14,-0.469666,5.89447,0.344,15.8646,99,0,
4474.14,-0.470276,5.89295,0.344,15.8646,99,0,
4474.14,-0.469666,5.89447,0.344,15.8646,99,0,
4474.14,-0.470276,5.89295,0.344,15.8646,99,0,
4474.15,-0.469971,5.89447,0.344,15.8646,99,0,
4474.15,-0.469666,5.89295,0.344,15.8646,99,0,
4474.15,-0.469666,5.89295,0.344,15.8646,99,0,
4474.15,-0.469666,5.896,0.344,15.8646,99,0,
4474.15,-0.469666,5.89295,0.344,15.8646,99,0,
4474.16,-0.469971,5.89142,0.344,15.8646,99,0,
4474.16,-0.470276,5.89142,0.344,15.8646,99,0,
4474.16,-0.469971,5.89295,0.344,15.8646,99,0,
4474.16,-0.46936,5.89142,0.344,15.8646,99,0,
4474.16,-0.469666,5.89295,0.344,15.8646,99,0,
4474.17,-0.470581,5.896,0.344,15.8646,99,0,
4474.17,-0.469666,5.89295,0.344,15.8646,99,0,
4474.17,-0.469666,5.88989,0.344,15.8646,99,0,
4474.17,-0.469055,5.89447,0.344,15.8646,99,0,
4474.17,-0.469666,5.896,0.344,15.8646,99,0,
4474.18,-0.470276,5.89295,0.344,15.8646,99,0,
4474.18,-0.469971,5.896,0.344,15.8646,99,0,
4474.18,-0.469666,5.89295,0.344,15.8646,99,0,
4474.18,-0.46936,5.89447,0.344,15.8646,99,0,
4474.18,-0.469055,5.89447,0.344,15.8646,99,0,
4474.19,-0.46936,5.89295,0.344,15.8646,99,0,
4474.19,-0.469666,5.89447,0.344,15.8646,99,0,
4474.19,-0.469666,5.89447,0.344,15.8646,99,0,
4474.19,-0.469666,5.896,0.344,15.8646,99,0,
4474.19,-0.46936,5.896,0.344,15.8646,99,0,
4474.2,-0.469971,5.89447,0.344,15.8646,99,0,
4474.2,-0.469666,5.89447,0.344,15.8646,99,0,
4474.2,-0.46936,5.89295,0.344,15.8646,99,0,
4474.2,-0.469971,5.89295,0.344,15.8646,99,0,
4474.2,-0.469971,5.89447,0.344,15.8646,99,0,
4474.21,-0.469055,5.896,0.344,15.8646,99,0,
4474.21,-0.46936,5.89295,0.344,15.8646,99,0,
4474.21,-0.469055,5.89142,0.344,15.8646,99,0,
4474.21,-0.469055,5.89295,0.344,15.8646,99,0,
4474.21,-0.46936,5.89447,0.344,15.8646,99,0,
4474.22,-0.46936,5.89295,0.344,15.8646,99,0,
4474.22,-0.469666,5.89295,0.344,15.8646,99,0,
4474.22,-0.46936,5.89295,0.344,15.8646,99,0,
4474.22,-0.469971,5.89295,0.344,15.8646,99,0,
4474.22,-0.469055,5.89295,0.344,15.8646,99,0,
4474.23,-0.46875,5.896,0.344,15.8646,99,0,
4474.23,-0.469666,5.89295,0.344,15.8646,99,0,
4474.23,-0.46936,5.89447,0.344,15.8646,99,0,
4474.23,-0.469055,5.89295,0.344,15.8646,99,0,
4474.23,-0.46936,5.896,0.344,15.8646,99,0,
4474.24,-0.469666,5.89447,0.344,15.8646,99,0,
4474.24,-0.469971,5.89447,0.344,15.8646,99,0,
4474.24,-0.469971,5.896,0.344,15.8646,99,0,
4474.24,-0.469971,5.89295,0.344,15.8646,99,0,
4474.24,-0.470276,5.89447,0.344,15.8646,99,0,
4474.25,-0.469055,5.89447,0.344,15.8646,99,0,
4474.25,-0.469666,5.89447,0.344,15.8646,99,0,
4474.25,-0.469666,5.88989,0.344,15.8646,99,0,
4474.25,-0.469666,5.89295,0.344,15.8646,99,0,
4474.25,-0.469666,5.896,0.344,15.8646,99,0,
4474.26,-0.469971,5.89447,0.344,15.8646,99,0,
4474.26,-0.469666,5.896,0.344,15.8646,99,0,
4474.26,-0.469666,5.896,0.344,15.8646,99,0,
4474.26,-0.469971,5.896,0.344,15.8646,99,0,
4474.26,-0.469971,5.89447,0.344,15.8646,99,0,
4474.27,-0.469666,5.896,0.344,15.8646,99,0,
4474.27,-0.469055,5.89447,0.344,15.8646,99,0,
4474.27,-0.465088,5.89142,0.344,15.8646,99,0,
4474.27,-0.464172,5.88989,0.344,15.8646,99,0,
4474.27,-0.464478,5.89295,0.344,15.8646,99,0,
4474.28,-0.464783,5.896,0.344,15.8646,99,0,
4474.28,-0.464478,5.89447,0.344,15.8646,99,0,
4474.28,-0.465393,5.88989,0.344,15.8646,99,0,
4474.28,-0.464783,5.89295,0.344,15.8646,99,0,
4474.28,-0.464783,5.89752,0.344,15.8646,99,0,
4474.29,-0.464478,5.89142,0.344,15.8646,99,0,
4474.29,-0.464478,5.896,0.344,15.8646,99,0,
4474.29,-0.464783,5.896,0.344,15.8646,99,0,
4474.29,-0.465088,5.88989,0.344,15.8646,99,0,
4474.29,-0.464783,5.89295,0.344,15.8646,99,0,
4474.3,-0.464478,5.89142,0.344,15.8646,99,0,
4474.3,-0.464783,5.89447,0.344,15.8646,99,0,
4474.3,-0.464478,5.88989,0.344,15.8646,99,0,
4474.3,-0.464478,5.89142,0.344,15.8646,99,0,
4474.3,-0.464783,5.88989,0.344,15.8646,99,0,
4474.31,-0.465088,5.89447,0.344,15.8646,99,0,
4474.31,-0.464783,5.89142,0.344,15.8646,99,0,
4474.31,-0.464783,5.89295,0.344,15.8646,99,0,
4474.31,-0.463867,5.89142,0.344,15.8646,99,0,
4474.31,-0.464478,5.89295,0.344,15.8646,99,0,
4474.32,-0.464172,5.89447,0.344,15.8646,99,0,
4474.32,-0.464478,5.896,0.344,15.8646,99,0,
4474.32,-0.465393,5.89295,0.344,15.8646,99,0,
4474.32,-0.464783,5.89142,0.344,15.8646,99,0,
4474.32,-0.464478,5.89752,0.344,15.8646,99,0,
4474.33,-0.464783,5.896,0.344,15.8646,99,0,
4474.33,-0.464783,5.89447,0.344,15.8646,99,0,
4474.33,-0.464783,5.896,0.344,15.8646,99,0,
4474.33,-0.45929,5.89447,0.344,15.8646,99,0,
4474.33,-0.4599,5.896,0.344,15.8646,99,0,
4474.34,-0.4599,5.89295,0.344,15.8646,99,0,
4474.34,-0.459595,5.88989,0.344,15.8646,99,0,
4474.34,-0.460205,5.89447,0.344,15.8646,99,0,
4474.34,-0.4599,5.89295,0.344,15.8646,99,0,
4474.34,-0.459595,5.89447,0.344,15.8646,99,0,
4474.35,-0.459595,5.89142,0.344,15.8646,99,0,
4474.35,-0.46051,5.89142,0.344,15.8646,99,0,
4474.35,-0.4599,5.88989,0.344,15.8646,99,0,
4474.35,-0.459595,5.89142,0.344,15.8646,99,0,
4474.35,-0.459595,5.89142,0.344,15.8646,99,0,
4474.36,-0.4599,5.89447,0.344,15.8646,99,0,
4474.36,-0.460205,5.89142,0.344,15.8646,99,0,
4474.36,-0.459595,5.89447,0.344,15.8646,99,0,
4474.36,-0.4599,5.89142,0.344,15.8646,99,0,
4474.36,-0.460205,5.89447,0.344,15.8646,99,0,
4474.37,-0.460205,5.89142,0.344,15.8646,99,0,
4474.37,-0.459595,5.89447,0.344,15.8646,99,0,
4474.37,-0.46051,5.896,0.344,15.8646,99,0,
4474.37,-0.458679,5.89295,0.344,15.8646,99,0,
4474.37,-0.460205,5.89295,0.344,15.8646,99,0,
4474.38,-0.4599,5.896,0.344,15.8646,99,0,
4474.38,-0.460205,5.89142,0.344,15.8646,99,0,
4474.38,-0.454712,5.896,0.344,15.8646,99,0,
4474.38,-0.454102,5.89295,0.344,15.8646,99,0,
4474.38,-0.454712,5.89447,0.344,15.8646,99,0,
4474.39,-0.454712,5.896,0.344,15.8646,99,0,
4474.39,-0.454712,5.89295,0.344,15.8646,99,0,
4474.39,-0.454102,5.89295,0.344,15.8646,99,0,
4474.39,-0.455322,5.89752,0.344,15.8646,99,0,
4474.39,-0.455322,5.89447,0.344,15.8646,99,0,
4474.4,-0.455017,5.89295,0.344,15.8646,99,0,
4474.4,-0.455017,5.89295,0.344,15.8646,99,0,
4474.4,-0.455627,5.89295,0.344,15.8646,99,0,
4474.4,-0.454712,5.89142,0.344,15.8646,99,0,
4474.4,-0.455017,5.89295,0.344,15.8646,99,0,
4474.41,-0.455627,5.89752,0.344,15.8646,99,0,
4474.41,-0.455017,5.89447,0.344,15.8646,99,0,
4474.41,-0.455627,5.896,0.344,15.8646,99,0,
4474.41,-0.455017,5.896,0.344,15.8646,99,0,
4474.41,-0.454712,5.896,0.344,15.8646,99,0,
4474.42,-0.455322,5.896,0.344,15.8646,99,0,
4474.42,-0.455322,5.88989,0.344,15.8646,99,0,
4474.42,-0.454712,5.88989,0.344,15.8646,99,0,
4474.42,-0.45105,5.89295,0.344,15.8646,99,0,
4474.42,-0.450134,5.89447,0.344,15.8646,99,0,
4474.43,-0.450439,5.896,0.344,15.8646,99,0,
4474.43,-0.450439,5.896,0.344,15.8646,99,0,
4474.43,-0.450439,5.89447,0.344,15.8646,99,0,
4474.43,-0.450134,5.89295,0.344,15.8646,99,0,
4474.43,-0.450134,5.89142,0.344,15.8646,99,0,
4474.44,-0.450439,5.89142,0.344,15.8646,99,0,
4474.44,-0.450439,5.89752,0.344,15.8646,99,0,
4474.44,-0.449524,5.89295,0.344,15.8646,99,0,
4474.44,-0.450134,5.896,0.344,15.8646,99,0,
4474.44,-0.449829,5.896,0.344,15.8646,99,0,
4474.45,-0.449829,5.88989,0.344,15.8646,99,0,
4474.45,-0.450439,5.88989,0.344,15.8646,99,0,
4474.45,-0.450134,5.89142,0.344,15.8646,99,0,
4474.45,-0.450439,5.89295,0.344,15.8646,99,0,
4474.45,-0.450134,5.89447,0.344,15.8646,99,0,
4474.46,-0.445251,5.88989,0.344,15.8646,99,0,
4474.46,-0.445251,5.89295,0.344,15.8646,99,0,
4474.46,-0.445557,5.89295,0.344,15.8646,99,0,
4474.46,-0.445251,5.89295,0.344,15.8646,99,0,
4474.46,-0.445251,5.896,0.344,15.8646,99,0,
4474.47,-0.445251,5.89295,0.344,15.8646,99,0,
4474.47,-0.445862,5.89295,0.344,15.8646,99,0,
4474.47,-0.444946,5.89142,0.344,15.8646,99,0,
4474.47,-0.445557,5.89142,0.344,15.8646,99,0,
4474.47,-0.444946,5.88989,0.344,15.8646,99,0,
4474.48,-0.444641,5.89295,0.344,15.8646,99,0,
4474.48,-0.445251,5.896,0.344,15.8646,99,0,
4474.48,-0.445251,5.89142,0.344,15.8646,99,0,
4474.48,-0.443726,5.89142,0.344,15.8646,99,0,
4474.48,-0.440063,5.89295,0.344,15.8646,99,0,
4474.49,-0.440369,5.89142,0.344,15.8646,99,0,
4474.49,-0.439758,5.88989,0.344,15.8646,99,0,
4474.49,-0.439758,5.89142,0.344,15.8646,99,0,
4474.49,-0.440674,5.89142,0.344,15.8646,99,0,
4474.49,-0.440369,5.89447,0.344,15.8646,99,0,
4474.5,-0.439453,5.896,0.344,15.8646,99,0,
4474.5,-0.440063,5.89295,0.344,15.8646,99,0,
4474.5,-0.440063,5.89295,0.344,15.8646,99,0,
4474.5,-0.440674,5.89142,0.344,15.8646,99,0,
4474.5,-0.440369,5.89142,0.344,15.8646,99,0,
4474.51,-0.436096,5.89295,0.344,15.8646,99,0,
4474.51,-0.435181,5.89295,0.344,15.8646,99,0,
4474.51,-0.435791,5.89295,0.344,15.8646,99,0,
4474.51,-0.435486,5.89295,0.344,15.8646,99,0,
4474.51,-0.436401,5.89295,0.344,15.8646,99,0,
4474.52,-0.435181,5.89447,0.344,15.8646,99,0,
4474.52,-0.435486,5.89295,0.344,15.8646,99,0,
4474.52,-0.436096,5.89447,0.344,15.8646,99,0,
4474.52,-0.436096,5.896,0.344,15.8646,99,0,
4474.52,-0.435486,5.896,0.344,15.8646,99,0,
4474.53,-0.430603,5.896,0.344,15.8646,99,0,
4474.53,-0.430298,5.89447,0.344,15.8646,99,0,
4474.53,-0.430603,5.896,0.344,15.8646,99,0,
4474.53,-0.431519,5.89295,0.344,15.8646,99,0,
4474.53,-0.430298,5.89447,0.344,15.8646,99,0,
4474.54,-0.430908,5.89295,0.344,15.8646,99,0,
4474.54,-0.430603,5.89295,0.344,15.8646,99,0,
4474.54,-0.431213,5.89142,0.344,15.8646,99,0,
4474.54,-0.42572,5.89447,0.344,15.8646,99,0,
4474.54,-0.42572,5.89295,0.344,15.8646,99,0,
4474.55,-0.425415,5.89447,0.344,15.8646,99,0,
4474.55,-0.42572,5.896,0.344,15.8646,99,0,
4474.55,-0.426025,5.89295,0.344,15.8646,99,0,
4474.55,-0.426025,5.89295,0.344,15.8646,99,0,
4474.55,-0.42572,5.89447,0.344,15.8646,99,0,
4474.56,-0.421753,5.89142,0.344,15.8646,99,0,
4474.56,-0.420532,5.89295,0.344,15.8646,99,0,
4474.56,-0.421143,5.896,0.344,15.8646,99,0,
4474.56,-0.420837,5.89295,0.344,15.8646,99,0,
4474.56,-0.420837,5.89295,0,15.8646,99,0,
4474.57,-0.419922,5.89142,0,15.8646,99,0,
4474.57,-0.421143,5.89752,0,15.8646,99,0,
4474.57,-0.41626,5.89142,0,15.8646,99,0,
4474.57,-0.416565,5.89295,0,15.8646,99,0,
4474.57,-0.415955,5.89295,0,15.8646,99,0,
4474.58,-0.415649,5.89295,0,15.8646,99,0,
4474.58,-0.415955,5.896,0,15.8646,99,0,
4474.58,-0.415344,5.896,0,15.8646,99,0,
4474.58,-0.411377,5.89295,0,15.8646,99,0,
4474.58,-0.411072,5.896,0,15.8646,99,0,
4474.59,-0.411072,5.89447,0,15.8646,99,0,
4474.59,-0.410767,5.89752,0,15.8646,99,0,
4474.59,-0.410767,5.89447,0,15.8646,99,0,
4474.59,-0.406799,5.89447,0,15.8646,99,0,
4474.59,-0.406189,5.89295,0,15.8646,99,0,
4474.6,-0.405579,5.89295,0,15.8646,99,0,
4474.6,-0.406494,5.89295,0,15.8646,99,0,
4474.6,-0.406189,5.89142,0,15.8646,99,0,
4474.6,-0.404968,5.89295,0,15.8646,99,0,
4474.6,-0.401001,5.89295,0,15.8646,99,0,
4474.61,-0.401001,5.89447,0,15.8646,99,0,
4474.61,-0.401001,5.89295,0,15.8646,99,0,
4474.61,-0.401611,5.89142,0,15.8646,99,0,
4474.61,-0.396423,5.896,0,15.8646,99,0,
4474.61,-0.396118,5.89295,0,15.8646,99,0,
4474.62,-0.396423,5.89447,0,15.8646,99,0,
4474.62,-0.395508,5.896,0,15.8646,99,0,
4474.62,-0.396118,5.896,0,15.8646,99,0,
4474.62,-0.392151,5.89295,0,15.8646,99,0,
4474.62,-0.391541,5.89447,0,15.8646,99,0,
4474.63,-0.391235,5.89142,0,15.8646,99,0,
4474.63,-0.392151,5.89295,0,15.8646,99,0,
4474.63,-0.390015,5.896,0,15.8646,99,0,
4474.63,-0.386658,5.89295,0,15.8646,99,0,
4474.63,-0.386353,5.89295,0,15.8646,99,0,
4474.64,-0.386353,5.89295,0,15.8646,99,0,
4474.64,-0.386658,5.896,0,15.8646,99,0,
4474.64,-0.382385,5.89295,0,15.8646,99,0,
4474.64,-0.381165,5.89295,0,15.8646,99,0,
4474.64,-0.38147,5.89447,0,15.8646,99,0,
4474.65,-0.38147,5.89447,0,15.8646,99,0,
4474.65,-0.376587,5.89295,0,15.8646,99,0,
4474.65,-0.376892,5.89752,0,15.8646,99,0,
4474.65,-0.376587,5.88989,0,15.8646,99,0,
4474.65,-0.377502,5.89142,0,15.8646,99,0,
4474.66,-0.371399,5.89142,0,15.8646,99,0,
4474.66,-0.371704,5.896,0,15.8646,99,0,
4474.66,-0.371399,5.89447,0,15.8646,99,0,
4474.66,-0.371704,5.88989,0,15.8646,99,0,
4474.66,-0.366516,5.89447,0,15.8646,99,0,
4474.67,-0.366821,5.89447,0,15.8646,99,0,
4474.67,-0.366516,5.89447,0,15.8646,99,0,
4474.67,-0.364685,5.89295,0,15.8646,99,0,
4474.67,-0.362244,5.89447,0,15.8646,99,0,
4474.67,-0.362244,5.89295,0,15.8646,99,0,
4474.68,-0.362244,5.89447,0,15.8646,99,0,
4474.68,-0.357971,5.88989,0,15.8646,99,0,
4474.68,-0.356445,5.89752,0,15.8646,99,0,
4474.68,-0.357361,5.89295,0,15.8646,99,0,
4474.68,-0.35675,5.89142,0,15.8646,99,0,
4474.69,-0.352478,5.896,0,15.8646,99,0,
4474.69,-0.352173,5.89142,0,15.8646,99,0,
4474.69,-0.352783,5.89447,0,15.8646,99,0,
4474.69,-0.350647,5.89295,0,15.8646,99,0,
4474.69,-0.34729,5.88989,0,15.8646,99,0,
4474.7,-0.34729,5.89295,0,15.8646,99,0,
4474.7,-0.347595,5.89295,0,15.8646,99,0,
4474.7,-0.342102,5.89295,0,15.8646,99,0,
4474.7,-0.342407,5.89447,0,15.8646,99,0,
4474.7,-0.342102,5.89447,0,15.8646,99,0,
4474.71,-0.33783,5.896,0,15.8646,99,0,
4474.71,-0.33783,5.89447,0,15.8646,99,0,
4474.71,-0.337219,5.89447,0,15.8646,99,0,
4474.71,-0.336304,5.89142,0,15.8646,99,0,
4474.71,-0.332642,5.89142,0,15.8646,99,0,
4474.72,-0.332031,5.89295,0,15.8646,99,0,
4474.72,-0.332947,5.89142,0,15.8646,99,0,
4474.72,-0.327454,5.88989,0,15.8646,99,0,
4474.72,-0.327454,5.88989,0,15.8646,99,0,
4474.72,-0.326843,5.896,0,15.8646,99,0,
4474.73,-0.322266,5.89447,0,15.8646,99,0,
4474.73,-0.322266,5.89447,0,15.8646,99,0,
4474.73,-0.323181,5.88837,0,15.8646,99,0,
4474.73,-0.318909,5.89142,0,15.8646,99,0,
4474.73,-0.318298,5.89295,0,15.8646,99,0,
4474.74,-0.317383,5.89295,0,15.8646,99,0,
4474.74,-0.314331,5.89142,0,15.8646,99,0,
4474.74,-0.3125,5.89295,0,15.8646,99,0,
4474.74,-0.31189,5.896,0,15.8646,99,0,
4474.74,-0.308533,5.89142,0,15.8646,99,0,
4474.75,-0.307922,5.89447,0,15.8646,99,0,
4474.75,-0.308228,5.89295,0,15.8646,99,0,
4474.75,-0.307922,5.89447,0,15.8646,99,0,
4474.75,-0.302734,5.89752,0,15.8646,99,0,
4474.75,-0.299377,5.89447,0,15.8646,99,0,
4474.76,-0.299072,5.89295,0,15.8646,99,0,
4474.76,-0.298157,5.89447,0,15.8646,99,0,
4474.76,-0.298767,5.89142,0,15.8646,99,0,
4474.76,-0.293884,5.89295,0,15.8646,99,0,
4474.76,-0.293579,5.896,0,15.8646,99,0,
4474.77,-0.292664,5.896,0,15.8646,99,0,
4474.77,-0.288391,5.89295,0,15.8646,99,0,
4474.77,-0.288086,5.89447,0,15.8646,99,0,
4474.77,-0.287781,5.88989,0,15.8646,99,0,
4474.77,-0.283203,5.89752,0,15.8646,99,0,
4474.78,-0.283203,5.89295,0,15.8646,99,0,
4474.78,-0.284119,5.89295,0,15.8646,99,0,
4474.78,-0.27832,5.89142,0,15.8646,99,0,
4474.78,-0.278931,5.896,0,15.8646,99,0,
4474.78,-0.274658,5.89295,0,15.8646,99,0,
4474.79,-0.274048,5.89447,0,15.8646,99,0,
4474.79,-0.273438,5.88989,0,15.8646,99,0,
4474.79,-0.26825,5.89295,0,15.8646,99,0,
4474.79,-0.268555,5.89142,0,15.8646,99,0,
4474.79,-0.26886,5.89752,0,15.8646,99,0,
4474.8,-0.264282,5.89295,0,15.8646,99,0,
4474.8,-0.264282,5.896,0,15.8646,99,0,
4474.8,-0.26062,5.89142,0,15.8646,99,0,
4474.8,-0.259399,5.89752,0,15.8646,99,0,
4474.8,-0.258484,5.89295,0,15.8646,99,0,
4474.81,-0.254517,5.89752,0,15.8646,99,0,
4474.81,-0.253601,5.896,0,15.8646,99,0,
4474.81,-0.252686,5.896,0,15.8646,99,0,
4474.81,-0.249023,5.89447,0,15.8646,99,0,
4474.81,-0.248718,5.89447,0,15.8646,99,0,
4474.82,-0.243835,5.89447,0,15.8646,99,0,
4474.82,-0.244141,5.89295,0,15.8646,99,0,
4474.82,-0.244141,5.89447,0,15.8646,99,0,
4474.82,-0.239563,5.896,0,15.8646,99,0,
4474.82,-0.238953,5.896,0,15.8646,99,0,
4474.83,-0.235596,5.89142,0,15.8646,99,0,
4474.83,-0.233765,5.896,0,15.8646,99,0,
4474.83,-0.23468,5.896,0,15.8646,99,0,
4474.83,-0.229492,5.896,0,15.8646,99,0,
4474.83,-0.229492,5.88837,0,15.8646,99,0,
4474.84,-0.226135,5.89295,0,15.8646,99,0,
4474.84,-0.22522,5.89447,0,15.8646,99,0,
4474.84,-0.22522,5.896,0,15.8646,99,0,
4474.84,-0.219116,5.89295,0,15.8646,99,0,
4474.84,-0.219421,5.89447,0,15.8646,99,0,
4474.85,-0.215759,5.896,0,15.8646,99,0,
4474.85,-0.214539,5.89447,0,15.8646,99,0,
4474.85,-0.212708,5.89295,0,15.8646,99,0,
4474.85,-0.210266,5.88989,0,15.8646,99,0,
4474.85,-0.209045,5.89295,0,15.8646,99,0,
4474.86,-0.205078,5.89447,0,15.8646,99,0,
4474.86,-0.204468,5.89447,0,15.8646,99,0,
4474.86,-0.203552,5.89295,0,15.8646,99,0,
4474.86,-0.200195,5.89142,0,15.8646,99,0,
4474.86,-0.19989,5.89142,0,15.8646,99,0,
4474.87,-0.195007,5.896,0,15.8646,99,0,
4474.87,-0.194397,5.89447,0,15.8646,99,0,
4474.87,-0.193176,5.89142,0,15.8646,99,0,
4474.87,-0.189209,5.89295,0,15.8646,99,0,
4474.87,-0.189819,5.88989,0,15.8646,99,0,
4474.88,-0.185242,5.89752,0,15.8646,99,0,
4474.88,-0.185242,5.896,0,15.8646,99,0,
4474.88,-0.18158,5.89295,0,15.8646,99,0,
4474.88,-0.180664,5.89295,0,15.8646,99,0,
4474.88,-0.180664,5.88837,0,15.8646,99,0,
4474.89,-0.174866,5.89447,0,15.8646,99,0,
4474.89,-0.175781,5.896,0,15.8646,99,0,
4474.89,-0.171509,5.896,0,15.8646,99,0,
4474.89,-0.169983,5.89447,0,15.8646,99,0,
4474.89,-0.169678,5.89447,0,15.8646,99,0,
4474.9,-0.166321,5.896,0,15.8646,99,0,
4474.9,-0.1651,5.89447,0,15.8646,99,0,
4474.9,-0.160828,5.88989,0,15.8646,99,0,
4474.9,-0.160522,5.89295,0,15.8646,99,0,
4474.9,-0.158997,5.89142,0,15.8646,99,0,
4474.91,-0.155334,5.89447,0,15.8646,99,0,
4474.91,-0.155945,5.89142,0,15.8646,99,0,
4474.91,-0.151672,5.89752,0,15.8646,99,0,
4474.91,-0.151367,5.89295,0,15.8646,99,0,
4474.91,-0.150452,5.89142,0,15.8646,99,0,
4474.92,-0.147095,5.89447,0,15.8646,99,0,
4474.92,-0.145264,5.89142,0,15.8646,99,0,
4474.92,-0.141296,5.89295,0,15.8646,99,0,
4474.92,-0.140991,5.89295,0,15.8646,99,0,
4474.92,-0.137634,5.896,0,15.8646,99,0,
4474.93,-0.136108,5.89295,0,15.8646,99,0,
4474.93,-0.136414,5.89142,0,15.8646,99,0,
4474.93,-0.131836,5.89295,0,15.8646,99,0,
4474.93,-0.13092,5.89295,0,15.8646,99,0,
4474.93,-0.126953,5.89295,0,15.8646,99,0,
4474.94,-0.126038,5.89295,0,15.8646,99,0,
4474.94,-0.126343,5.89752,0,15.8646,99,0,
4474.94,-0.12146,5.89447,0,15.8646,99,0,
4474.94,-0.121765,5.896,0,15.8646,99,0,
4474.94,-0.117798,5.89142,0,15.8646,99,0,
4474.95,-0.117188,5.89295,0,15.8646,99,0,
4474.95,-0.116882,5.89295,0,15.8646,99,0,
4474.95,-0.112,5.88989,0,15.8646,99,0,
4474.95,-0.112305,5.88989,0,15.8646,99,0,
4474.95,-0.108337,5.89295,0,15.8646,99,0,
4474.96,-0.107117,5.88684,0,15.8646,99,0,
4474.96,-0.107117,5.89295,0,15.8646,99,0,
4474.96,-0.101624,5.896,0,15.8646,99,0,
4474.96,-0.101929,5.89142,0,15.8646,99,0,
4474.96,-0.0979614,5.89295,0,15.8646,99,0,
4474.97,-0.0967407,5.89142,0,15.8646,99,0,
4474.97,-0.0970459,5.89295,0,15.8646,99,0,
4474.97,-0.0924683,5.89447,0,15.8646,99,0,
4474.97,-0.0915527,5.88837,0,15.8646,99,0,
4474.97,-0.0906372,5.89142,0,15.8646,99,0,
4474.98,-0.0872803,5.88989,0,15.8646,99,0,
4474.98,-0.0875854,5.89295,0,15.8646,99,0,
4474.98,-0.0827026,5.89447,0,15.8646,99,0,
4474.98,-0.0823975,5.89295,0,15.8646,99,0,
4474.98,-0.0790405,5.896,0,15.8646,99,0,
4474.99,-0.0778198,5.89295,0,15.8646,99,0,
4474.99,-0.0775146,5.89295,0,15.8646,99,0,
4474.99,-0.0726318,5.89295,0,15.8646,99,0,
4474.99,-0.072937,5.89142,0,15.8646,99,0,
4474.99,-0.0683594,5.896,0,15.8646,99,0,
4475,-0.0671387,5.896,0,15.8646,99,0,
4475,-0.0674438,5.89142,0,15.8646,99,0,
4475,-0.062561,5.89142,0,15.8646,99,0,
4475,-0.062561,5.89295,0,15.8646,99,0,
4475,-0.0582886,5.89295,0,15.8646,99,0,
4475.01,-0.0576782,5.89142,0,15.8646,99,0,
4475.01,-0.055542,5.89295,0,15.8646,99,0,
4475.01,-0.0521851,5.89295,0,15.8646,99,0,
4475.01,-0.0521851,5.88989,0,15.8646,99,0,
4475.01,-0.0476074,5.89295,0,15.8646,99,0,
4475.02,-0.0476074,5.896,0,15.8646,99,0,
4475.02,-0.0460815,5.89295,0,15.8646,99,0,
4475.02,-0.0430298,5.88989,0,15.8646,99,0,
4475.02,-0.0430298,5.89295,0,15.8646,99,0,
4475.02,-0.0378418,5.88837,0,15.8646,99,0,
4475.03,-0.0378418,5.896,0,15.8646,99,0,
4475.03,-0.0341797,5.89142,0,15.8646,99,0,
4475.03,-0.0335693,5.89447,0,15.8646,99,0,
4475.03,-0.0320435,5.89447,0,15.8646,99,0,
4475.03,-0.0286865,5.896,0,15.8646,99,0,
4475.04,-0.0286865,5.89295,0,15.8646,99,0,
4475.04,-0.0238037,5.89142,0,15.8646,99,0,
4475.04,-0.0238037,5.89142,0,15.8646,99,0,
4475.04,-0.020752,5.89295,0,15.8646,99,0,
4475.04,-0.0186157,5.89295,0,15.8646,99,0,
4475.05,-0.017395,5.89142,0,15.8646,99,0,
4475.05,-0.0137329,5.88989,0,15.8646,99,0,
4475.05,-0.0137329,5.89295,0,15.8646,99,0,
4475.05,-0.0088501,5.89295,0,15.8646,99,0,
4475.05,-0.00854492,5.896,0,15.8646,99,0,
4475.06,-0.00396729,5.89295,0,15.8646,99,0,
4475.06,-0.00366211,5.896,0,15.8646,99,0,
4475.06,0,5.896,0,15.8646,99,0,
4475.06,0.0012207,5.89447,0,15.8646,99,0,
4475.06,0.00488281,5.88989,0,15.8646,99,0,
4475.07,0.00610352,5.89447,0,15.8646,99,0,
4475.07,0.00671387,5.896,0,15.8646,99,0,
4475.07,0.0109863,5.88989,0,15.8646,99,0,
4475.07,0.0119019,5.88837,0,15.8646,99,0,
4475.07,0.015564,5.89295,0,15.8646,99,0,
4475.08,0.0167847,5.89142,0,15.8646,99,0,
4475.08,0.020752,5.89295,0,15.8646,99,0,
4475.08,0.0216675,5.88989,0,15.8646,99,0,
4475.08,0.0247192,5.88989,0,15.8646,99,0,
4475.08,0.0271606,5.88989,0,15.8646,99,0,
4475.09,0.0305176,5.89142,0,15.8646,99,0,
4475.09,0.0320435,5.89447,0,15.8646,99,0,
4475.09,0.0357056,5.89752,0,15.8646,99,0,
4475.09,0.0366211,5.89295,0,15.8646,99,0,
4475.09,0.0402832,5.89295,0,15.8646,99,0,
4475.1,0.0418091,5.89295,0,15.8646,99,0,
4475.1,0.0448608,5.88989,0,15.8646,99,0,
4475.1,0.0488281,5.89295,0,15.8646,99,0,
4475.1,0.0497437,5.89142,0,15.8646,99,0,
4475.1,0.0540161,5.89295,0,15.8646,99,0,
4475.11,0.0546265,5.896,0,15.8646,99,0,
4475.11,0.0604248,5.896,0,15.8646,99,0,
4475.11,0.0595093,5.89295,0,15.8646,99,0,
4475.11,0.0650024,5.89447,0,15.8646,99,0,
4475.11,0.0653076,5.89295,0,15.8646,99,0,
4475.12,0.0704956,5.89142,0,15.8646,99,0,
4475.12,0.0701904,5.88989,0,15.8646,99,0,
4475.12,0.0744629,5.88837,0,15.8646,99,0,
4475.12,0.0784302,5.89295,0,15.8646,99,0,
4475.12,0.0790405,5.896,0,15.8646,99,0,
4475.13,0.0830078,5.89447,0,15.8646,99,0,
4475.13,0.0842285,5.89752,0,15.8646,99,0,
4475.13,0.088501,5.89447,0,15.8646,99,0,
4475.13,0.0906372,5.89295,0,15.8646,99,0,
4475.13,0.0939941,5.89447,0,15.8646,99,0,
4475.14,0.0973511,5.89142,0,15.8646,99,0,
4475.14,0.0985718,5.89142,0,15.8646,99,0,
4475.14,0.103455,5.88989,0,15.8646,99,0,
4475.14,0.104675,5.89142,0,15.8646,99,0,
4475.14,0.108337,5.89295,0,15.8646,99,0,
4475.15,0.112305,5.89295,0,15.8646,99,0,
4475.15,0.11322,5.89295,0,15.8646,99,0,
4475.15,0.118103,5.88989,0,15.8646,99,0,
4475.15,0.119324,5.88989,0,15.8646,99,0,
4475.15,0.123901,5.89295,0,15.8646,99,0,
4475.16,0.127563,5.88837,0,15.8646,99,0,
4475.16,0.128479,5.88989,0,15.8646,99,0,
4475.16,0.132446,5.89447,0,15.8646,99,0,
4475.16,0.134583,5.89142,0,15.8646,99,0,
4475.16,0.137939,5.89447,0,15.8646,99,0,
4475.17,0.141602,5.89295,0,15.8646,99,0,
4475.17,0.142822,5.89295,0,15.8646,99,0,
4475.17,0.14801,5.89295,0,15.8646,99,0,
4475.17,0.149231,5.896,0,15.8646,99,0,
4475.17,0.152588,5.89295,0,15.8646,99,0,
4475.18,0.15625,5.89142,0,15.8646,99,0,
4475.18,0.157471,5.89295,0,15.8646,99,0,
4475.18,0.162354,5.896,0,15.8646,99,0,
4475.18,0.163879,5.88837,0,15.8646,99,0,
4475.18,0.166321,5.896,0,15.8646,99,0,
4475.19,0.171509,5.89295,0,15.8646,99,0,
4475.19,0.172424,5.89447,0,15.8646,99,0,
4475.19,0.176697,5.896,0,15.8646,99,0,
4475.19,0.180664,5.89295,0,15.8646,99,0,
4475.19,0.181885,5.896,0,15.8646,99,0,
4475.2,0.186768,5.89295,0,15.8646,99,0,
4475.2,0.188599,5.89295,0,15.8646,99,0,
4475.2,0.191345,5.89295,0,15.8646,99,0,
4475.2,0.195618,5.88989,0,15.8646,99,0,
4475.2,0.196838,5.89142,0,15.8646,99,0,
4475.21,0.201416,5.89447,0,15.8646,99,0,
4475.21,0.202637,5.89295,0,15.8646,99,0,
4475.21,0.206299,5.896,0,15.8646,99,0,
4475.21,0.210266,5.896,0,15.8646,99,0,
4475.21,0.211182,5.89295,0,15.8646,99,0,
4475.22,0.215759,5.89142,0,15.8646,99,0,
4475.22,0.218506,5.89447,0,15.8646,99,0,
4475.22,0.221252,5.896,0,15.8646,99,0,
4475.22,0.224915,5.89142,0,15.8646,99,0,
4475.22,0.225525,5.89295,0,15.8646,99,0,
4475.23,0.230408,5.89295,0,15.8646,99,0,
4475.23,0.231018,5.89142,0,15.8646,99,0,
4475.23,0.235596,5.89752,0,15.8646,99,0,
4475.23,0.237122,5.88989,0,15.8646,99,0,
4475.23,0.241089,5.89295,0,15.8646,99,0,
4475.24,0.245056,5.88989,0,15.8646,99,0,
4475.24,0.245056,5.88989,0,15.8646,99,0,
4475.24,0.250854,5.89295,0,15.8646,99,0,
4475.24,0.25177,5.89142,0,15.8646,99,0,
4475.24,0.255432,5.89295,0,15.8646,99,0,
4475.25,0.259705,5.89295,0,15.8646,99,0,
4475.25,0.26062,5.896,0,15.8646,99,0,
4475.25,0.264587,5.88837,0,15.8646,99,0,
4475.25,0.265198,5.89142,0,15.8646,99,0,
4475.25,0.26947,5.89447,0,15.8646,99,0,
4475.26,0.270996,5.88989,0,15.8646,99,0,
4475.26,0.274963,5.89447,0,15.8646,99,0,
4475.26,0.276184,5.88989,0,15.8646,99,0,
4475.26,0.280457,5.89447,0,15.8646,99,0,
4475.26,0.281677,5.89295,0,15.8646,99,0,
4475.27,0.285645,5.89447,0,15.8646,99,0,
4475.27,0.288391,5.89295,0,15.8646,99,0,
4475.27,0.289612,5.89295,0,15.8646,99,0,
4475.27,0.294189,5.88989,0,15.8646,99,0,
4475.27,0.295105,5.89142,0,15.8646,99,0,
4475.28,0.300598,5.89447,0,15.8646,99,0,
4475.28,0.298767,5.89295,0,15.8646,99,0,
4475.28,0.304871,5.89142,0,15.8646,99,0,
4475.28,0.30426,5.896,0,15.8646,99,0,
4475.28,0.309143,5.89447,0,15.8646,99,0,
4475.29,0.309448,5.89142,0,15.8646,99,0,
4475.29,0.314026,5.89447,0,15.8646,99,0,
4475.29,0.314026,5.89447,0,15.8646,99,0,
4475.29,0.317688,5.89447,0,15.8646,99,0,
4475.29,0.318298,5.89447,0,15.8646,99,0,
4475.3,0.322876,5.89295,0,15.8646,99,0,
4475.3,0.323792,5.89142,0,15.8646,99,0,
4475.3,0.325317,5.896,0,15.8646,99,0,
4475.3,0.328369,5.896,0,15.8646,99,0,
4475.3,0.328979,5.89905,0,15.8646,99,0,
4475.31,0.333557,5.896,0,15.8646,99,0,
4475.31,0.333862,5.89295,0,15.8646,99,0,
4475.31,0.33844,5.89447,0,15.8646,99,0,
4475.31,0.33905,5.89295,0,15.8646,99,0,
4475.31,0.340271,5.88989,0,15.8646,99,0,
4475.32,0.343628,5.88989,0,15.8646,99,0,
4475.32,0.343628,5.89295,0,15.8646,99,0,
4475.32,0.3479,5.88989,0,15.8646,99,0,
4475.32,0.348206,5.89142,0,15.8646,99,0,
4475.32,0.349731,5.89142,0,15.8646,99,0,
4475.33,0.353394,5.89447,0,15.8646,99,0,
4475.33,0.353088,5.89295,0,15.8646,99,0,
4475.33,0.358276,5.896,0,15.8646,99,0,
4475.33,0.357971,5.89295,0,15.8646,99,0,
4475.33,0.358276,5.89752,0,15.8646,99,0,
4475.34,0.362854,5.89447,0,15.8646,99,0,
4475.34,0.363159,5.89295,0,15.8646,99,0,
4475.34,0.36377,5.89447,0,15.8646,99,0,
4475.34,0.367737,5.88989,0,15.8646,99,0,
4475.34,0.368347,5.896,0,15.8646,99,0,
4475.35,0.368347,5.88989,0,15.8646,99,0,
4475.35,0.372314,5.89295,0,15.8646,99,0,
4475.35,0.372925,5.89447,0,15.8646,99,0,
4475.35,0.372925,5.89295,0,15.8646,99,0,
4475.35,0.376892,5.89295,0,15.8646,99,0,
4475.36,0.378113,5.896,0,15.8646,99,0,
4475.36,0.377502,5.896,0,15.8646,99,0,
4475.36,0.378418,5.89447,0,15.8646,99,0,
4475.36,0.38269,5.89295,0,15.8646,99,0,
4475.36,0.382996,5.89295,0,15.8646,99,0,
4475.37,0.38269,5.89142,0,15.8646,99,0,
4475.37,0.383606,5.896,0,15.8646,99,0,
4475.37,0.387573,5.89295,0,15.8646,99,0,
4475.37,0.387573,5.89752,0,15.8646,99,0,
4475.37,0.387878,5.89295,0,15.8646,99,0,
4475.38,0.387878,5.89295,0,15.8646,99,0,
4475.38,0.392761,5.89447,0,15.8646,99,0,
4475.38,0.393066,5.896,0,15.8646,99,0,
4475.38,0.392456,5.89295,0,15.8646,99,0,
4475.38,0.392456,5.89447,0,15.8646,99,0,
4475.39,0.392761,5.89447,0,15.8646,99,0,
4475.39,0.396729,5.89295,0,15.8646,99,0,
4475.39,0.397339,5.89295,0,15.8646,99,0,
4475.39,0.397644,5.89447,0,15.8646,99,0,
4475.39,0.397339,5.89295,0,15.8646,99,0,
4475.4,0.397339,5.89142,0,15.8646,99,0,
4475.4,0.397339,5.89447,0,15.8646,99,0,
4475.4,0.397644,5.896,0,15.8646,99,0,
4475.4,0.402527,5.89447,0,15.8646,99,0,
4475.4,0.402527,5.896,0,15.8646,99,0,
4475.41,0.402222,5.89142,0,15.8646,99,0,
4475.41,0.402832,5.896,0,15.8646,99,0,
4475.41,0.402222,5.89447,0,15.8646,99,0,
4475.41,0.402222,5.896,0,20,99,0,
4475.41,0.402527,5.89295,0,20,99,0,
4475.42,0.402222,5.88989,0,20,99,0,
4475.42,0.402832,5.896,0,20,99,0,
4475.42,0.402832,5.896,0,20,99,0,
4475.42,0.402527,5.89447,0,20,99,0,
4475.42,0.402222,5.896,0,20,99,0,
4475.43,0.405884,5.896,0,20,99,0,
4475.43,0.40741,5.89447,0,20,99,0,
4475.43,0.407715,5.89295,0,20,99,0,
4475.43,0.407104,5.89447,0,20,99,0,
4475.43,0.40741,5.89295,0,20,99,0,
4475.44,0.40802,5.89447,0,20,99,0,
4475.44,0.407715,5.89295,0,20,99,0,
4475.44,0.407715,5.89142,0,20,99,0,
4475.44,0.40802,5.896,0,20,99,0,
4475.44,0.40741,5.89295,0,20,99,0,
4475.45,0.40741,5.89295,0,20,99,0,
4475.45,0.403442,5.89142,2.888,20,99,0,
4475.45,0.402222,5.89142,2.888,20,99,0,
4475.45,0.402527,5.896,2.888,20,99,0,
4475.45,0.402832,5.89295,2.888,20,99,0,
4475.46,0.402222,5.89142,2.888,20,99,0,
4475.46,0.402832,5.89295,2.888,20,99,0,
4475.46,0.401917,5.89142,2.888,20,99,0,
4475.46,0.402832,5.89295,2.888,20,99,0,
4475.46,0.402527,5.89447,2.888,20,99,0,
4475.47,0.402527,5.89447,2.888,20,99,0,
4475.47,0.402222,5.89295,2.888,20,99,0,
4475.47,0.402527,5.89447,2.888,20,99,0,
4475.47,0.402527,5.896,2.888,20,99,0,
4475.47,0.402527,5.896,2.888,20,99,0,
4475.48,0.402222,5.896,2.888,20,99,0,
4475.48,0.397339,5.89295,2.888,20,99,0,
4475.48,0.397339,5.89752,2.888,20,99,0,
4475.48,0.397644,5.89447,2.888,20,99,0,
4475.48,0.397949,5.89142,2.888,20,99,0,
4475.49,0.397339,5.896,2.888,20,99,0,
4475.49,0.397644,5.89142,2.888,20,99,0,
4475.49,0.393066,5.89447,2.888,20,99,0,
4475.49,0.392456,5.89447,2.888,20,99,0,
4475.49,0.392456,5.89295,2.888,20,99,0,
4475.5,0.393066,5.89447,2.888,20,99,0,
4475.5,0.392151,5.89447,2.888,20,99,0,
4475.5,0.392761,5.896,2.888,20,99,0,
4475.5,0.388184,5.89295,2.888,20,99,0,
4475.5,0.388489,5.896,2.888,20,99,0,
4475.51,0.387268,5.896,2.888,20,99,0,
4475.51,0.387878,5.89447,2.888,20,99,0,
4475.51,0.387878,5.89447,2.888,20,99,0,
4475.51,0.384216,5.89447,2.888,20,99,0,
4475.51,0.382385,5.89295,2.888,20,99,0,
4475.52,0.38269,5.89447,2.888,20,99,0,
4475.52,0.382996,5.89447,2.888,20,99,0,
4475.52,0.38269,5.896,2.888,20,99,0,
4475.52,0.378113,5.89447,2.888,20,99,0,
4475.52,0.377808,5.89295,2.888,20,99,0,
4475.53,0.378113,5.89295,2.888,20,99,0,
4475.53,0.378113,5.89447,2.888,20,99,0,
4475.53,0.376587,5.88837,2.888,20,99,0,
4475.53,0.372925,5.88989,2.888,20,99,0,
4475.53,0.372925,5.89447,2.888,20,99,0,
4475.54,0.372925,5.89447,2.888,20,99,0,
4475.54,0.371399,5.896,2.888,20,99,0,
4475.54,0.368042,5.89447,2.888,20,99,0,
4475.54,0.368042,5.89142,2.888,20,99,0,
4475.54,0.367737,5.88989,2.888,20,99,0,
4475.55,0.36377,5.89142,2.888,20,99,0,
4475.55,0.363464,5.88989,2.888,20,99,0,
4475.55,0.363159,5.89295,2.888,20,99,0,
4475.55,0.363159,5.88989,2.888,20,99,0,
4475.55,0.358887,5.89295,2.888,20,99,0,
4475.56,0.358276,5.896,2.888,20,99,0,
4475.56,0.358582,5.89295,2.888,20,99,0,
4475.56,0.35675,5.89295,2.888,20,99,0,
4475.56,0.353699,5.89295,2.888,20,99,0,
4475.56,0.353699,5.89142,2.888,20,99,0,
4475.57,0.353394,5.896,2.888,20,99,0,
4475.57,0.3479,5.89295,2.888,20,99,0,
4475.57,0.349426,5.89447,2.888,20,99,0,
4475.57,0.348511,5.89142,2.888,20,99,0,
4475.57,0.343323,5.89295,2.888,20,99,0,
4475.58,0.343323,5.896,2.888,20,99,0,
4475.58,0.343323,5.89752,2.888,20,99,0,
4475.58,0.340576,5.89295,2.888,20,99,0,
4475.58,0.338745,5.89142,2.888,20,99,0,
4475.58,0.338745,5.89295,2.888,20,99,0,
4475.59,0.337524,5.896,2.888,20,99,0,
4475.59,0.334167,5.89142,2.888,20,99,0,
4475.59,0.333557,5.896,2.888,20,99,0,
4475.59,0.331726,5.896,2.888,20,99,0,
4475.59,0.329285,5.89295,2.888,20,99,0,
4475.6,0.328979,5.89752,2.888,20,99,0,
4475.6,0.327759,5.89142,2.888,20,99,0,
4475.6,0.324402,5.89447,2.888,20,99,0,
4475.6,0.323792,5.896,2.888,20,99,0,
4475.6,0.321655,5.89142,2.888,20,99,0,
4475.61,0.318604,5.89142,2.888,20,99,0,
4475.61,0.318909,5.88989,2.888,20,99,0,
4475.61,0.317993,5.88989,2.888,20,99,0,
4475.61,0.313721,5.89447,2.888,20,99,0,
4475.61,0.314026,5.89447,2.888,20,99,0,
4475.62,0.31311,5.89142,2.888,20,99,0,
4475.62,0.308838,5.89295,2.888,20,99,0,
4475.62,0.308838,5.89752,2.888,20,99,0,
4475.62,0.308228,5.88837,2.888,20,99,0,
4475.62,0.304565,5.89295,2.888,20,99,0,
4475.63,0.30426,5.88989,2.888,20,99,0,
4475.63,0.300903,5.89142,2.888,20,99,0,
4475.63,0.299683,5.89142,2.888,20,99,0,
4475.63,0.299988,5.896,2.888,20,99,0,
4475.63,0.295105,5.89295,2.888,20,99,0,
4475.64,0.294495,5.89142,2.888,20,99,0,
4475.64,0.2948,5.89295,2.888,20,99,0,
4475.64,0.289612,5.89295,2.888,20,99,0,
4475.64,0.289612,5.89295,2.888,20,99,0,
4475.64,0.289917,5.89142,2.888,20,99,0,
4475.65,0.285339,5.896,2.888,20,99,0,
4475.65,0.284729,5.89295,2.888,20,99,0,
4475.65,0.284729,5.89447,2.888,20,99,0,
4475.65,0.280151,5.89295,2.888,20,99,0,
4475.65,0.279541,5.89295,2.888,20,99,0,
4475.66,0.279846,5.89142,2.888,20,99,0,
4475.66,0.275269,5.896,2.888,20,99,0,
4475.66,0.275269,5.89447,2.888,20,99,0,
4475.66,0.274963,5.89142,2.888,20,99,0,
4475.66,0.270386,5.89142,2.888,20,99,0,
4475.67,0.270386,5.89295,2.888,20,99,0,
4475.67,0.26886,5.89447,2.888,20,99,0,
4475.67,0.265503,5.89447,2.888,20,99,0,
4475.67,0.265503,5.89295,2.888,20,99,0,
4475.67,0.262756,5.89142,2.888,20,99,0,
4475.68,0.26062,5.89295,2.888,20,99,0,
4475.68,0.259705,5.89142,2.888,20,99,0,
4475.68,0.259399,5.88989,2.888,20,99,0,
4475.68,0.255432,5.89142,2.888,20,99,0,
4475.68,0.255432,5.896,2.888,20,99,0,
4475.69,0.254211,5.89295,2.888,20,99,0,
4475.69,0.250854,5.88989,2.888,20,99,0,
4475.69,0.250854,5.89295,2.888,20,99,0,
4475.69,0.248413,5.89295,2.888,20,99,0,
4475.69,0.244446,5.89142,2.888,20,99,0,
4475.7,0.245361,5.89295,2.888,20,99,0,
4475.7,0.244141,5.88837,2.888,20,99,0,
4475.7,0.240479,5.88989,2.888,20,99,0,
4475.7,0.240173,5.89142,2.888,20,99,0,
4475.7,0.239258,5.896,2.888,20,99,0,
4475.71,0.235291,5.89295,2.888,20,99,0,
4475.71,0.235901,5.896,2.888,20,99,0,
4475.71,0.234985,5.89142,2.888,20,99,0,
4475.71,0.230713,5.89752,2.888,20,99,0,
4475.71,0.231018,5.89295,2.888,20,99,0,
4475.72,0.230408,5.896,2.888,20,99,0,
4475.72,0.226746,5.89295,2.888,20,99,0,
4475.72,0.225525,5.89295,2.888,20,99,0,
4475.72,0.226746,5.89447,2.888,20,99,0,
4475.72,0.221252,5.896,2.888,20,99,0,
4475.73,0.221558,5.896,2.888,20,99,0,
4475.73,0.220642,5.89447,2.888,20,99,0,
4475.73,0.216675,5.89752,2.888,20,99,0,
4475.73,0.215759,5.89295,2.888,20,99,0,
4475.73,0.21637,5.896,2.888,20,99,0,
4475.74,0.212097,5.88837,2.888,20,99,0,
4475.74,0.211487,5.89295,2.888,20,99,0,
4475.74,0.211182,5.89295,2.888,20,99,0,
4475.74,0.209351,5.88989,2.888,20,99,0,
4475.74,0.206299,5.896,2.888,20,99,0,
4475.75,0.20752,5.88989,2.888,20,99,0,
4475.75,0.205994,5.89447,2.888,20,99,0,
4475.75,0.201721,5.89752,2.888,20,99,0,
4475.75,0.201721,5.89295,2.888,20,99,0,
4475.75,0.201111,5.896,2.888,20,99,0,
4475.76,0.197449,5.88989,2.888,20,99,0,
4475.76,0.196533,5.89752,2.888,20,99,0,
4475.76,0.196838,5.89447,2.888,20,99,0,
4475.76,0.196533,5.89142,2.888,20,99,0,
4475.76,0.19165,5.89295,2.888,20,99,0,
4475.77,0.19165,5.896,2.888,20,99,0,
4475.77,0.191956,5.89142,2.888,20,99,0,
4475.77,0.187988,5.896,2.888,20,99,0,
4475.77,0.186768,5.89295,2.888,20,99,0,
4475.77,0.187073,5.89295,2.888,20,99,0,
4475.78,0.186768,5.89905,2.888,20,99,0,
4475.78,0.18158,5.89142,2.888,20,99,0,
4475.78,0.181274,5.896,2.888,20,99,0,
4475.78,0.181885,5.89447,2.888,20,99,0,
4475.78,0.180664,5.89295,2.888,20,99,0,
4475.79,0.176697,5.89295,2.888,20,99,0,
4475.79,0.177002,5.89295,2.888,20,99,0,
4475.79,0.176697,5.89295,2.888,20,99,0,
4475.79,0.172424,5.89295,2.888,20,99,0,
4475.79,0.172119,5.89142,2.888,20,99,0,
4475.8,0.171814,5.896,2.888,20,99,0,
4475.8,0.171814,5.89295,2.888,20,99,0,
4475.8,0.167542,5.89447,2.888,20,99,0,
4475.8,0.166931,5.89142,2.888,20,99,0,
4475.8,0.166931,5.89142,2.888,20,99,0,
4475.81,0.166931,5.89142,2.888,20,99,0,
4475.81,0.162354,5.89295,2.888,20,99,0,
4475.81,0.162354,5.89295,2.888,20,99,0,
4475.81,0.161743,5.89142,2.888,20,99,0,
4475.81,0.162048,5.89447,2.888,20,99,0,
4475.82,0.156555,5.89752,2.888,20,99,0,
4475.82,0.157166,5.89447,2.888,20,99,0,
4475.82,0.157471,5.89295,2.888,20,99,0,
4475.82,0.157471,5.89295,2.888,20,99,0,
4475.82,0.152893,5.89142,2.888,20,99,0,
4475.83,0.152588,5.89142,2.888,20,99,0,
4475.83,0.152893,5.89295,2.888,20,99,0,
4475.83,0.153198,5.896,2.888,20,99,0,
4475.83,0.14801,5.89142,2.888,20,99,0,
4475.83,0.148315,5.89295,2.888,20,99,0,
4475.84,0.147705,5.89447,2.888,20,99,0,
4475.84,0.147705,5.89752,2.888,20,99,0,
4475.84,0.144043,5.89142,2.888,20,99,0,
4475.84,0.143433,5.89295,2.888,20,99,0,
4475.84,0.142517,5.88837,2.888,20,99,0,
4475.85,0.141602,5.89447,2.888,20,99,0,
4475.85,0.142517,5.89447,2.888,20,99,0,
4475.85,0.137329,5.89295,2.888,20,99,0,
4475.85,0.137939,5.89447,2.888,20,99,0,
4475.85,0.138245,5.89447,2.888,20,99,0,
4475.86,0.137329,5.89142,2.888,20,99,0,
4475.86,0.134277,5.89447,2.888,20,99,0,
4475.86,0.133362,5.89295,2.888,20,99,0,
4475.86,0.133057,5.88989,2.888,20,99,0,
4475.86,0.132751,5.89295,2.888,20,99,0,
4475.87,0.132751,5.89295,2.888,20,99,0,
4475.87,0.127258,5.89905,2.888,20,99,0,
4475.87,0.127869,5.89752,2.888,20,99,0,
4475.87,0.128174,5.89295,2.888,20,99,0,
4475.87,0.127869,5.896,2.888,20,99,0,
4475.88,0.127258,5.89295,2.888,20,99,0,
4475.88,0.122986,5.89295,2.888,20,99,0,
4475.88,0.123291,5.88989,2.888,20,99,0,
4475.88,0.123291,5.896,2.888,20,99,0,
4475.88,0.122375,5.89295,2.888,20,99,0,
4475.89,0.122986,5.88989,2.888,20,99,0,
4475.89,0.118713,5.88989,2.888,20,99,0,
4475.89,0.117798,5.89295,2.888,20,99,0,
4475.89,0.118103,5.88989,2.888,20,99,0,
4475.89,0.118408,5.896,2.888,20,99,0,
4475.9,0.118103,5.896,2.888,20,99,0,
4475.9,0.114746,5.89752,2.888,20,99,0,
4475.9,0.11322,5.89295,2.888,20,99,0,
4475.9,0.112915,5.89142,2.888,20,99,0,
4475.9,0.112915,5.89142,2.888,20,99,0,
4475.91,0.113831,5.89447,2.888,20,99,0,
4475.91,0.11322,5.9021,2.888,20,99,0,
4475.91,0.108948,5.90668,2.888,20,99,0,
4475.91,0.108337,5.90668,2.888,20,99,0,
4475.91,0.108643,5.90363,2.888,20,99,0,
4475.92,0.108643,5.90668,2.888,20,99,0,
4475.92,0.107727,5.90668,2.888,20,99,0,
4475.92,0.106812,5.90363,2.888,20,99,0,
4475.92,0.103149,5.9082,2.888,20,99,0,
4475.92,0.103149,5.9021,2.888,20,99,0,
4475.93,0.10376,5.90515,2.888,20,99,0,
4475.93,0.102844,5.90515,2.888,20,99,0,
4475.93,0.103455,5.90515,2.888,20,99,0,
4475.93,0.101624,5.9082,2.888,20,99,0,
4475.93,0.0991821,5.9082,2.888,20,99,0,
4475.94,0.0979614,5.90515,2.888,20,99,0,
4475.94,0.0991821,5.90515,2.888,20,99,0,
4475.94,0.0985718,5.90668,2.888,20,99,0,
4475.94,0.0982666,5.90363,2.888,20,99,0,
4475.94,0.0991821,5.90515,2.888,20,99,0,
4475.95,0.093689,5.90668,2.888,20,99,0,
4475.95,0.093689,5.9082,2.888,20,99,0,
4475.95,0.0933838,5.9082,2.888,20,99,0,
4475.95,0.0933838,5.90668,2.888,20,99,0,
4475.95,0.0930786,5.90363,2.888,20,99,0,
4475.96,0.093689,5.90515,2.888,20,99,0,
4475.96,0.0921631,5.9082,2.888,20,99,0,
4475.96,0.0891113,5.90515,2.888,20,99,0,
4475.96,0.0881958,5.90668,2.888,20,99,0,
4475.96,0.0888062,5.90668,2.888,20,99,0,
4475.97,0.0894165,5.9082,2.888,20,99,0,
4475.97,0.0878906,5.90515,2.888,20,99,0,
4475.97,0.088501,5.90363,2.888,20,99,0,
4475.97,0.0888062,5.90363,2.888,20,99,0,
4475.97,0.0839233,5.90515,2.888,20,99,0,
4475.98,0.083313,5.90668,2.888,20,99,0,
4475.98,0.0845337,5.9082,2.888,20,99,0,
4475.98,0.0839233,5.90668,2.888,20,99,0,
4475.98,0.0839233,5.90515,2.888,20,99,0,
4475.98,0.0839233,5.90515,2.888,20,99,0,
4475.99,0.0839233,5.90668,2.888,20,99,0,
4475.99,0.0830078,5.90668,2.888,20,99,0,
4475.99,0.0799561,5.90668,2.888,20,99,0,
4475.99,0.0793457,5.90363,2.888,20,99,0,
4475.99,0.0796509,5.90515,2.888,20,99,0,
4476,0.0796509,5.90515,2.888,20,99,0,
4476,0.0790405,5.90515,2.888,20,99,0,
4476,0.0796509,5.90668,2.888,20,99,0,
4476,0.0799561,5.90668,2.888,20,99,0,
4476,0.0799561,5.90668,2.888,20,99,0,
4476.01,0.0747681,5.9082,2.888,20,99,0,
4476.01,0.0744629,5.90668,2.888,20,99,0,
4476.01,0.0744629,5.90973,2.888,20,99,0,
4476.01,0.0747681,5.90668,2.888,20,99,0,
4476.01,0.0738525,5.90668,2.888,20,99,0,
4476.02,0.0747681,5.9082,2.888,20,99,0,
4476.02,0.0747681,5.90515,2.888,20,99,0,
4476.02,0.0741577,5.90515,2.888,20,99,0,
4476.02,0.0735474,5.90515,2.888,20,99,0,
4476.02,0.0701904,5.90668,2.888,20,99,0,
4476.03,0.0692749,5.90363,2.888,20,99,0,
4476.03,0.0692749,5.9021,2.888,20,99,0,
4476.03,0.0698853,5.90363,2.888,20,99,0,
4476.03,0.0692749,5.90668,2.888,20,99,0,
4476.03,0.0704956,5.90668,2.888,20,99,0,
4476.04,0.0692749,5.90363,2.888,20,99,0,
4476.04,0.0698853,5.90515,2.888,20,99,0,
4476.04,0.0692749,5.90515,2.888,20,99,0,
4476.04,0.0646973,5.90515,2.888,20,99,0,
4476.04,0.0650024,5.90515,2.888,20,99,0,
4476.05,0.0653076,5.9082,2.888,20,99,0,
4476.05,0.0646973,5.90515,2.888,20,99,0,
4476.05,0.0650024,5.90363,2.888,20,99,0,
4476.05,0.0650024,5.90515,2.888,20,99,0,
4476.05,0.0653076,5.90668,2.888,20,99,0,
4476.06,0.0646973,5.9082,2.888,20,99,0,
4476.06,0.0650024,5.90057,2.888,20,99,0,
4476.06,0.0601196,5.90363,2.888,20,99,0,
4476.06,0.0595093,5.9082,2.888,20,99,0,
4476.06,0.0595093,5.90668,2.888,20,99,0,
4476.07,0.0598145,5.90668,2.888,20,99,0,
4476.07,0.0604248,5.90668,2.888,20,99,0,
4476.07,0.0598145,5.9021,2.888,20,99,0,
4476.07,0.0598145,5.90515,2.888,20,99,0,
4476.07,0.0595093,5.90363,2.888,20,99,0,
4476.08,0.0598145,5.90515,2.888,20,99,0,
4476.08,0.0585938,5.90515,2.888,20,99,0,
4476.08,0.0552368,5.90668,2.888,20,99,0,
4476.08,0.0552368,5.90515,2.888,20,99,0,
4476.08,0.0549316,5.90515,2.888,20,99,0,
4476.09,0.0552368,5.90973,2.888,20,99,0,
4476.09,0.0549316,5.90668,2.888,20,99,0,
4476.09,0.0552368,5.90668,2.888,20,99,0,
4476.09,0.0552368,5.90668,2.888,20,99,0,
4476.09,0.0549316,5.90515,2.888,20,99,0,
4476.1,0.0540161,5.9021,2.888,20,99,0,
4476.1,0.0500488,5.90668,2.888,20,99,0,
4476.1,0.0497437,5.90515,2.888,20,99,0,
4476.1,0.0491333,5.9082,2.888,20,99,0,
4476.1,0.050354,5.90668,2.888,20,99,0,
4476.11,0.0500488,5.90668,2.888,20,99,0,
4476.11,0.050354,5.90363,2.888,20,99,0,
4476.11,0.050354,5.90515,2.888,20,99,0,
4476.11,0.0497437,5.90668,2.888,20,99,0,
4476.11,0.0448608,5.90668,2.888,20,99,0,
4476.12,0.045166,5.90668,2.888,20,99,0,
4476.12,0.0448608,5.90363,2.888,20,99,0,
4476.12,0.0448608,5.90515,2.888,20,99,0,
4476.12,0.0448608,5.9082,2.888,20,99,0,
4476.12,0.045166,5.90057,2.888,20,99,0,
4476.13,0.0448608,5.90668,2.888,20,99,0,
4476.13,0.045166,5.90363,2.888,20,99,0,
4476.13,0.0405884,5.90668,2.888,20,99,0,
4476.13,0.039978,5.90668,2.888,20,99,0,
4476.13,0.039978,5.90515,2.888,20,99,0,
4476.14,0.039978,5.90668,2.888,20,99,0,
4476.14,0.039978,5.90515,2.888,20,99,0,
4476.14,0.0396729,5.90515,2.888,20,99,0,
4476.14,0.039978,5.90515,2.888,20,99,0,
4476.14,0.0354004,5.9082,2.888,20,99,0,
4476.15,0.0354004,5.90515,2.888,20,99,0,
4476.15,0.0357056,5.9082,2.888,20,99,0,
4476.15,0.0344849,5.90363,2.888,20,99,0,
4476.15,0.0350952,5.90515,2.888,20,99,0,
4476.15,0.0350952,5.9082,2.888,20,99,0,
4476.16,0.0308228,5.90668,2.888,20,99,0,
4476.16,0.0308228,5.90515,2.888,20,99,0,
4476.16,0.0302124,5.90363,2.888,20,99,0,
4476.16,0.0302124,5.90668,2.888,20,99,0,
4476.16,0.0302124,5.90363,2.888,20,99,0,
4476.17,0.0308228,5.90515,2.888,20,99,0,
4476.17,0.0262451,5.90668,2.888,20,99,0,
4476.17,0.0253296,5.90515,2.888,20,99,0,
4476.17,0.0253296,5.9082,2.888,20,99,0,
4476.17,0.0253296,5.90668,2.888,20,99,0,
4476.18,0.0256348,5.90668,2.888,20,99,0,
4476.18,0.0250244,5.9082,2.888,20,99,0,
4476.18,0.0201416,5.90515,2.888,20,99,0,
4476.18,0.0201416,5.90973,2.888,20,99,0,
4476.18,0.0201416,5.90515,2.888,20,99,0,
4476.19,0.0210571,5.90515,2.888,20,99,0,
4476.19,0.0204468,5.9021,2.888,20,99,0,
4476.19,0.0167847,5.90515,2.888,20,99,0,
4476.19,0.0152588,5.90057,2.888,20,99,0,
4476.19,0.0152588,5.90515,2.888,20,99,0,
4476.2,0.0149536,5.90668,2.888,20,99,0,
4476.2,0.0152588,5.90668,2.888,20,99,0,
4476.2,0.0158691,5.90363,2.888,20,99,0,
4476.2,0.0109863,5.90515,2.888,20,99,0,
4476.2,0.0106812,5.90668,2.888,20,99,0,
4476.21,0.0100708,5.90515,2.888,20,99,0,
4476.21,0.010376,5.90363,2.888,20,99,0,
4476.21,0.0106812,5.90668,2.888,20,99,0,
4476.21,0.00549316,5.90363,2.888,20,99,0,
4476.21,0.00640869,5.9021,2.888,20,99,0,
4476.22,0.00579834,5.90515,2.888,20,99,0,
4476.22,0.00640869,5.90515,2.888,20,99,0,
4476.22,0.00579834,5.90668,2.888,20,99,0,
4476.22,0.00183105,5.90515,2.888,20,99,0,
4476.22,0.000915527,5.90668,2.888,20,99,0,
4476.23,0.000610352,5.9082,2.888,20,99,0,
4476.23,0.000915527,5.90363,2.888,20,99,0,
4476.23,0.000915527,5.90668,2.888,20,99,0,
4476.23,-0.00274658,5.90668,2.888,20,99,0,
4476.23,-0.00396729,5.90668,2.888,20,99,0,
4476.24,-0.00396729,5.9021,2.888,20,99,0,
4476.24,-0.00366211,5.90363,2.888,20,99,0,
4476.24,-0.00366211,5.90515,2.888,20,99,0,
4476.24,-0.00823975,5.90515,2.888,20,99,0,
4476.24,-0.0088501,5.90363,2.888,20,99,0,
4476.25,-0.00823975,5.90363,2.888,20,99,0,
4476.25,-0.00823975,5.90668,2.888,20,99,0,
4476.25,-0.0088501,5.90668,2.888,20,99,0,
4476.25,-0.00976562,5.90668,2.888,20,99,0,
4476.25,-0.0143433,5.90363,2.888,20,99,0,
4476.26,-0.0134277,5.90668,2.888,20,99,0,
4476.26,-0.0137329,5.90515,2.888,20,99,0,
4476.26,-0.0137329,5.90515,2.888,20,99,0,
4476.26,-0.0146484,5.90515,2.888,20,99,0,
4476.26,-0.0186157,5.90363,2.888,20,99,0,
4476.27,-0.017395,5.90363,2.888,20,99,0,
4476.27,-0.0180054,5.90363,2.888,20,99,0,
4476.27,-0.0180054,5.9021,2.888,20,99,0,
4476.27,-0.020752,5.9082,2.888,20,99,0,
4476.27,-0.0231934,5.90363,2.888,20,99,0,
4476.28,-0.0231934,5.90515,2.888,20,99,0,
4476.28,-0.0234985,5.90363,2.888,20,99,0,
4476.28,-0.0234985,5.90363,2.888,20,99,0,
4476.28,-0.0253296,5.90515,2.888,20,99,0,
4476.28,-0.0286865,5.9082,2.888,20,99,0,
4476.29,-0.0280762,5.90668,2.888,20,99,0,
4476.29,-0.0283813,5.9021,2.888,20,99,0,
4476.29,-0.0280762,5.90515,2.888,20,99,0,
4476.29,-0.0326538,5.90057,2.888,20,99,0,
4476.29,-0.0332642,5.90515,2.888,20,99,0,
4476.3,-0.0335693,5.90668,2.888,20,99,0,
4476.3,-0.0338745,5.90363,2.888,20,99,0,
4476.3,-0.0332642,5.90668,2.888,20,99,0,
4476.3,-0.0369263,5.90515,2.888,20,99,0,
4476.3,-0.0384521,5.9082,2.888,20,99,0,
4476.31,-0.0378418,5.90515,2.888,20,99,0,
4476.31,-0.0384521,5.90515,2.888,20,99,0,
4476.31,-0.0387573,5.90363,2.888,20,99,0,
4476.31,-0.0436401,5.90668,2.888,20,99,0,
4476.31,-0.0427246,5.90515,2.888,20,99,0,
4476.32,-0.0427246,5.9082,2.888,20,99,0,
4476.32,-0.043335,5.90668,2.888,20,99,0,
4476.32,-0.0424194,5.90668,2.888,20,99,0,
4476.32,-0.0476074,5.90515,2.888,20,99,0,
4476.32,-0.0482178,5.9082,2.888,20,99,0,
4476.33,-0.0482178,5.9082,2.888,20,99,0,
4476.33,-0.0482178,5.90515,2.888,20,99,0,
4476.33,-0.0500488,5.90515,2.888,20,99,0,
4476.33,-0.0527954,5.90515,2.888,20,99,0,
4476.33,-0.0534058,5.90515,2.888,20,99,0,
4476.34,-0.0537109,5.90668,2.888,20,99,0,
4476.34,-0.0524902,5.90515,2.888,20,99,0,
4476.34,-0.0576782,5.90515,2.888,20,99,0,
4476.34,-0.0579834,5.9021,2.888,20,99,0,
4476.34,-0.0579834,5.90668,2.888,20,99,0,
4476.35,-0.057373,5.90668,2.888,20,99,0,
4476.35,-0.0582886,5.9021,2.888,20,99,0,
4476.35,-0.062561,5.90515,2.888,20,99,0,
4476.35,-0.0631714,5.90515,2.888,20,99,0,
4476.35,-0.0628662,5.90668,2.888,20,99,0,
4476.36,-0.0634766,5.90668,2.888,20,99,0,
4476.36,-0.0674438,5.90668,2.888,20,99,0,
4476.36,-0.0671387,5.90363,2.888,20,99,0,
4476.36,-0.0674438,5.9082,2.888,20,99,0,
4476.36,-0.0680542,5.90668,2.888,20,99,0,
4476.37,-0.0698853,5.90668,2.888,20,99,0,
4476.37,-0.072937,5.90515,2.888,20,99,0,
4476.37,-0.072937,5.90515,2.888,20,99,0,
4476.37,-0.0726318,5.90363,2.888,20,99,0,
4476.37,-0.0726318,5.90668,2.888,20,99,0,
4476.38,-0.0775146,5.90668,2.888,20,99,0,
4476.38,-0.0778198,5.90515,2.888,20,99,0,
4476.38,-0.0772095,5.90515,2.888,20,99,0,
4476.38,-0.0765991,5.90515,2.888,20,99,0,
4476.38,-0.0811768,5.90515,2.888,20,99,0,
4476.39,-0.0823975,5.90515,2.888,20,99,0,
4476.39,-0.0820923,5.90363,2.888,20,99,0,
4476.39,-0.0823975,5.90363,2.888,20,99,0,
4476.39,-0.0823975,5.9082,2.888,20,99,0,
4476.39,-0.0869751,5.90515,2.888,20,99,0,
4476.4,-0.0869751,5.9082,2.888,20,99,0,
4476.4,-0.0875854,5.90515,2.888,20,99,0,
4476.4,-0.0869751,5.9082,2.888,20,99,0,
4476.4,-0.0909424,5.90515,2.888,20,99,0,
4476.4,-0.0918579,5.90668,2.888,20,99,0,
4476.41,-0.0918579,5.90515,2.888,20,99,0,
4476.41,-0.0918579,5.90515,2.888,20,99,0,
4476.41,-0.0918579,5.90515,2.888,20,99,0,
4476.41,-0.0964355,5.90363,2.888,20,99,0,
4476.41,-0.0970459,5.90515,2.888,20,99,0,
4476.42,-0.0970459,5.90515,2.888,20,99,0,
4476.42,-0.0967407,5.90668,2.888,20,99,0,
4476.42,-0.100403,5.90515,2.888,20,99,0,
4476.42,-0.102234,5.90515,2.888,20,99,0,
4476.42,-0.101318,5.90515,2.888,20,99,0,
4476.43,-0.101929,5.90668,2.888,20,99,0,
4476.43,-0.102234,5.90668,2.888,20,99,0,
4476.43,-0.106812,5.90515,2.888,20,99,0,
4476.43,-0.107117,5.90363,2.888,20,99,0,
4476.43,-0.107117,5.90973,2.888,20,99,0,
4476.44,-0.107117,5.9082,2.888,20,99,0,
4476.44,-0.108337,5.90668,2.888,20,99,0,
4476.44,-0.111694,5.90515,2.888,20,99,0,
4476.44,-0.111389,5.90515,2.888,20,99,0,
4476.44,-0.112,5.90363,2.888,20,99,0,
4476.45,-0.112,5.90515,2.888,20,99,0,
4476.45,-0.116577,5.90515,2.888,20,99,0,
4476.45,-0.116882,5.90668,2.888,20,99,0,
4476.45,-0.116272,5.90668,2.888,20,99,0,
4476.45,-0.116882,5.90515,2.888,20,99,0,
4476.46,-0.117493,5.90515,2.888,20,99,0,
4476.46,-0.12085,5.90363,2.888,20,99,0,
4476.46,-0.12146,5.90515,2.888,20,99,0,
4476.46,-0.12146,5.9082,2.888,20,99,0,
4476.46,-0.121765,5.9082,2.888,20,99,0,
4476.47,-0.121765,5.90668,2.888,20,99,0,
4476.47,-0.126343,5.90515,2.888,20,99,0,
4476.47,-0.126343,5.90363,2.888,20,99,0,
4476.47,-0.126343,5.90515,2.888,20,99,0,
4476.47,-0.126648,5.9082,2.888,20,99,0,
4476.48,-0.125732,5.9082,2.888,20,99,0,
4476.48,-0.131226,5.90515,2.888,20,99,0,
4476.48,-0.131531,5.90363,2.888,20,99,0,
4476.48,-0.131531,5.90363,2.888,20,99,0,
4476.48,-0.131226,5.90515,2.888,20,99,0,
4476.49,-0.131226,5.9082,2.888,20,99,0,
4476.49,-0.136108,5.90515,2.888,20,99,0,
4476.49,-0.136414,5.90363,2.888,20,99,0,
4476.49,-0.136719,5.9082,2.888,20,99,0,
4476.49,-0.136108,5.90515,2.888,20,99,0,
4476.5,-0.136414,5.90363,2.888,20,99,0,
4476.5,-0.137329,5.90515,2.888,20,99,0,
4476.5,-0.140991,5.90973,2.888,20,99,0,
4476.5,-0.140991,5.90515,2.888,20,99,0,
4476.5,-0.140991,5.90515,2.888,20,99,0,
4476.51,-0.141296,5.9082,2.888,20,99,0,
4476.51,-0.141296,5.9021,2.888,20,99,0,
4476.51,-0.145569,5.90515,2.888,20,99,0,
4476.51,-0.146484,5.90515,2.888,20,99,0,
4476.51,-0.146484,5.90668,2.888,20,99,0,
4476.52,-0.145874,5.9082,2.888,20,99,0,
4476.52,-0.145874,5.90363,2.888,20,99,0,
4476.52,-0.1474,5.90668,2.888,20,99,0,
4476.52,-0.151062,5.90668,2.888,20,99,0,
4476.52,-0.151062,5.90668,2.888,20,99,0,
4476.53,-0.151062,5.9082,2.888,20,99,0,
4476.53,-0.151062,5.9082,2.888,20,99,0,
4476.53,-0.150757,5.90668,2.888,20,99,0,
4476.53,-0.152588,5.9082,2.888,20,99,0,
4476.53,-0.155945,5.90515,2.888,20,99,0,
4476.54,-0.15564,5.9082,2.888,20,99,0,
4476.54,-0.15625,5.90363,2.888,20,99,0,
4476.54,-0.156555,5.90363,2.888,20,99,0,
4476.54,-0.15564,5.90668,2.888,20,99,0,
4476.54,-0.15564,5.90515,2.888,20,99,0,
4476.55,-0.160522,5.9021,2.888,20,99,0,
4476.55,-0.160828,5.90515,2.888,20,99,0,
4476.55,-0.160828,5.90363,2.888,20,99,0,
4476.55,-0.160828,5.90363,2.888,20,99,0,
4476.55,-0.160217,5.90515,2.888,20,99,0,
4476.56,-0.160828,5.90363,2.888,20,99,0,
4476.56,-0.162354,5.90668,2.888,20,99,0,
4476.56,-0.16571,5.9082,2.888,20,99,0,
4476.56,-0.1651,5.90668,2.888,20,99,0,
4476.56,-0.165405,5.90363,2.888,20,99,0,
4476.57,-0.1651,5.90668,2.888,20,99,0,
4476.57,-0.16571,5.90668,2.888,20,99,0,
4476.57,-0.165405,5.90515,2.888,20,99,0,
4476.57,-0.166016,5.90515,2.888,20,99,0,
4476.57,-0.169983,5.90515,2.888,20,99,0,
4476.58,-0.170898,5.90515,2.888,20,99,0,
4476.58,-0.171509,5.90668,2.888,20,99,0,
4476.58,-0.170898,5.90973,2.888,20,99,0,
4476.58,-0.169983,5.90363,2.888,20,99,0,
4476.58,-0.169983,5.90515,2.888,20,99,0,
4476.59,-0.170593,5.90515,2.888,20,99,0,
4476.59,-0.173645,5.9082,2.888,20,99,0,
4476.59,-0.174866,5.90515,2.888,20,99,0,
4476.59,-0.175171,5.90515,2.888,20,99,0,
4476.59,-0.174866,5.90668,2.888,20,99,0,
4476.6,-0.175781,5.9082,2.888,20,99,0,
4476.6,-0.175476,5.90363,2.888,20,99,0,
4476.6,-0.175171,5.9082,2.888,20,99,0,
4476.6,-0.175171,5.90515,2.888,20,99,0,
4476.6,-0.177307,5.90668,2.888,20,99,0,
4476.61,-0.179749,5.90668,2.888,20,99,0,
4476.61,-0.180054,5.90515,2.888,20,99,0,
4476.61,-0.180359,5.90363,2.888,20,99,0,
4476.61,-0.180969,5.90668,2.888,20,99,0,
4476.61,-0.180359,5.90363,2.888,20,99,0,
4476.62,-0.180054,5.90363,2.888,20,99,0,
4476.62,-0.179443,5.90668,2.888,20,99,0,
4476.62,-0.180359,5.90668,2.888,20,99,0,
4476.62,-0.184326,5.90363,2.888,20,99,0,
4476.62,-0.185242,5.90668,2.888,20,99,0,
4476.63,-0.185242,5.90515,2.888,20,99,0,
4476.63,-0.184937,5.90363,2.888,20,99,0,
4476.63,-0.184937,5.90668,2.888,20,99,0,
4476.63,-0.184631,5.90363,2.888,20,99,0,
4476.63,-0.184937,5.90363,2.888,20,99,0,
4476.64,-0.185852,5.90668,2.888,20,99,0,
4476.64,-0.185242,5.90363,2.888,20,99,0,
4476.64,-0.185547,5.90363,2.888,20,99,0,
4476.64,-0.189514,5.90515,2.888,20,99,0,
4476.64,-0.189514,5.9082,2.888,20,99,0,
4476.65,-0.189819,5.90668,2.888,20,99,0,
4476.65,-0.190125,5.89447,2.888,20,99,0,
4476.65,-0.190125,5.89752,2.888,20,99,0,
4476.65,-0.190125,5.896,2.888,20,99,0,
4476.65,-0.19043,5.89295,2.888,20,99,0,
4476.66,-0.190125,5.896,2.888,20,99,0,
4476.66,-0.190125,5.89447,2.888,20,99,0,
4476.66,-0.189819,5.896,2.888,20,99,0,
4476.66,-0.191345,5.89295,2.888,20,99,0,
4476.66,-0.195312,5.896,2.888,20,99,0,
4476.67,-0.195312,5.89142,2.888,20,99,0,
4476.67,-0.195007,5.89447,2.888,20,99,0,
4476.67,-0.195618,5.88989,2.888,20,99,0,
4476.67,-0.194702,5.89447,2.888,20,99,0,
4476.67,-0.194397,5.89295,2.888,20,99,0,
4476.68,-0.195618,5.89295,2.888,20,99,0,
4476.68,-0.195312,5.896,2.888,20,99,0,
4476.68,-0.195007,5.89295,2.888,20,99,0,
4476.68,-0.195312,5.89447,2.888,20,99,0,
4476.68,-0.195312,5.89295,2.888,20,99,0,
4476.69,-0.196533,5.896,2.888,20,99,0,
4476.69,-0.200195,5.89295,2.888,20,99,0,
4476.69,-0.2005,5.89295,2.888,20,99,0,
4476.69,-0.200195,5.896,2.888,20,99,0,
4476.69,-0.19928,5.89447,2.888,20,99,0,
4476.7,-0.199585,5.89447,2.888,20,99,0,
4476.7,-0.199585,5.896,2.888,20,99,0,
4476.7,-0.200195,5.89142,2.888,20,99,0,
4476.7,-0.2005,5.89295,2.888,20,99,0,
4476.7,-0.200195,5.89295,2.888,20,99,0,
4476.71,-0.2005,5.896,2.888,20,99,0,
4476.71,-0.199585,5.89447,2.888,20,99,0,
4476.71,-0.19989,5.89295,2.888,20,99,0,
4476.71,-0.19989,5.89142,2.888,20,99,0,
4476.71,-0.19989,5.89295,2.888,20,99,0,
4476.72,-0.204773,5.896,2.888,20,99,0,
4476.72,-0.205078,5.89447,2.888,20,99,0,
4476.72,-0.204773,5.89447,2.888,20,99,0,
4476.72,-0.205078,5.89295,2.888,20,99,0,
4476.72,-0.205078,5.89447,2.888,20,99,0,
4476.73,-0.204773,5.896,2.888,20,99,0,
4476.73,-0.204773,5.88989,2.888,20,99,0,
4476.73,-0.203857,5.89295,2.888,20,99,0,
4476.73,-0.205383,5.89905,2.888,20,99,0,
4476.73,-0.204773,5.89295,2.888,20,99,0,
4476.74,-0.204468,5.89447,2.888,20,99,0,
4476.74,-0.203857,5.89142,2.888,20,99,0,
4476.74,-0.204773,5.896,2.888,20,99,0,
4476.74,-0.204773,5.89295,2.888,20,99,0,
4476.74,-0.204773,5.89295,2.888,20,99,0,
4476.75,-0.203857,5.88989,2.888,20,99,0,
4476.75,-0.204163,5.896,2.888,20,99,0,
4476.75,-0.204163,5.88989,2.888,20,99,0,
4476.75,-0.20874,5.89295,2.888,20,99,0,
4476.75,-0.209045,5.89905,2.888,20,99,0,
4476.76,-0.209656,5.89295,2.888,20,99,0,
4476.76,-0.210571,5.89295,2.888,20,99,0,
4476.76,-0.209351,5.89295,2.888,20,99,0,
4476.76,-0.209961,5.89447,2.888,20,99,0,
4476.76,-0.210571,5.88989,2.888,20,99,0,
4476.77,-0.209656,5.89142,2.888,20,99,0,
4476.77,-0.209961,5.89295,2.888,20,99,0,
4476.77,-0.210571,5.89447,2.888,20,99,0,
4476.77,-0.210571,5.89447,2.888,20,99,0,
4476.77,-0.209656,5.89295,2.888,20,99,0,
4476.78,-0.210266,5.89295,2.888,20,99,0,
4476.78,-0.210571,5.89295,2.888,20,99,0,
4476.78,-0.209656,5.89295,2.888,20,99,0,
4476.78,-0.210876,5.896,2.888,20,99,0,
4476.78,-0.209656,5.89752,2.888,20,99,0,
4476.79,-0.210266,5.89295,2.888,20,99,0,
4476.79,-0.209961,5.89295,2.888,20,99,0,
4476.79,-0.209656,5.896,2.888,20,99,0,
4476.79,-0.209656,5.88989,2.888,20,99,0,
4476.79,-0.209656,5.89752,2.888,20,99,0,
4476.8,-0.209351,5.89295,2.888,20,99,0,
4476.8,-0.210571,5.89447,2.888,20,99,0,
4476.8,-0.213623,5.89295,2.888,20,99,0,
4476.8,-0.214539,5.89295,2.888,20,99,0,
4476.8,-0.214233,5.89447,2.888,20,99,0,
4476.81,-0.215149,5.89447,2.888,20,99,0,
4476.81,-0.215759,5.89295,2.888,20,99,0,
4476.81,-0.215149,5.896,2.888,20,99,0,
4476.81,-0.215149,5.89295,2.888,20,99,0,
4476.81,-0.214844,5.89142,2.888,20,99,0,
4476.82,-0.214539,5.89295,2.888,20,99,0,
4476.82,-0.214233,5.89142,2.888,20,99,0,
4476.82,-0.214233,5.89142,2.888,20,99,0,
4476.82,-0.214539,5.89142,2.888,20,99,0,
4476.82,-0.214539,5.88837,2.888,20,99,0,
4476.83,-0.214844,5.896,2.888,20,99,0,
4476.83,-0.214539,5.89142,2.888,20,99,0,
4476.83,-0.213928,5.89447,2.888,20,99,0,
4476.83,-0.214233,5.89447,2.888,20,99,0,
4476.83,-0.214233,5.896,2.888,20,99,0,
4476.84,-0.214844,5.89295,2.888,20,99,0,
4476.84,-0.214844,5.89142,2.888,20,99,0,
4476.84,-0.214233,5.89142,2.888,20,99,0,
4476.84,-0.213928,5.89447,2.888,20,99,0,
4476.84,-0.214539,5.89447,2.888,20,99,0,
4476.85,-0.214844,5.89295,2.888,20,99,0,
4476.85,-0.214539,5.896,2.888,20,99,0,
4476.85,-0.214233,5.89142,2.888,20,99,0,
4476.85,-0.214539,5.896,2.888,20,99,0,
4476.85,-0.214539,5.896,2.888,20,99,0,
4476.86,-0.214233,5.896,2.888,20,99,0,
4476.86,-0.218506,5.88989,2.888,20,99,0,
4476.86,-0.219116,5.89295,2.888,20,99,0,
4476.86,-0.220032,5.89295,2.888,20,99,0,
4476.86,-0.219421,5.89295,2.888,20,99,0,
4476.87,-0.220032,5.89447,2.888,20,99,0,
4476.87,-0.219421,5.896,2.888,20,99,0,
4476.87,-0.219421,5.89447,2.888,20,99,0,
4476.87,-0.219727,5.89142,2.888,20,99,0,
4476.87,-0.219421,5.89142,2.888,20,99,0,
4476.88,-0.220337,5.89295,2.888,20,99,0,
4476.88,-0.220032,5.89142,2.888,20,99,0,
4476.88,-0.219727,5.896,2.888,20,99,0,
4476.88,-0.219421,5.89142,2.888,20,99,0,
4476.88,-0.219421,5.89447,2.888,20,99,0,
4476.89,-0.219727,5.89295,2.888,20,99,0,
4476.89,-0.218811,5.89295,2.888,20,99,0,
4476.89,-0.219727,5.89295,2.888,20,99,0,
4476.89,-0.219727,5.89447,2.888,20,99,0,
4476.89,-0.219727,5.89295,2.888,20,99,0,
4476.9,-0.220032,5.89295,2.888,20,99,0,
4476.9,-0.219421,5.896,2.888,20,99,0,
4476.9,-0.219421,5.89447,2.888,20,99,0,
4476.9,-0.219116,5.88989,2.888,20,99,0,
4476.9,-0.219421,5.88989,2.888,20,99,0,
4476.91,-0.219727,5.89447,2.888,20,99,0,
4476.91,-0.219421,5.89295,2.888,20,99,0,
4476.91,-0.219421,5.89447,2.888,20,99,0,
4476.91,-0.219116,5.89447,2.888,20,99,0,
4476.91,-0.219421,5.88989,2.888,20,99,0,
4476.92,-0.219421,5.89447,2.888,20,99,0,
4476.92,-0.219727,5.89295,2.888,20,99,0,
4476.92,-0.219421,5.89447,2.888,20,99,0,
4476.92,-0.220032,5.89295,2.888,20,99,0,
4476.92,-0.218811,5.89447,2.888,20,99,0,
4476.93,-0.218811,5.896,2.888,20,99,0,
4476.93,-0.219421,5.89295,2.888,20,99,0,
4476.93,-0.219116,5.88837,2.888,20,99,0,
4476.93,-0.219727,5.89142,2.888,20,99,0,
4476.93,-0.220947,5.896,2.888,20,99,0,
4476.94,-0.224304,5.88989,2.888,20,99,0,
4476.94,-0.224609,5.896,2.888,20,99,0,
4476.94,-0.224609,5.896,2.888,20,99,0,
4476.94,-0.224609,5.89447,2.888,20,99,0,
4476.94,-0.224609,5.89295,2.888,20,99,0,
4476.95,-0.224304,5.89295,2.888,20,99,0,
4476.95,-0.224304,5.89295,2.888,20,99,0,
4476.95,-0.22522,5.88989,2.888,20,99,0,
4476.95,-0.224609,5.896,2.888,20,99,0,
4476.95,-0.224304,5.89447,2.888,20,99,0,
4476.96,-0.224304,5.89142,2.888,20,99,0,
4476.96,-0.224609,5.896,2.888,20,99,0,
4476.96,-0.223999,5.88837,2.888,20,99,0,
4476.96,-0.22522,5.88989,2.888,20,99,0,
4476.96,-0.224304,5.89142,2.888,20,99,0,
4476.97,-0.223389,5.89752,2.888,20,99,0,
4476.97,-0.224304,5.89447,2.888,20,99,0,
4476.97,-0.22522,5.89142,2.888,20,99,0,
4476.97,-0.224609,5.89295,2.888,20,99,0,
4476.97,-0.223999,5.89295,2.888,20,99,0,
4476.98,-0.224304,5.89447,2.888,20,99,0,
4476.98,-0.223999,5.89295,2.888,20,99,0,
4476.98,-0.224915,5.896,2.888,20,99,0,
4476.98,-0.223999,5.89142,2.888,20,99,0,
4476.98,-0.224609,5.89142,2.888,20,99,0,
4476.99,-0.224304,5.89447,2.888,20,99,0,
4476.99,-0.228577,5.88989,2.888,20,99,0,
4476.99,-0.229187,5.896,2.888,20,99,0,
4476.99,-0.230103,5.89447,2.888,20,99,0,
4476.99,-0.229187,5.89142,2.888,20,99,0,
4477,-0.229492,5.89295,2.888,20,99,0,
4477,-0.228577,5.896,2.888,20,99,0,
4477,-0.229187,5.896,2.888,20,99,0,
4477,-0.230408,5.89295,2.888,20,99,0,
4477,-0.229797,5.89295,2.888,20,99,0,
4477.01,-0.228882,5.89447,2.888,20,99,0,
4477.01,-0.229492,5.89295,2.888,20,99,0,
4477.01,-0.228882,5.89295,2.888,20,99,0,
4477.01,-0.229797,5.89295,2.888,20,99,0,
4477.01,-0.229187,5.89752,2.888,20,99,0,
4477.02,-0.229187,5.896,2.888,20,99,0,
4477.02,-0.229187,5.88989,2.888,20,99,0,
4477.02,-0.228882,5.89447,2.888,20,99,0,
4477.02,-0.229187,5.89752,2.888,20,99,0,
4477.02,-0.233154,5.89447,2.888,20,99,0,
4477.03,-0.235291,5.89295,2.888,20,99,0,
4477.03,-0.234375,5.89142,2.888,20,99,0,
4477.03,-0.23407,5.89447,2.888,20,99,0,
4477.03,-0.234375,5.88989,2.888,20,99,0,
4477.03,-0.23407,5.89142,2.888,20,99,0,
4477.04,-0.234985,5.89295,2.888,20,99,0,
4477.04,-0.23468,5.89142,2.888,20,99,0,
4477.04,-0.23407,5.89295,2.888,20,99,0,
4477.04,-0.234375,5.89295,2.888,20,99,0,
4477.04,-0.23468,5.89295,2.888,20,99,0,
4477.05,-0.234375,5.896,2.888,20,99,0,
4477.05,-0.23468,5.89142,2.888,20,99,0,
4477.05,-0.234375,5.89142,2.888,20,99,0,
4477.05,-0.237732,5.89295,2.888,20,99,0,
4477.05,-0.240173,5.88989,2.888,20,99,0,
4477.06,-0.238953,5.89752,2.888,20,99,0,
4477.06,-0.239258,5.89295,2.888,20,99,0,
4477.06,-0.239258,5.89295,2.888,20,99,0,
4477.06,-0.239563,5.89142,2.888,20,99,0,
4477.06,-0.239258,5.89142,2.888,20,99,0,
4477.07,-0.239563,5.89447,2.888,20,99,0,
4477.07,-0.239563,5.89295,2.888,20,99,0,
4477.07,-0.239258,5.89295,2.888,20,99,0,
4477.07,-0.239563,5.89142,2.888,20,99,0,
