4900-SECPT.acq
2 msec/sample
6 channels
RSP, X, RSPEC-R
Volts
EDA, Y, PPGED-R
microsiemens
ECG R-R
Seconds
Respiration Rate
BPM
C7 - EDR
Peaks
C14 - Control
Volts
min,CH1,CH14,CH40,CH42,CH47,CH54,
,90222,90222,90222,90222,90222,90222,
64.9597,2.89612,5.72052,3.166,20,135,5,
64.9598,2.901,5.72205,3.166,20,135,5,
64.9598,2.90131,5.72052,3.166,20,135,5,
64.9598,2.90619,5.71747,3.166,20,135,5,
64.9599,2.90649,5.72205,3.166,20,135,5,
64.9599,2.90985,5.70984,3.166,20,135,5,
64.9599,2.91199,5.70984,3.166,20,135,5,
64.96,2.91199,5.70679,3.166,20,135,5,
64.96,2.91595,5.71137,3.166,20,135,5,
64.96,2.91656,5.70679,3.166,20,135,5,
64.9601,2.92175,5.70831,3.166,20,135,5,
64.9601,2.92145,5.70526,3.166,20,135,5,
64.9601,2.92572,5.70679,3.166,20,135,5,
64.9602,2.92572,5.70374,3.166,20,135,5,
64.9602,2.9306,5.70526,3.166,20,135,5,
64.9602,2.9303,5.70831,3.166,20,135,5,
64.9603,2.93396,5.70679,3.166,20,135,5,
64.9603,2.93579,5.70831,3.166,20,135,5,
64.9603,2.9361,5.70831,3.166,20,135,5,
64.9604,2.94098,5.70984,3.166,20,135,5,
64.9604,2.94159,5.70374,3.166,20,135,5,
64.9604,2.94525,5.70679,3.166,20,135,5,
64.9605,2.94586,5.70679,3.166,20,135,5,
64.9605,2.95013,5.70831,3.166,20,135,5,
64.9605,2.95013,5.70831,3.166,20,135,5,
64.9606,2.95532,5.70679,3.166,20,135,5,
64.9606,2.95502,5.70526,3.166,20,135,5,
64.9606,2.96021,5.70831,3.166,20,135,5,
64.9607,2.9599,5.70679,3.166,20,135,5,
64.9607,2.9657,5.70831,3.166,20,135,5,
64.9607,2.9657,5.71137,3.166,20,135,5,
64.9608,2.96783,5.70679,3.166,20,135,5,
64.9608,2.96997,5.71137,3.166,20,135,5,
64.9608,2.97333,5.70831,3.166,20,135,5,
64.9609,2.97485,5.70679,3.166,20,135,5,
64.9609,2.97791,5.70679,3.166,20,135,5,
64.9609,2.97943,5.70984,3.166,20,135,5,
64.961,2.98035,5.70679,3.166,20,135,5,
64.961,2.98492,5.70526,3.166,20,135,5,
64.961,2.98553,5.70374,3.166,20,135,5,
64.9611,2.99011,5.71289,3.166,20,135,5,
64.9611,2.99011,5.70831,3.166,20,135,5,
64.9611,2.99438,5.70831,3.166,20,135,5,
64.9612,2.99408,5.70679,3.166,20,135,5,
64.9612,2.99896,5.70831,3.166,20,135,5,
64.9612,2.99896,5.70831,3.166,20,135,5,
64.9613,3.00415,5.70679,3.166,20,135,5,
64.9613,3.00446,5.70984,3.166,20,135,5,
64.9613,3.00873,5.70679,3.166,20,135,5,
64.9614,3.00873,5.70831,3.166,20,135,5,
64.9614,3.01453,5.70984,3.166,20,135,5,
64.9614,3.01422,5.70831,3.166,20,135,5,
64.9615,3.0191,5.70526,3.166,20,135,5,
64.9615,3.0188,5.71137,3.166,20,135,5,
64.9615,3.02399,5.70679,3.166,20,135,5,
64.9616,3.02429,5.70984,3.166,20,135,5,
64.9616,3.02887,5.70831,3.166,20,135,5,
64.9616,3.02856,5.70679,3.166,20,135,5,
64.9617,3.03375,5.70831,3.166,20,135,5,
64.9617,3.03345,5.70526,3.166,20,135,5,
64.9617,3.03772,5.70831,3.166,20,135,5,
64.9618,3.03864,5.70831,3.166,20,135,5,
64.9618,3.04321,5.70679,3.166,20,135,5,
64.9618,3.04382,5.71137,3.166,20,135,5,
64.9619,3.04871,5.70374,3.166,20,135,5,
64.9619,3.04871,5.70526,3.166,20,135,5,
64.9619,3.05298,5.70679,3.166,20,135,5,
64.962,3.05359,5.70526,3.166,20,135,5,
64.962,3.05817,5.70984,3.166,20,135,5,
64.962,3.05817,5.70679,3.166,20,135,5,
64.9621,3.06305,5.70526,3.166,20,135,5,
64.9621,3.06335,5.70984,3.166,20,135,5,
64.9621,3.06793,5.70984,3.166,20,135,5,
64.9622,3.06824,5.70984,3.166,20,135,5,
64.9622,3.07251,5.70526,3.166,20,135,5,
64.9622,3.07343,5.70679,3.166,20,135,5,
64.9623,3.07709,5.70831,3.166,20,135,5,
64.9623,3.078,5.70526,3.166,20,135,5,
64.9623,3.08197,5.70831,3.166,20,135,5,
64.9624,3.08289,5.70831,3.166,20,135,5,
64.9624,3.08716,5.70526,3.166,20,135,5,
64.9624,3.08746,5.70831,3.166,20,135,5,
64.9625,3.09296,5.70679,3.166,20,135,5,
64.9625,3.09204,5.70831,3.166,20,135,5,
64.9625,3.09784,5.70679,3.166,20,135,5,
64.9626,3.09753,5.70831,3.166,20,135,5,
64.9626,3.10242,5.70831,3.166,20,135,5,
64.9626,3.10211,5.70831,3.166,20,135,5,
64.9627,3.1073,5.70984,3.166,20,135,5,
64.9627,3.1076,5.70831,3.166,20,135,5,
64.9627,3.11188,5.70526,3.166,20,135,5,
64.9628,3.11188,5.71137,3.166,20,135,5,
64.9628,3.11707,5.70679,3.166,20,135,5,
64.9628,3.11676,5.70679,3.166,20,135,5,
64.9629,3.12164,5.70679,3.166,20,135,5,
64.9629,3.12286,5.70831,3.166,20,135,5,
64.9629,3.12653,5.70679,3.166,20,135,5,
64.963,3.12714,5.70831,3.166,20,135,5,
64.963,3.13171,5.70679,3.166,20,135,5,
64.963,3.13171,5.70221,3.166,20,135,5,
64.9631,3.1366,5.70984,3.166,20,135,5,
64.9631,3.13751,5.70831,3.166,20,135,5,
64.9631,3.14148,5.70984,3.166,20,135,5,
64.9632,3.14484,5.70984,3.166,20,135,5,
64.9632,3.14667,5.70984,3.166,20,135,5,
64.9632,3.14972,5.70831,3.166,20,135,5,
64.9633,3.15155,5.70679,3.166,20,135,5,
64.9633,3.15521,5.70526,3.166,20,135,5,
64.9633,3.15643,5.70831,3.166,20,135,5,
64.9634,3.16071,5.70679,3.166,20,135,5,
64.9634,3.16071,5.70831,3.166,20,135,5,
64.9634,3.16498,5.70984,3.166,20,135,5,
64.9635,3.16498,5.70984,3.166,20,135,5,
64.9635,3.17078,5.70831,3.166,20,135,5,
64.9635,3.16986,5.70831,3.166,20,135,5,
64.9636,3.17596,5.70831,3.166,20,135,5,
64.9636,3.17627,5.70679,3.166,20,135,5,
64.9636,3.18146,5.70831,3.166,20,135,5,
64.9637,3.18146,5.70984,3.166,20,135,5,
64.9637,3.18542,5.70984,3.166,20,135,5,
64.9637,3.18848,5.70374,3.166,20,135,5,
64.9638,3.1897,5.70526,3.166,20,135,5,
64.9638,3.19366,5.70831,3.166,20,135,5,
64.9638,3.1955,5.70679,3.166,20,135,5,
64.9639,3.19977,5.70526,3.166,20,135,5,
64.9639,3.20068,5.70984,3.166,20,135,5,
64.9639,3.20496,5.70831,3.166,20,135,5,
64.964,3.20557,5.70679,3.166,20,135,5,
64.964,3.20953,5.70831,3.166,20,135,5,
64.964,3.21014,5.70984,3.166,20,135,5,
64.9641,3.21472,5.70984,3.166,20,135,5,
64.9641,3.21503,5.70831,3.166,20,135,5,
64.9641,3.22021,5.71137,3.166,20,135,5,
64.9642,3.22296,5.70831,3.166,20,135,5,
64.9642,3.22479,5.70831,3.166,20,135,5,
64.9642,3.22784,5.70831,3.166,20,135,5,
64.9643,3.22937,5.70679,3.166,20,135,5,
64.9643,3.23456,5.70374,3.166,20,135,5,
64.9643,3.23395,5.70984,3.166,20,135,5,
64.9644,3.23944,5.70831,3.166,20,135,5,
64.9644,3.23944,5.70679,3.166,20,135,5,
64.9644,3.24463,5.70679,3.166,20,135,5,
64.9645,3.24524,5.70984,3.166,20,135,5,
64.9645,3.24921,5.70679,3.166,20,135,5,
64.9645,3.25195,5.70831,3.166,20,135,5,
64.9646,3.25409,5.70526,3.166,20,135,5,
64.9646,3.25928,5.70679,3.166,20,135,5,
64.9646,3.25897,5.70679,3.166,20,135,5,
64.9647,3.26385,5.70831,3.166,20,135,5,
64.9647,3.26447,5.70831,3.166,20,135,5,
64.9647,3.26843,5.70831,3.166,20,135,5,
64.9648,3.26935,5.70831,3.166,20,135,5,
64.9648,3.27393,5.70831,3.166,20,135,5,
64.9648,3.27728,5.69611,3.166,20,135,5,
64.9649,3.27881,5.69458,3.166,20,135,5,
64.9649,3.28369,5.69153,3.166,20,135,5,
64.9649,3.284,5.69458,3.166,20,135,5,
64.965,3.28857,5.69306,3.166,20,135,5,
64.965,3.28949,5.70068,3.166,20,135,5,
64.965,3.29376,5.69611,3.166,20,135,5,
64.9651,3.29651,5.69763,3.166,20,135,5,
64.9651,3.29834,5.69611,3.166,20,135,5,
64.9651,3.30261,5.69306,3.166,20,135,5,
64.9652,3.30261,5.69458,3.166,20,135,5,
64.9652,3.30811,5.69458,3.166,20,135,5,
64.9652,3.30872,5.69,3.166,20,135,5,
64.9653,3.31238,5.69306,3.166,20,135,5,
64.9653,3.31635,5.69306,3.166,20,135,5,
64.9653,3.31818,5.69611,3.166,20,135,5,
64.9654,3.32275,5.69458,3.166,20,135,5,
64.9654,3.32275,5.69458,3.166,20,135,5,
64.9654,3.32764,5.69611,3.166,20,135,5,
64.9655,3.32825,5.69153,3.166,20,135,5,
64.9655,3.33282,5.69,3.166,20,135,5,
64.9655,3.33588,5.69458,3.166,20,135,5,
64.9656,3.3374,5.69458,3.166,20,135,5,
64.9656,3.34259,5.69306,3.166,20,135,5,
64.9656,3.34259,5.69153,3.166,20,135,5,
64.9657,3.34778,5.69458,3.166,20,135,5,
64.9657,3.34778,5.69306,3.166,20,135,5,
64.9657,3.35236,5.69153,3.166,20,135,5,
64.9658,3.35571,5.69458,3.166,20,135,5,
64.9658,3.35663,5.69458,3.166,20,135,5,
64.9658,3.36121,5.69458,3.166,20,135,5,
64.9659,3.36151,5.69458,3.166,20,135,5,
64.9659,3.3667,5.69763,3.166,20,135,5,
64.9659,3.36731,5.69458,3.166,20,135,5,
64.966,3.37219,5.69458,3.166,20,135,5,
64.966,3.37494,5.69458,3.166,20,135,5,
64.966,3.37646,5.69458,3.166,20,135,5,
64.9661,3.38135,5.69153,3.166,20,135,5,
64.9661,3.38165,5.69458,3.166,20,135,5,
64.9661,3.38593,5.69153,3.166,20,135,5,
64.9662,3.38715,5.69611,3.166,20,135,5,
64.9662,3.39111,5.69306,3.166,20,135,5,
64.9662,3.39478,5.69306,3.166,20,135,5,
64.9663,3.39508,5.69153,3.166,20,135,5,
64.9663,3.40088,5.69763,3.166,20,135,5,
64.9663,3.40118,5.69763,3.166,20,135,5,
64.9664,3.40607,5.69763,3.166,20,135,5,
64.9664,3.40668,5.69763,3.166,20,135,5,
64.9664,3.41125,5.69611,3.166,20,135,5,
64.9665,3.414,5.69458,3.166,20,135,5,
64.9665,3.41553,5.69611,3.166,20,135,5,
64.9665,3.42041,5.69306,3.166,20,135,5,
64.9666,3.42102,5.69306,3.166,20,135,5,
64.9666,3.4256,5.69763,3.166,20,135,5,
64.9666,3.42529,5.69458,3.166,20,135,5,
64.9667,3.43048,5.69,3.166,20,135,5,
64.9667,3.43109,5.69611,3.166,20,135,5,
64.9667,3.43567,5.69763,3.166,20,135,5,
64.9668,3.43842,5.69611,3.166,20,135,5,
64.9668,3.44055,5.69153,3.166,20,135,5,
64.9668,3.44452,5.69458,3.166,20,135,5,
64.9669,3.44452,5.69611,3.166,20,135,5,
64.9669,3.4494,5.69611,3.166,20,135,5,
64.9669,3.45001,5.69458,3.166,20,135,5,
64.967,3.4552,5.69611,3.166,20,135,5,
64.967,3.4552,5.69458,3.166,20,135,5,
64.967,3.45917,5.69153,3.166,20,135,5,
64.9671,3.461,5.69611,3.166,20,135,5,
64.9671,3.46466,5.69458,3.166,20,135,5,
64.9671,3.46771,5.69458,3.166,20,135,5,
64.9672,3.46893,5.69611,3.166,20,135,5,
64.9672,3.4729,5.69763,3.166,20,135,5,
64.9672,3.47412,5.69611,3.166,20,135,5,
64.9673,3.479,5.69458,3.166,20,135,5,
64.9673,3.47992,5.69611,3.166,20,135,5,
64.9673,3.48358,5.69458,3.166,20,135,5,
64.9674,3.48419,5.69763,3.166,20,135,5,
64.9674,3.48907,5.69458,3.166,20,135,5,
64.9674,3.48938,5.69611,3.166,20,135,5,
64.9675,3.49426,5.69458,3.166,20,135,5,
64.9675,3.49426,5.69458,3.166,20,135,5,
64.9675,3.50006,5.69458,3.166,20,135,5,
64.9676,3.49915,5.69153,3.166,20,135,5,
64.9676,3.50433,5.69458,3.166,20,135,5,
64.9676,3.50433,5.69458,3.166,20,135,5,
64.9677,3.50983,5.69458,3.166,20,135,5,
64.9677,3.50922,5.69611,3.166,20,135,5,
64.9677,3.51501,5.69306,3.166,20,135,5,
64.9678,3.51471,5.69611,3.166,20,135,5,
64.9678,3.5199,5.69458,3.166,20,135,5,
64.9678,3.5202,5.69458,3.166,20,135,5,
64.9679,3.52478,5.69458,3.166,20,135,5,
64.9679,3.52478,5.69306,3.166,20,135,5,
64.9679,3.52905,5.69458,3.166,20,135,5,
64.968,3.52875,5.69458,3.166,20,135,5,
64.968,3.53363,5.69458,3.166,20,135,5,
64.968,3.53302,5.69306,3.166,20,135,5,
64.9681,3.5379,5.69458,3.166,20,135,5,
64.9681,3.5379,5.69458,3.166,20,135,5,
64.9681,3.54309,5.69306,3.166,20,135,5,
64.9682,3.54279,5.69458,3.166,20,135,5,
64.9682,3.54706,5.69306,3.166,20,135,5,
64.9682,3.54767,5.69763,3.166,20,135,5,
64.9683,3.55255,5.69306,3.166,20,135,5,
64.9683,3.55286,5.69763,3.166,20,135,5,
64.9683,3.55652,5.69306,3.166,20,135,5,
64.9684,3.55682,5.69458,3.166,20,135,5,
64.9684,3.55835,5.69611,3.166,20,135,5,
64.9684,3.56201,5.69306,3.166,20,135,5,
64.9685,3.56323,5.69458,3.166,20,135,5,
64.9685,3.56659,5.69458,3.166,20,135,5,
64.9685,3.56659,5.69306,3.166,20,135,5,
64.9686,3.57239,5.69611,3.166,20,135,5,
64.9686,3.57239,5.69153,3.166,20,135,5,
64.9686,3.57666,5.69306,3.166,20,135,5,
64.9687,3.57727,5.69458,3.166,20,135,5,
64.9687,3.57758,5.69458,3.166,20,135,5,
64.9687,3.58185,5.69458,3.166,20,135,5,
64.9688,3.58215,5.69916,3.166,20,135,5,
64.9688,3.58643,5.69458,3.166,20,135,5,
64.9688,3.58704,5.69611,3.166,20,135,5,
64.9689,3.59161,5.69611,3.166,20,135,5,
64.9689,3.59253,5.69306,3.166,20,135,5,
64.9689,3.59253,5.69611,3.166,20,135,5,
64.969,3.5965,5.69763,3.166,20,135,5,
64.969,3.59741,5.69153,3.166,20,135,5,
64.969,3.60107,5.69458,3.166,20,135,5,
64.9691,3.60168,5.69763,3.166,20,135,5,
64.9691,3.60535,5.69763,3.166,20,135,5,
64.9691,3.60687,5.69306,3.166,20,135,5,
64.9692,3.60657,5.69611,3.166,20,135,5,
64.9692,3.61115,5.69458,3.166,20,135,5,
64.9692,3.61115,5.69306,3.166,20,135,5,
64.9693,3.6145,5.69306,3.166,20,135,5,
64.9693,3.61664,5.69763,3.166,20,135,5,
64.9693,3.61664,5.69306,3.166,20,135,5,
64.9694,3.62061,5.69306,3.166,20,135,5,
64.9694,3.62091,5.69611,3.166,20,135,5,
64.9694,3.62457,5.69458,3.166,20,135,5,
64.9695,3.6264,5.69306,3.166,20,135,5,
64.9695,3.62579,5.69611,3.166,13.2159,135,5,
64.9695,3.63037,5.69306,3.166,13.2159,135,5,
64.9696,3.63129,5.69306,3.166,13.2159,135,5,
64.9696,3.63098,5.69611,3.166,13.2159,135,5,
64.9696,3.63617,5.69458,3.166,13.2159,135,5,
64.9697,3.63617,5.69611,3.166,13.2159,135,5,
64.9697,3.63647,5.6839,3.166,13.2159,135,5,
64.9697,3.64075,5.6839,3.166,13.2159,135,5,
64.9698,3.64105,5.6839,3.166,13.2159,135,5,
64.9698,3.64441,5.6839,3.166,13.2159,135,5,
64.9698,3.64655,5.68237,3.166,13.2159,135,5,
64.9699,3.64624,5.68085,3.166,13.2159,135,5,
64.9699,3.65021,5.68085,3.166,13.2159,135,5,
64.9699,3.65082,5.6839,3.166,13.2159,135,5,
64.97,3.65143,5.6839,3.166,13.2159,135,5,
64.97,3.6554,5.68237,3.166,13.2159,135,5,
64.97,3.65509,5.68543,3.166,13.2159,135,5,
64.9701,3.65601,5.6839,3.166,13.2159,135,5,
64.9701,3.66058,5.6839,3.166,13.2159,135,5,
64.9701,3.66089,5.68237,3.166,13.2159,135,5,
64.9702,3.66119,5.67932,3.166,13.2159,135,5,
64.9702,3.66455,5.68543,3.166,13.2159,135,5,
64.9702,3.66577,5.68085,3.166,13.2159,135,5,
64.9703,3.66547,5.6839,3.166,13.2159,135,5,
64.9703,3.66974,5.6839,3.166,13.2159,135,5,
64.9703,3.67096,5.6839,3.166,13.2159,135,5,
64.9704,3.67096,5.68085,3.166,13.2159,135,5,
64.9704,3.6734,5.68237,3.166,13.2159,135,5,
64.9704,3.67584,5.68237,3.166,13.2159,135,5,
64.9705,3.67554,5.68543,3.166,13.2159,135,5,
64.9705,3.67615,5.68543,3.166,13.2159,135,5,
64.9705,3.67981,5.6839,3.166,13.2159,135,5,
64.9706,3.68073,5.68085,3.166,13.2159,135,5,
64.9706,3.68011,5.6839,3.166,13.2159,135,5,
64.9706,3.68469,5.6839,3.166,13.2159,135,5,
64.9707,3.6853,5.68237,3.166,13.2159,135,5,
64.9707,3.68591,5.68237,3.166,13.2159,135,5,
64.9707,3.68896,5.6839,3.166,13.2159,135,5,
64.9708,3.68988,5.68237,3.166,13.2159,135,5,
64.9708,3.69049,5.68543,3.166,13.2159,135,5,
64.9708,3.69049,5.6839,3.166,13.2159,135,5,
64.9709,3.69476,5.68237,3.166,13.2159,135,5,
64.9709,3.69537,5.6839,3.166,13.2159,135,5,
64.9709,3.69476,5.68237,3.166,13.2159,135,5,
64.971,3.69812,5.6839,3.166,13.2159,135,5,
64.971,3.69995,5.6839,3.166,13.2159,135,5,
64.971,3.70026,5.6839,3.166,13.2159,135,5,
64.9711,3.69995,5.68237,3.166,13.2159,135,5,
64.9711,3.70544,5.68085,3.166,13.2159,135,5,
64.9711,3.70544,5.68237,3.166,13.2159,135,5,
64.9712,3.70453,5.6839,3.166,13.2159,135,5,
64.9712,3.70514,5.6839,3.166,13.2159,135,5,
64.9712,3.70911,5.6839,3.166,13.2159,135,5,
64.9713,3.70972,5.68543,3.166,13.2159,135,5,
64.9713,3.70972,5.68237,3.166,13.2159,135,5,
64.9713,3.70941,5.6839,3.166,13.2159,135,5,
64.9714,3.7146,5.68237,3.166,13.2159,135,5,
64.9714,3.7149,5.68543,3.166,13.2159,135,5,
64.9714,3.7149,5.6839,3.166,13.2159,135,5,
64.9715,3.7149,5.68237,3.166,13.2159,135,5,
64.9715,3.71765,5.6839,3.166,13.2159,135,5,
64.9715,3.71948,5.68237,3.166,13.2159,135,5,
64.9716,3.71948,5.68085,3.166,13.2159,135,5,
64.9716,3.71979,5.6839,3.166,13.2159,135,5,
64.9716,3.71948,5.68543,3.166,13.2159,135,5,
64.9717,3.72406,5.68237,3.166,13.2159,135,5,
64.9717,3.72498,5.6839,3.166,13.2159,135,5,
64.9717,3.72467,5.6839,3.166,13.2159,135,5,
64.9718,3.72437,5.6839,3.166,13.2159,135,5,
64.9718,3.72437,5.6839,3.166,13.2159,135,5,
64.9718,3.72925,5.68085,3.166,13.2159,135,5,
64.9719,3.72955,5.6839,3.166,13.2159,135,5,
64.9719,3.72894,5.68237,3.166,13.2159,135,5,
64.9719,3.72894,5.68085,3.166,13.2159,135,5,
64.972,3.73322,5.68085,3.166,13.2159,135,5,
64.972,3.73474,5.68543,3.166,13.2159,135,5,
64.972,3.73413,5.68543,3.166,13.2159,135,5,
64.9721,3.73383,5.67932,3.166,13.2159,135,5,
64.9721,3.73444,5.6839,3.166,13.2159,135,5,
64.9721,3.73474,5.68543,3.166,13.2159,135,5,
64.9722,3.73901,5.6839,3.166,13.2159,135,5,
64.9722,3.7384,5.68085,3.166,13.2159,135,5,
64.9722,3.73932,5.6839,3.166,13.2159,135,5,
64.9723,3.73932,5.68085,3.166,13.2159,135,5,
64.9723,3.73962,5.68237,3.166,13.2159,135,5,
64.9723,3.74359,5.6839,3.166,13.2159,135,5,
64.9724,3.74359,5.67932,3.166,13.2159,135,5,
64.9724,3.74329,5.68237,3.166,13.2159,135,5,
64.9724,3.74451,5.68085,3.166,13.2159,135,5,
64.9725,3.74359,5.67932,3.166,13.2159,135,5,
64.9725,3.7439,5.68237,3.166,13.2159,135,5,
64.9725,3.74847,5.6839,3.166,13.2159,135,5,
64.9726,3.74878,5.68085,3.166,13.2159,135,5,
64.9726,3.74847,5.68085,3.166,13.2159,135,5,
64.9726,3.74939,5.6839,3.166,13.2159,135,5,
64.9727,3.74878,5.6778,3.166,13.2159,135,5,
64.9727,3.74939,5.68085,3.166,13.2159,135,5,
64.9727,3.75214,5.68237,3.166,13.2159,135,5,
64.9728,3.75397,5.68543,3.166,13.2159,135,5,
64.9728,3.75397,5.6839,3.166,13.2159,135,5,
64.9728,3.75397,5.68237,3.166,13.2159,135,5,
64.9729,3.75336,5.68237,3.166,13.2159,135,5,
64.9729,3.75397,5.6839,3.166,13.2159,135,5,
64.9729,3.75336,5.6839,3.166,13.2159,135,5,
64.973,3.75793,5.6839,3.166,13.2159,135,5,
64.973,3.75854,5.6839,3.166,13.2159,135,5,
64.973,3.75885,5.68237,3.166,13.2159,135,5,
64.9731,3.75854,5.68237,3.166,13.2159,135,5,
64.9731,3.75854,5.68085,3.166,13.2159,135,5,
64.9731,3.75854,5.68237,3.166,13.2159,135,5,
64.9732,3.75824,5.68237,3.166,13.2159,135,5,
64.9732,3.75885,5.68237,3.166,13.2159,135,5,
64.9732,3.76282,5.67932,3.166,13.2159,135,5,
64.9733,3.76404,5.68543,3.166,13.2159,135,5,
64.9733,3.76282,5.68237,3.166,13.2159,135,5,
64.9733,3.76373,5.68085,3.166,13.2159,135,5,
64.9734,3.76343,5.68085,3.166,13.2159,135,5,
64.9734,3.76373,5.68543,3.166,13.2159,135,5,
64.9734,3.76373,5.68085,3.166,13.2159,135,5,
64.9735,3.76343,5.68543,3.166,13.2159,135,5,
64.9735,3.7677,5.68237,3.166,13.2159,135,5,
64.9735,3.7674,5.68237,3.166,13.2159,135,5,
64.9736,3.76862,5.68085,3.166,13.2159,135,5,
64.9736,3.76801,5.68543,3.166,13.2159,135,5,
64.9736,3.76892,5.68543,3.166,13.2159,135,5,
64.9737,3.76862,5.68237,3.166,13.2159,135,5,
64.9737,3.76831,5.68085,3.166,13.2159,135,5,
64.9737,3.76862,5.6839,3.166,13.2159,135,5,
64.9738,3.76801,5.6839,3.166,13.2159,135,5,
64.9738,3.76892,5.68848,3.166,13.2159,135,5,
64.9738,3.7735,5.68237,3.166,13.2159,135,5,
64.9739,3.77289,5.68237,3.166,13.2159,135,5,
64.9739,3.7735,5.6839,3.166,13.2159,135,5,
64.9739,3.7735,5.6839,3.166,13.2159,135,5,
64.974,3.7735,5.6839,3.166,13.2159,135,5,
64.974,3.77319,5.68085,3.166,13.2159,135,5,
64.974,3.77289,5.68237,3.166,13.2159,135,5,
64.9741,3.7735,5.6839,3.166,13.2159,135,5,
64.9741,3.7738,5.68237,3.166,13.2159,135,5,
64.9741,3.77319,5.68543,3.166,13.2159,135,5,
64.9742,3.77319,5.68237,3.166,13.2159,135,5,
64.9742,3.77777,5.68237,3.166,13.2159,135,5,
64.9742,3.77838,5.68085,3.166,13.2159,135,5,
64.9743,3.77838,5.68237,3.166,13.2159,135,5,
64.9743,3.77838,5.68237,3.166,13.2159,135,5,
64.9743,3.77808,5.6839,3.166,13.2159,135,5,
64.9744,3.77808,5.68237,3.166,13.2159,135,5,
64.9744,3.77808,5.6839,3.166,13.2159,135,5,
64.9744,3.77747,5.68543,3.166,13.2159,135,5,
64.9745,3.77838,5.68237,3.166,13.2159,135,5,
64.9745,3.77777,5.68085,3.166,13.2159,135,5,
64.9745,3.77838,5.6839,3.166,13.2159,135,5,
64.9746,3.77747,5.6839,3.166,13.2159,135,5,
64.9746,3.77777,5.68543,3.166,13.2159,135,5,
64.9746,3.78296,5.68085,3.166,13.2159,135,5,
64.9747,3.78296,5.6839,3.166,13.2159,135,5,
64.9747,3.78326,5.68237,3.166,13.2159,135,5,
64.9747,3.78296,5.68237,3.166,13.2159,135,5,
64.9748,3.78265,5.68085,3.166,13.2159,135,5,
64.9748,3.78326,5.6839,3.166,13.2159,135,5,
64.9748,3.78265,5.6839,3.166,13.2159,135,5,
64.9749,3.78326,5.68237,3.166,13.2159,135,5,
64.9749,3.78296,5.68085,3.166,13.2159,135,5,
64.9749,3.78357,5.66864,3.166,13.2159,135,5,
64.975,3.78326,5.67322,3.166,13.2159,135,5,
64.975,3.78296,5.66864,3.166,13.2159,135,5,
64.975,3.78326,5.66864,3.166,13.2159,135,5,
64.9751,3.78326,5.67017,3.166,13.2159,135,5,
64.9751,3.78296,5.67322,3.166,13.2159,135,5,
64.9751,3.78296,5.66864,3.166,13.2159,135,5,
64.9752,3.78296,5.66712,3.166,13.2159,135,5,
64.9752,3.78296,5.67322,3.166,13.2159,135,5,
64.9752,3.78357,5.67017,3.166,13.2159,135,5,
64.9753,3.78296,5.67169,3.166,13.2159,135,5,
64.9753,3.78296,5.67017,3.166,13.2159,135,5,
64.9753,3.78754,5.66712,3.166,13.2159,135,5,
64.9754,3.78815,5.66864,3.166,13.2159,135,5,
64.9754,3.78815,5.67017,3.166,13.2159,135,5,
64.9754,3.78815,5.67169,3.166,13.2159,135,5,
64.9755,3.78754,5.67017,3.166,13.2159,135,5,
64.9755,3.78815,5.67017,3.166,13.2159,135,5,
64.9755,3.78784,5.67017,3.166,13.2159,135,5,
64.9756,3.78784,5.66864,3.166,13.2159,135,5,
64.9756,3.78815,5.66712,3.166,13.2159,135,5,
64.9756,3.78784,5.67017,3.166,13.2159,135,5,
64.9757,3.78754,5.67017,3.166,13.2159,135,5,
64.9757,3.78784,5.66712,3.166,13.2159,135,5,
64.9757,3.78784,5.66864,3.166,13.2159,135,5,
64.9758,3.78784,5.67169,3.166,13.2159,135,5,
64.9758,3.78845,5.67322,3.166,13.2159,135,5,
64.9758,3.78906,5.67322,3.166,13.2159,135,5,
64.9759,3.78815,5.67017,3.166,13.2159,135,5,
64.9759,3.78784,5.67322,3.166,13.2159,135,5,
64.9759,3.78784,5.67169,3.166,13.2159,135,5,
64.976,3.78815,5.66864,3.166,13.2159,135,5,
64.976,3.78815,5.66864,3.166,13.2159,135,5,
64.976,3.78815,5.67017,3.166,13.2159,135,5,
64.9761,3.78784,5.66864,3.166,13.2159,135,5,
64.9761,3.78754,5.66864,3.166,13.2159,135,5,
64.9761,3.78815,5.66864,3.166,13.2159,135,5,
64.9762,3.78784,5.67017,3.166,13.2159,135,5,
64.9762,3.78845,5.66864,3.166,13.2159,135,5,
64.9762,3.78784,5.66712,3.166,13.2159,135,5,
64.9763,3.78815,5.66864,3.166,13.2159,135,5,
64.9763,3.78815,5.67322,3.166,13.2159,135,5,
64.9763,3.78815,5.66712,3.166,13.2159,135,5,
64.9764,3.78815,5.67017,3.166,13.2159,135,5,
64.9764,3.78815,5.66864,3.166,13.2159,135,5,
64.9764,3.78845,5.67017,3.166,13.2159,135,5,
64.9765,3.78845,5.67322,3.166,13.2159,135,5,
64.9765,3.78815,5.67017,3.166,13.2159,135,5,
64.9765,3.78815,5.67169,3.166,13.2159,135,5,
64.9766,3.78815,5.66864,3.166,13.2159,135,5,
64.9766,3.78784,5.67017,3.166,13.2159,135,5,
64.9766,3.78815,5.66864,3.166,13.2159,135,5,
64.9767,3.78906,5.66712,3.166,13.2159,135,5,
64.9767,3.78815,5.67322,3.166,13.2159,135,5,
64.9767,3.78876,5.67017,3.166,13.2159,135,5,
64.9768,3.78815,5.66864,3.166,13.2159,135,5,
64.9768,3.78815,5.67017,3.166,13.2159,135,5,
64.9768,3.78815,5.66864,3.166,13.2159,135,5,
64.9769,3.78784,5.67017,3.166,13.2159,135,5,
64.9769,3.78815,5.66712,3.166,13.2159,135,5,
64.9769,3.78784,5.67017,3.166,13.2159,135,5,
64.977,3.78784,5.67322,3.166,13.2159,135,5,
64.977,3.78815,5.67169,3.166,13.2159,135,5,
64.977,3.78845,5.67322,1.568,13.2159,135,5,
64.9771,3.78784,5.66864,1.568,13.2159,135,5,
64.9771,3.78845,5.67169,1.568,13.2159,135,5,
64.9771,3.78754,5.67322,1.568,13.2159,135,5,
64.9772,3.78815,5.67017,1.568,13.2159,135,5,
64.9772,3.78754,5.66559,1.568,13.2159,135,5,
64.9772,3.78784,5.66864,1.568,13.2159,135,5,
64.9773,3.78845,5.67169,1.568,13.2159,135,5,
64.9773,3.78784,5.66864,1.568,13.2159,135,5,
64.9773,3.78754,5.67017,1.568,13.2159,135,5,
64.9774,3.78845,5.66559,1.568,13.2159,135,5,
64.9774,3.78815,5.67017,1.568,13.2159,135,5,
64.9774,3.78784,5.67169,1.568,13.2159,135,5,
64.9775,3.78815,5.67169,1.568,13.2159,135,5,
64.9775,3.78754,5.67017,1.568,13.2159,135,5,
64.9775,3.78815,5.67169,1.568,13.2159,135,5,
64.9776,3.78784,5.67169,1.568,13.2159,135,5,
64.9776,3.78784,5.67017,1.568,13.2159,135,5,
64.9776,3.78815,5.66864,1.568,13.2159,135,5,
64.9777,3.78815,5.67169,1.568,13.2159,135,5,
64.9777,3.78784,5.66864,1.568,13.2159,135,5,
64.9777,3.78815,5.67322,1.568,13.2159,135,5,
64.9778,3.78845,5.67017,1.568,13.2159,135,5,
64.9778,3.78845,5.67169,1.568,13.2159,135,5,
64.9778,3.78815,5.66864,1.568,13.2159,135,5,
64.9779,3.78815,5.67017,1.568,13.2159,135,5,
64.9779,3.78845,5.66712,1.568,13.2159,135,5,
64.9779,3.78784,5.67169,1.568,13.2159,135,5,
64.978,3.78265,5.67017,1.568,13.2159,135,5,
64.978,3.78296,5.66864,1.568,13.2159,135,5,
64.978,3.78296,5.67017,1.568,13.2159,135,5,
64.9781,3.78357,5.67017,1.568,13.2159,135,5,
64.9781,3.78326,5.67322,1.568,13.2159,135,5,
64.9781,3.78265,5.66864,1.568,13.2159,135,5,
64.9782,3.78326,5.67017,1.568,13.2159,135,5,
64.9782,3.78265,5.67322,1.568,13.2159,135,5,
64.9782,3.78357,5.67322,1.568,13.2159,135,5,
64.9783,3.78387,5.67169,1.568,13.2159,135,5,
64.9783,3.78387,5.67017,1.568,13.2159,135,5,
64.9783,3.78387,5.67017,1.568,13.2159,135,5,
64.9784,3.78387,5.67322,1.568,13.2159,135,5,
64.9784,3.78357,5.67322,1.568,13.2159,135,5,
64.9784,3.78326,5.67169,1.568,13.2159,135,5,
64.9785,3.78448,5.67169,1.568,13.2159,135,5,
64.9785,3.78357,5.66712,1.568,13.2159,135,5,
64.9785,3.78357,5.66864,1.568,13.2159,135,5,
64.9786,3.78448,5.67169,1.568,13.2159,135,5,
64.9786,3.78418,5.67017,1.568,13.2159,135,5,
64.9786,3.78448,5.67169,1.568,13.2159,135,5,
64.9787,3.78418,5.67169,1.568,13.2159,135,5,
64.9787,3.78479,5.67169,1.568,13.2159,135,5,
64.9787,3.78296,5.67017,1.568,13.2159,135,5,
64.9788,3.78296,5.67322,1.568,13.2159,135,5,
64.9788,3.78418,5.67474,1.568,13.2159,135,5,
64.9788,3.78326,5.67017,1.568,13.2159,135,5,
64.9789,3.78357,5.67017,1.568,13.2159,135,5,
64.9789,3.78326,5.66864,1.568,13.2159,135,5,
64.9789,3.78326,5.67169,1.568,13.2159,135,5,
64.979,3.78296,5.67017,1.568,13.2159,135,5,
64.979,3.78265,5.67169,1.568,13.2159,135,5,
64.979,3.78326,5.67017,1.568,13.2159,135,5,
64.9791,3.77808,5.67017,1.568,13.2159,135,5,
64.9791,3.77808,5.67017,1.568,13.2159,135,5,
64.9791,3.77899,5.67017,1.568,13.2159,135,5,
64.9792,3.77777,5.67169,1.568,13.2159,135,5,
64.9792,3.77777,5.67017,1.568,13.2159,135,5,
64.9792,3.77777,5.67169,1.568,13.2159,135,5,
64.9793,3.77777,5.67169,1.568,13.2159,135,5,
64.9793,3.77838,5.67169,1.568,13.2159,135,5,
64.9793,3.77838,5.67322,1.568,13.2159,135,5,
64.9794,3.77808,5.66559,1.568,13.2159,135,5,
64.9794,3.77777,5.67017,1.568,13.2159,135,5,
64.9794,3.77808,5.66864,1.568,13.2159,135,5,
64.9795,3.77777,5.67169,1.568,13.2159,135,5,
64.9795,3.77716,5.66864,1.568,13.2159,135,5,
64.9795,3.77777,5.67017,1.568,13.2159,135,5,
64.9796,3.77808,5.67322,1.568,13.2159,135,5,
64.9796,3.77899,5.67017,1.568,13.2159,135,5,
64.9796,3.77777,5.67169,1.568,13.2159,135,5,
64.9797,3.77838,5.66712,1.568,13.2159,135,5,
64.9797,3.77869,5.67169,1.568,13.2159,135,5,
64.9797,3.77777,5.67017,1.568,13.2159,135,5,
64.9798,3.77808,5.67322,1.568,13.2159,135,5,
64.9798,3.77747,5.66864,1.568,13.2159,135,5,
64.9798,3.77808,5.67169,1.568,13.2159,135,5,
64.9799,3.7793,5.67322,1.568,13.2159,135,5,
64.9799,3.77777,5.66864,1.568,13.2159,135,5,
64.9799,3.77777,5.66712,1.568,13.2159,135,5,
64.98,3.7735,5.67017,1.568,13.2159,135,5,
64.98,3.7735,5.67169,1.568,13.2159,135,5,
64.98,3.7735,5.65796,1.568,13.2159,135,5,
64.9801,3.7738,5.65949,1.568,13.2159,135,5,
64.9801,3.77319,5.65643,1.568,13.2159,135,5,
64.9801,3.77289,5.65949,1.568,13.2159,135,5,
64.9802,3.77289,5.65796,1.568,13.2159,135,5,
64.9802,3.77319,5.65796,1.568,13.2159,135,5,
64.9802,3.77319,5.66101,1.568,13.2159,135,5,
64.9803,3.77319,5.65796,1.568,13.2159,135,5,
64.9803,3.77319,5.65949,1.568,13.2159,135,5,
64.9803,3.77289,5.65796,1.568,13.2159,135,5,
64.9804,3.77319,5.65643,1.568,13.2159,135,5,
64.9804,3.7735,5.65949,1.568,13.2159,135,5,
64.9804,3.77228,5.65796,1.568,13.2159,135,5,
64.9805,3.77319,5.65796,1.568,13.2159,135,5,
64.9805,3.7735,5.65949,1.568,13.2159,135,5,
64.9805,3.7735,5.65949,1.568,13.2159,135,5,
64.9806,3.77319,5.65949,1.568,13.2159,135,5,
64.9806,3.77319,5.65796,1.568,13.2159,135,5,
64.9806,3.77258,5.66254,1.568,13.2159,135,5,
64.9807,3.7738,5.65796,1.568,13.2159,135,5,
64.9807,3.76892,5.65949,1.568,13.2159,135,5,
64.9807,3.76892,5.65491,1.568,13.2159,135,5,
64.9808,3.76801,5.65949,1.568,13.2159,135,5,
64.9808,3.76831,5.65949,1.568,13.2159,135,5,
64.9808,3.7677,5.66254,1.568,13.2159,135,5,
64.9809,3.76801,5.65949,1.568,13.2159,135,5,
64.9809,3.76862,5.66254,1.568,13.2159,135,5,
64.9809,3.76862,5.65643,1.568,13.2159,135,5,
64.981,3.76862,5.65796,1.568,13.2159,135,5,
64.981,3.76892,5.65643,1.568,13.2159,135,5,
64.981,3.76831,5.66101,1.568,13.2159,135,5,
64.9811,3.76862,5.65796,1.568,13.2159,135,5,
64.9811,3.76892,5.66101,1.568,13.2159,135,5,
64.9811,3.76831,5.65643,1.568,13.2159,135,5,
64.9812,3.76892,5.66101,1.568,13.2159,135,5,
64.9812,3.76801,5.65796,1.568,13.2159,135,5,
64.9812,3.76862,5.66254,1.568,13.2159,135,5,
64.9813,3.76801,5.65949,1.568,13.2159,135,5,
64.9813,3.76831,5.65949,1.568,13.2159,135,5,
64.9813,3.7677,5.65796,1.568,13.2159,135,5,
64.9814,3.76831,5.65949,1.568,13.2159,135,5,
64.9814,3.76526,5.66101,1.568,13.2159,135,5,
64.9814,3.76404,5.65796,1.568,13.2159,135,5,
64.9815,3.76282,5.65949,1.568,13.2159,135,5,
64.9815,3.76404,5.65949,1.568,13.2159,135,5,
64.9815,3.76282,5.65949,1.568,13.2159,135,5,
64.9816,3.76373,5.65949,1.568,13.2159,135,5,
64.9816,3.76312,5.65796,1.568,13.2159,135,5,
64.9816,3.76343,5.66101,1.568,13.2159,135,5,
64.9817,3.76373,5.65796,1.568,13.2159,135,5,
64.9817,3.76373,5.65796,1.568,13.2159,135,5,
64.9817,3.76404,5.65643,1.568,13.2159,135,5,
64.9818,3.76312,5.65796,1.568,13.2159,135,5,
64.9818,3.76312,5.65643,1.568,13.2159,135,5,
64.9818,3.76373,5.65796,1.568,13.2159,135,5,
64.9819,3.76373,5.65491,1.568,13.2159,135,5,
64.9819,3.76373,5.66101,1.568,13.2159,135,5,
64.9819,3.76404,5.65643,1.568,13.2159,135,5,
64.982,3.76312,5.65643,1.568,13.2159,135,5,
64.982,3.76404,5.65796,1.568,13.2159,135,5,
64.982,3.76373,5.66101,1.568,13.2159,135,5,
64.9821,3.76343,5.65796,1.568,13.2159,135,5,
64.9821,3.75854,5.65491,1.568,13.2159,135,5,
64.9821,3.75854,5.66101,1.568,13.2159,135,5,
64.9822,3.75854,5.66254,1.568,13.2159,135,5,
64.9822,3.75854,5.65796,1.568,13.2159,135,5,
64.9822,3.75885,5.66254,1.568,13.2159,135,5,
64.9823,3.75885,5.65949,1.568,13.2159,135,5,
64.9823,3.75793,5.65643,1.568,13.2159,135,5,
64.9823,3.75824,5.65796,1.568,13.2159,135,5,
64.9824,3.75793,5.65949,1.568,13.2159,135,5,
64.9824,3.75854,5.66101,1.568,13.2159,135,5,
64.9824,3.75885,5.65796,1.568,13.2159,135,5,
64.9825,3.75885,5.65949,1.568,13.2159,135,5,
64.9825,3.75885,5.65949,1.568,13.2159,135,5,
64.9825,3.75885,5.65949,1.568,13.2159,135,5,
64.9826,3.75824,5.65949,1.568,13.2159,135,5,
64.9826,3.75885,5.65949,1.568,13.2159,135,5,
64.9826,3.75854,5.65949,1.568,13.2159,135,5,
64.9827,3.75854,5.65949,1.568,13.2159,135,5,
64.9827,3.75366,5.65949,1.568,13.2159,135,5,
64.9827,3.75336,5.65949,1.568,13.2159,135,5,
64.9828,3.75336,5.65796,1.568,13.2159,135,5,
64.9828,3.75366,5.65949,1.568,13.2159,135,5,
64.9828,3.75305,5.65796,1.568,13.2159,135,5,
64.9829,3.75336,5.65643,1.568,13.2159,135,5,
64.9829,3.75336,5.65796,1.568,13.2159,135,5,
64.9829,3.75427,5.65949,1.568,13.2159,135,5,
64.983,3.75397,5.65796,1.568,13.2159,135,5,
64.983,3.75397,5.65949,1.568,13.2159,135,5,
64.983,3.75336,5.65643,1.568,13.2159,135,5,
64.9831,3.75366,5.65949,1.568,13.2159,135,5,
64.9831,3.75427,5.65949,1.568,13.2159,135,5,
64.9831,3.75366,5.66406,1.568,13.2159,135,5,
64.9832,3.75336,5.65796,1.568,13.2159,135,5,
64.9832,3.75061,5.65491,1.568,13.2159,135,5,
64.9832,3.74939,5.65643,1.568,13.2159,135,5,
64.9833,3.74908,5.65643,1.568,13.2159,135,5,
64.9833,3.74847,5.66101,1.568,13.2159,135,5,
64.9833,3.74908,5.65796,1.568,13.2159,135,5,
64.9834,3.74969,5.66254,1.568,13.2159,135,5,
64.9834,3.74908,5.65643,1.568,13.2159,135,5,
64.9834,3.74847,5.66101,1.568,13.2159,135,5,
64.9835,3.74847,5.65796,1.568,13.2159,135,5,
64.9835,3.74878,5.65491,1.568,13.2159,135,5,
64.9835,3.74847,5.66101,1.568,13.2159,135,5,
64.9836,3.74908,5.65796,1.568,13.2159,135,5,
64.9836,3.74847,5.65643,1.568,13.2159,135,5,
64.9836,3.74969,5.66101,1.568,13.2159,135,5,
64.9837,3.74847,5.65643,1.568,13.2159,135,5,
64.9837,3.74878,5.65491,1.568,13.2159,135,5,
64.9837,3.7442,5.65796,1.568,13.2159,135,5,
64.9838,3.74359,5.65796,1.568,13.2159,135,5,
64.9838,3.7439,5.65796,1.568,13.2159,135,5,
64.9838,3.7442,5.66101,1.568,13.2159,135,5,
64.9839,3.74451,5.65491,1.568,13.2159,135,5,
64.9839,3.74359,5.65949,1.568,13.2159,135,5,
64.9839,3.7442,5.65796,1.568,13.2159,135,5,
64.984,3.74359,5.65643,1.568,13.2159,135,5,
64.984,3.7439,5.65796,1.568,13.2159,135,5,
64.984,3.74451,5.65643,1.568,13.2159,135,5,
64.9841,3.7442,5.65949,1.568,13.2159,135,5,
64.9841,3.7439,5.65949,1.568,13.2159,135,5,
64.9841,3.7442,5.65643,1.568,13.2159,135,5,
64.9842,3.74359,5.65491,1.568,13.2159,135,5,
64.9842,3.7442,5.65643,1.568,13.2159,135,5,
64.9842,3.73901,5.65796,1.568,13.2159,135,5,
64.9843,3.73901,5.65796,1.568,13.2159,135,5,
64.9843,3.73962,5.65491,1.568,13.2159,135,5,
64.9843,3.73901,5.65643,1.568,13.2159,135,5,
64.9844,3.73871,5.65643,1.568,13.2159,135,5,
64.9844,3.73962,5.65949,1.568,13.2159,135,5,
64.9844,3.73901,5.65796,1.568,13.2159,135,5,
64.9845,3.73932,5.65796,1.568,13.2159,135,5,
64.9845,3.73932,5.66101,1.568,13.2159,135,5,
64.9845,3.73901,5.65796,1.568,13.2159,135,5,
64.9846,3.73932,5.65796,1.568,13.2159,135,5,
64.9846,3.73962,5.65949,1.568,13.2159,135,5,
64.9846,3.73901,5.65796,1.568,13.2159,135,5,
64.9847,3.73932,5.65796,1.568,13.2159,135,5,
64.9847,3.73962,5.65796,1.568,13.2159,135,5,
64.9847,3.73413,5.65796,1.568,13.2159,135,5,
64.9848,3.73474,5.65643,1.568,13.2159,135,5,
64.9848,3.73474,5.65796,1.568,13.2159,135,5,
64.9848,3.73444,5.65949,1.568,13.2159,135,5,
64.9849,3.73474,5.65796,1.568,13.2159,135,5,
64.9849,3.73535,5.65796,1.568,13.2159,135,5,
64.9849,3.73444,5.66101,1.568,13.2159,135,5,
64.985,3.73474,5.66101,1.568,13.2159,135,5,
64.985,3.73444,5.66254,1.568,13.2159,135,5,
64.985,3.73444,5.65949,1.568,13.2159,135,5,
64.9851,3.73474,5.65796,1.568,13.2159,135,5,
64.9851,3.73444,5.65796,1.568,13.2159,135,5,
64.9851,3.73413,5.65949,1.568,13.2159,135,5,
64.9852,3.73383,5.65949,1.568,13.2159,135,5,
64.9852,3.73444,5.65796,1.568,13.2159,135,5,
64.9852,3.72925,5.65796,1.568,13.2159,135,5,
64.9853,3.72925,5.66101,1.568,13.2159,135,5,
64.9853,3.72925,5.65643,1.568,13.2159,135,5,
64.9853,3.72925,5.65949,1.568,13.2159,135,5,
64.9854,3.72925,5.66101,1.568,13.2159,135,5,
64.9854,3.72986,5.65643,1.568,13.2159,135,5,
64.9854,3.72894,5.65796,1.568,13.2159,135,5,
64.9855,3.72925,5.65949,1.568,13.2159,135,5,
64.9855,3.72925,5.66406,1.568,13.2159,135,5,
64.9855,3.72955,5.65796,1.568,13.2159,135,5,
64.9856,3.72925,5.65949,1.568,13.2159,135,5,
64.9856,3.72955,5.65491,1.568,13.2159,135,5,
64.9856,3.72955,5.65796,1.568,13.2159,135,5,
64.9857,3.72955,5.64728,1.568,13.2159,135,5,
64.9857,3.72894,5.64728,1.568,13.2159,135,5,
64.9857,3.72589,5.64423,1.568,13.2159,135,5,
64.9858,3.72375,5.64575,1.568,13.2159,135,5,
64.9858,3.72437,5.6488,1.568,13.2159,135,5,
64.9858,3.72498,5.64728,1.568,13.2159,135,5,
64.9859,3.72437,5.64575,1.568,13.2159,135,5,
64.9859,3.72467,5.6427,1.568,13.2159,135,5,
64.9859,3.72437,5.6427,1.568,13.2159,135,5,
64.986,3.72467,5.64728,1.568,13.2159,135,5,
64.986,3.72467,5.6488,1.568,13.2159,135,5,
64.986,3.72437,5.64575,1.568,13.2159,135,5,
64.9861,3.72437,5.64575,1.568,13.2159,135,5,
64.9861,3.72406,5.64728,1.568,13.2159,135,5,
64.9861,3.72498,5.64728,1.568,13.2159,135,5,
64.9862,3.72467,5.64423,1.568,13.2159,135,5,
64.9862,3.72498,5.64575,1.568,13.2159,135,5,
64.9862,3.72192,5.64575,1.568,13.2159,135,5,
64.9863,3.71918,5.64575,1.568,13.2159,135,5,
64.9863,3.71979,5.64575,1.568,13.2159,135,5,
64.9863,3.71918,5.64575,1.568,13.2159,135,5,
64.9864,3.71979,5.6488,1.568,13.2159,135,5,
64.9864,3.71918,5.64728,1.568,13.2159,135,5,
64.9864,3.71887,5.6427,1.568,13.2159,135,5,
64.9865,3.71948,5.64728,1.568,13.2159,135,5,
64.9865,3.71948,5.64728,1.568,13.2159,135,5,
64.9865,3.72009,5.64575,1.568,13.2159,135,5,
64.9866,3.71948,5.6488,1.568,13.2159,135,5,
64.9866,3.71979,5.64728,1.568,13.2159,135,5,
64.9866,3.71948,5.64423,1.568,13.2159,135,5,
64.9867,3.71918,5.64728,1.568,13.2159,135,5,
64.9867,3.72009,5.6488,1.568,13.2159,135,5,
64.9867,3.71857,5.6488,1.568,13.2159,135,5,
64.9868,3.71582,5.64575,1.568,13.2159,135,5,
64.9868,3.7146,5.64575,1.568,13.2159,135,5,
64.9868,3.71521,5.64575,1.568,13.2159,135,5,
64.9869,3.7146,5.6427,1.568,13.2159,135,5,
64.9869,3.71521,5.64423,1.568,13.2159,135,5,
64.9869,3.71429,5.64728,1.568,13.2159,135,5,
64.987,3.7149,5.64575,1.568,13.2159,135,5,
64.987,3.7149,5.6427,1.568,13.2159,135,5,
64.987,3.7146,5.64728,1.568,13.2159,135,5,
64.9871,3.7146,5.64575,1.568,13.2159,135,5,
64.9871,3.7149,5.64423,1.568,13.2159,135,5,
64.9871,3.7149,5.64728,1.568,13.2159,135,5,
64.9872,3.7149,5.64575,1.568,13.2159,135,5,
64.9872,3.7146,5.6488,1.568,13.2159,135,5,
64.9872,3.7146,5.64575,1.568,13.2159,135,5,
64.9873,3.71002,5.64728,1.568,13.2159,135,5,
64.9873,3.70941,5.64575,1.568,13.2159,135,5,
64.9873,3.71002,5.64423,1.568,13.2159,135,5,
64.9874,3.71033,5.64575,1.568,13.2159,135,5,
64.9874,3.71033,5.6488,1.568,13.2159,135,5,
64.9874,3.70972,5.6488,1.568,13.2159,135,5,
64.9875,3.71002,5.64423,1.568,13.2159,135,5,
64.9875,3.71002,5.64575,1.568,13.2159,135,5,
64.9875,3.71002,5.64575,1.568,13.2159,135,5,
64.9876,3.70972,5.64423,1.568,13.2159,135,5,
64.9876,3.70972,5.64575,1.568,13.2159,135,5,
64.9876,3.70941,5.64575,1.568,13.2159,135,5,
64.9877,3.70972,5.64423,1.568,13.2159,135,5,
64.9877,3.71033,5.64423,1.568,13.2159,135,5,
64.9877,3.71033,5.6488,1.568,13.2159,135,5,
64.9878,3.71063,5.64728,1.568,13.2159,135,5,
64.9878,3.70636,5.64423,1.568,13.2159,135,5,
64.9878,3.70483,5.64575,1.568,13.2159,135,5,
64.9879,3.70453,5.6488,1.568,13.2159,135,5,
64.9879,3.70453,5.64423,1.568,13.2159,135,5,
64.9879,3.70544,5.64575,1.568,13.2159,135,5,
64.988,3.70514,5.64728,1.568,13.2159,135,5,
64.988,3.70453,5.64728,1.568,13.2159,135,5,
64.988,3.70575,5.6488,1.568,13.2159,135,5,
64.9881,3.70544,5.64423,1.568,13.2159,135,5,
64.9881,3.70453,5.64728,1.568,13.2159,135,5,
64.9881,3.70514,5.6488,1.568,13.2159,135,5,
64.9882,3.70453,5.65033,1.568,13.2159,135,5,
64.9882,3.70453,5.64423,1.568,13.2159,135,5,
64.9882,3.70514,5.64728,1.568,13.2159,135,5,
64.9883,3.70453,5.64423,1.568,13.2159,135,5,
64.9883,3.70483,5.64575,1.568,13.2159,135,5,
64.9883,3.70483,5.65033,1.568,13.2159,135,5,
64.9884,3.70483,5.6427,1.568,13.2159,135,5,
64.9884,3.70483,5.64423,1.568,13.2159,135,5,
64.9884,3.70209,5.64575,1.568,13.2159,135,5,
64.9885,3.69995,5.64575,1.568,13.2159,135,5,
64.9885,3.69995,5.64728,1.568,13.2159,135,5,
64.9885,3.70026,5.64728,1.568,13.2159,135,5,
64.9886,3.70026,5.64728,1.568,13.2159,135,5,
64.9886,3.69934,5.64423,1.568,13.2159,135,5,
64.9886,3.69965,5.6488,1.568,13.2159,135,5,
64.9887,3.70026,5.64575,1.568,13.2159,135,5,
64.9887,3.70026,5.64423,1.568,13.2159,135,5,
64.9887,3.69965,5.64575,1.568,13.2159,135,5,
64.9888,3.69995,5.64728,1.568,13.2159,135,5,
64.9888,3.69934,5.6488,1.568,13.2159,135,5,
64.9888,3.69995,5.64728,1.568,13.2159,135,5,
64.9889,3.69965,5.64575,1.568,13.2159,135,5,
64.9889,3.69934,5.64728,1.568,13.2159,135,5,
64.9889,3.69995,5.64728,1.568,13.2159,135,5,
64.989,3.70056,5.64728,1.568,13.2159,135,5,
64.989,3.69965,5.64575,1.568,13.2159,135,5,
64.989,3.70056,5.64728,1.568,13.2159,135,5,
64.9891,3.69995,5.64575,1.568,13.2159,135,5,
64.9891,3.70026,5.64423,1.568,13.2159,135,5,
64.9891,3.70026,5.64575,1.568,13.2159,135,5,
64.9892,3.70117,5.64728,1.568,13.2159,135,5,
64.9892,3.69629,5.64728,1.568,13.2159,135,5,
64.9892,3.69507,5.6488,1.568,13.2159,135,5,
64.9893,3.69568,5.64728,1.568,13.2159,135,5,
64.9893,3.69598,5.65033,1.568,13.2159,135,5,
64.9893,3.69598,5.64728,1.568,13.2159,135,5,
64.9894,3.69629,5.64423,1.568,13.2159,135,5,
64.9894,3.69659,5.6488,1.568,13.2159,135,5,
64.9894,3.69598,5.64575,1.568,13.2159,135,5,
64.9895,3.69659,5.64423,1.568,13.2159,135,5,
64.9895,3.69568,5.64575,1.568,13.2159,135,5,
64.9895,3.69629,5.64728,1.568,13.2159,135,5,
64.9896,3.69537,5.64423,1.568,13.2159,135,5,
64.9896,3.69568,5.6488,1.568,13.2159,135,5,
64.9896,3.69537,5.64423,1.568,13.2159,135,5,
64.9897,3.69476,5.64575,1.568,13.2159,135,5,
64.9897,3.69537,5.64575,1.568,13.2159,135,5,
64.9897,3.69507,5.6488,1.568,13.2159,135,5,
64.9898,3.69446,5.64575,1.568,13.2159,135,5,
64.9898,3.69507,5.6488,1.568,13.2159,135,5,
64.9898,3.69476,5.6488,1.568,13.2159,135,5,
64.9899,3.69446,5.64575,1.568,13.2159,135,5,
64.9899,3.69507,5.64575,1.568,13.2159,135,5,
64.9899,3.69507,5.64423,1.568,13.2159,135,5,
64.99,3.69446,5.64423,1.568,13.2159,135,5,
64.99,3.69385,5.64728,1.568,13.2159,135,5,
64.99,3.69415,5.64423,1.568,13.2159,135,5,
64.9901,3.69049,5.64423,1.568,13.2159,135,5,
64.9901,3.68988,5.64423,1.568,13.2159,135,5,
64.9901,3.68988,5.64728,1.568,13.2159,135,5,
64.9902,3.68988,5.6488,1.568,13.2159,135,5,
64.9902,3.68988,5.64575,1.568,13.2159,135,5,
64.9902,3.69019,5.64728,1.568,13.2159,135,5,
64.9903,3.69049,5.64423,1.568,13.2159,135,5,
64.9903,3.68988,5.64728,1.568,13.2159,135,5,
64.9903,3.69019,5.64575,1.568,13.2159,135,5,
64.9904,3.68988,5.64728,1.568,13.2159,135,5,
64.9904,3.68958,5.64728,1.568,13.2159,135,5,
64.9904,3.69049,5.64728,1.568,13.2159,135,5,
64.9905,3.68988,5.6427,1.568,13.2159,135,5,
64.9905,3.68958,5.64423,1.568,13.2159,135,5,
64.9905,3.68988,5.64423,1.568,13.2159,135,5,
64.9906,3.69049,5.64575,1.568,13.2159,135,5,
64.9906,3.69049,5.6488,1.568,13.2159,135,5,
64.9906,3.68988,5.64728,1.568,13.2159,135,5,
64.9907,3.69019,5.64423,1.568,13.2159,135,5,
64.9907,3.69019,5.6488,1.568,13.2159,135,5,
64.9907,3.68988,5.6488,1.568,13.2159,135,5,
64.9908,3.68988,5.6488,1.568,13.2159,135,5,
64.9908,3.68896,5.64728,1.568,13.2159,135,5,
64.9908,3.685,5.64728,1.568,13.2159,135,5,
64.9909,3.6853,5.64575,1.568,13.2159,135,5,
64.9909,3.68561,5.6488,1.568,13.2159,135,5,
64.9909,3.685,5.64728,1.568,13.2159,135,5,
64.991,3.6853,5.64575,1.568,13.2159,135,5,
64.991,3.6853,5.64575,1.568,13.2159,135,5,
64.991,3.6853,5.64728,1.568,13.2159,135,5,
64.9911,3.6853,5.64575,1.568,13.2159,135,5,
64.9911,3.68561,5.64423,1.568,13.2159,135,5,
64.9911,3.685,5.64575,1.568,13.2159,135,5,
64.9912,3.68561,5.64728,1.568,13.2159,135,5,
64.9912,3.685,5.64423,1.568,13.2159,135,5,
64.9912,3.6853,5.64728,1.568,13.2159,135,5,
64.9913,3.685,5.64728,1.568,13.2159,135,5,
64.9913,3.685,5.64728,1.568,13.2159,135,5,
64.9913,3.685,5.6488,1.568,13.2159,135,5,
64.9914,3.68469,5.64423,1.568,13.2159,135,5,
64.9914,3.685,5.64575,1.568,13.2159,135,5,
64.9914,3.68469,5.64575,1.568,13.2159,135,5,
64.9915,3.68073,5.64728,1.568,13.2159,135,5,
64.9915,3.68073,5.64423,1.568,13.2159,135,5,
64.9915,3.68011,5.63965,1.568,13.2159,135,5,
64.9916,3.6795,5.63355,1.568,13.2159,135,5,
64.9916,3.68073,5.63202,1.568,13.2159,135,5,
64.9916,3.68042,5.63507,1.568,13.2159,135,5,
64.9917,3.68042,5.63202,1.568,13.2159,135,5,
64.9917,3.68042,5.63202,1.568,13.2159,135,5,
64.9917,3.68103,5.63507,1.568,13.2159,135,5,
64.9918,3.68042,5.63355,1.568,13.2159,135,5,
64.9918,3.68073,5.63355,1.568,13.2159,135,5,
64.9918,3.68011,5.6366,1.568,13.2159,135,5,
64.9919,3.68011,5.63355,1.568,13.2159,135,5,
64.9919,3.68042,5.63507,1.568,13.2159,135,5,
64.9919,3.68042,5.63507,1.568,13.2159,135,5,
64.992,3.6795,5.63202,1.568,13.2159,135,5,
64.992,3.67523,5.63355,1.568,13.2159,135,5,
64.992,3.67584,5.63507,1.568,13.2159,135,5,
64.9921,3.67554,5.63202,1.568,13.2159,135,5,
64.9921,3.67554,5.63355,1.568,13.2159,135,5,
64.9921,3.67523,5.63202,1.568,13.2159,135,5,
64.9922,3.67584,5.63202,1.568,13.2159,135,5,
64.9922,3.67523,5.63507,1.568,13.2159,135,5,
64.9922,3.67615,5.63355,1.568,13.2159,135,5,
64.9923,3.67493,5.63507,1.568,13.2159,135,5,
64.9923,3.67554,5.63355,1.568,13.2159,135,5,
64.9923,3.67554,5.63507,1.568,13.2159,135,5,
64.9924,3.67584,5.63355,1.568,13.2159,135,5,
64.9924,3.67554,5.63355,1.568,13.2159,135,5,
64.9924,3.67554,5.63507,1.568,13.2159,135,5,
64.9925,3.67065,5.63355,1.568,13.2159,135,5,
64.9925,3.67065,5.63355,1.568,13.2159,135,5,
64.9925,3.67035,5.63507,1.568,13.2159,135,5,
64.9926,3.67126,5.63812,1.568,13.2159,135,5,
64.9926,3.67035,5.63202,1.568,13.2159,135,5,
64.9926,3.67096,5.63049,1.568,13.2159,135,5,
64.9927,3.67096,5.63202,1.568,13.2159,135,5,
64.9927,3.67096,5.63355,1.568,13.2159,135,5,
64.9927,3.67004,5.63507,1.568,13.2159,135,5,
64.9928,3.67065,5.63507,1.568,13.2159,135,5,
64.9928,3.67096,5.63202,1.568,13.2159,135,5,
64.9928,3.67065,5.63355,1.568,13.2159,135,5,
64.9929,3.67065,5.63049,1.568,13.2159,135,5,
64.9929,3.67035,5.63355,1.568,13.2159,135,5,
64.9929,3.66577,5.63355,1.568,13.2159,135,5,
64.993,3.66547,5.63507,1.568,13.2159,135,5,
64.993,3.66516,5.63202,1.568,13.2159,135,5,
64.993,3.66547,5.63507,1.568,13.2159,135,5,
64.9931,3.66608,5.63355,1.568,13.2159,135,5,
64.9931,3.66577,5.63355,1.568,13.2159,135,5,
64.9931,3.66547,5.63355,1.568,13.2159,135,5,
64.9932,3.66547,5.63355,1.568,13.2159,135,5,
64.9932,3.66608,5.63355,1.568,13.2159,135,5,
64.9932,3.66577,5.63049,1.568,13.2159,135,5,
64.9933,3.66577,5.63202,1.568,13.2159,135,5,
64.9933,3.66669,5.63202,1.568,13.2159,135,5,
64.9933,3.6615,5.63202,1.568,13.2159,135,5,
64.9934,3.66089,5.63355,1.568,13.2159,135,5,
64.9934,3.66119,5.63049,1.568,13.2159,135,5,
64.9934,3.66058,5.63507,1.568,13.2159,135,5,
64.9935,3.6615,5.63355,1.568,13.2159,135,5,
64.9935,3.66089,5.63507,1.568,13.2159,135,5,
64.9935,3.66119,5.63355,1.568,13.2159,135,5,
64.9936,3.66058,5.63812,1.568,13.2159,135,5,
64.9936,3.66089,5.63202,1.568,13.2159,135,5,
64.9936,3.66089,5.63507,1.568,13.2159,135,5,
64.9937,3.66119,5.6366,1.568,13.2159,135,5,
64.9937,3.66028,5.63355,1.568,13.2159,135,5,
64.9937,3.65601,5.63202,1.568,13.2159,135,5,
64.9938,3.6554,5.6366,1.568,13.2159,135,5,
64.9938,3.65631,5.63355,1.568,13.2159,135,5,
64.9938,3.65601,5.63507,1.568,13.2159,135,5,
64.9939,3.65601,5.63507,1.568,13.2159,135,5,
64.9939,3.6554,5.63049,1.568,13.2159,135,5,
64.9939,3.65662,5.63202,1.568,13.2159,135,5,
64.994,3.65601,5.6366,1.568,13.2159,135,5,
64.994,3.65601,5.63507,1.568,13.2159,135,5,
64.994,3.65601,5.63507,1.568,13.2159,135,5,
64.9941,3.6557,5.63355,1.568,13.2159,135,5,
64.9941,3.65082,5.6366,1.568,13.2159,135,5,
64.9941,3.65112,5.63355,1.568,13.2159,135,5,
64.9942,3.65082,5.63202,1.568,13.2159,135,5,
64.9942,3.65082,5.63507,1.568,13.2159,135,5,
64.9942,3.65143,5.63355,1.568,13.2159,135,5,
64.9943,3.65143,5.63507,1.568,13.2159,135,5,
64.9943,3.65173,5.63507,1.568,13.2159,135,5,
64.9943,3.65021,5.62897,1.568,13.2159,135,5,
64.9944,3.65082,5.63507,1.568,13.2159,135,5,
64.9944,3.65112,5.63355,1.568,13.2159,135,5,
64.9944,3.65021,5.63202,1.568,13.2159,135,5,
64.9945,3.64624,5.6366,1.568,13.2159,135,5,
64.9945,3.64655,5.63355,1.568,13.2159,135,5,
64.9945,3.64624,5.63355,1.568,13.2159,135,5,
64.9946,3.64594,5.63507,1.568,13.2159,135,5,
64.9946,3.64563,5.63355,1.568,13.2159,135,5,
64.9946,3.64594,5.6366,1.568,13.2159,135,5,
64.9947,3.64594,5.63355,1.568,13.2159,135,5,
64.9947,3.64624,5.63355,1.568,13.2159,135,5,
64.9947,3.64624,5.62897,1.568,13.2159,135,5,
64.9948,3.64624,5.6366,1.568,13.2159,135,5,
64.9948,3.64563,5.63202,1.568,13.2159,135,5,
64.9948,3.64075,5.63355,1.568,13.2159,135,5,
64.9949,3.64105,5.63507,1.568,13.2159,135,5,
64.9949,3.64075,5.63355,1.568,13.2159,135,5,
64.9949,3.64075,5.63049,1.568,13.2159,135,5,
64.995,3.64044,5.63202,1.568,13.2159,135,5,
64.995,3.64136,5.63355,1.568,13.2159,135,5,
64.995,3.64166,5.63202,1.568,13.2159,135,5,
64.9951,3.64075,5.63812,1.568,13.2159,135,5,
64.9951,3.64166,5.63507,1.568,13.2159,135,5,
64.9951,3.64075,5.63202,1.568,13.2159,135,5,
64.9952,3.63739,5.6366,1.568,13.2159,135,5,
64.9952,3.63556,5.63507,1.568,13.2159,135,5,
64.9952,3.63647,5.6366,1.568,13.2159,135,5,
64.9953,3.63556,5.63355,1.568,13.2159,135,5,
64.9953,3.63586,5.63202,1.568,13.2159,135,5,
64.9953,3.63617,5.63507,1.568,13.2159,135,5,
64.9954,3.63617,5.63355,1.568,13.2159,135,5,
64.9954,3.63647,5.63355,1.568,13.2159,135,5,
64.9954,3.63647,5.6366,1.568,13.2159,135,5,
64.9955,3.63617,5.63355,1.568,13.2159,135,5,
64.9955,3.63617,5.63812,1.568,13.2159,135,5,
64.9955,3.6319,5.63507,1.568,13.2159,135,5,
64.9956,3.63159,5.6366,1.568,13.2159,135,5,
64.9956,3.63098,5.6366,1.568,13.2159,135,5,
64.9956,3.63098,5.63355,1.568,13.2159,135,5,
64.9957,3.63098,5.63202,1.568,13.2159,135,5,
64.9957,3.63098,5.63355,1.568,13.2159,135,5,
64.9957,3.63159,5.63507,1.568,13.2159,135,5,
64.9958,3.63159,5.6366,1.568,13.2159,135,5,
64.9958,3.63159,5.6366,1.568,13.2159,135,5,
64.9958,3.63129,5.63507,1.568,13.2159,135,5,
64.9959,3.63129,5.63507,1.568,13.2159,135,5,
64.9959,3.62732,5.63202,1.568,13.2159,135,5,
64.9959,3.6261,5.63049,1.568,13.2159,135,5,
64.996,3.62579,5.63355,1.568,13.2159,135,5,
64.996,3.6264,5.6366,1.568,13.2159,135,5,
64.996,3.6264,5.63507,1.568,13.2159,135,5,
64.9961,3.6261,5.63355,1.568,13.2159,135,5,
64.9961,3.6264,5.6366,1.568,13.2159,135,5,
64.9961,3.6261,5.6366,1.568,13.2159,135,5,
64.9962,3.62701,5.63507,1.568,13.2159,135,5,
64.9962,3.6264,5.63507,1.568,13.2159,135,5,
64.9962,3.6264,5.63202,1.568,13.2159,135,5,
64.9963,3.62152,5.63202,1.568,13.2159,135,5,
64.9963,3.62152,5.63202,1.568,13.2159,135,5,
64.9963,3.62122,5.63355,1.568,13.2159,135,5,
64.9964,3.62122,5.63507,1.568,13.2159,135,5,
64.9964,3.62122,5.63355,1.568,13.2159,135,5,
64.9964,3.62183,5.63507,1.568,13.2159,135,5,
64.9965,3.62183,5.63355,1.568,13.2159,135,5,
64.9965,3.62122,5.63507,1.568,13.2159,135,5,
64.9965,3.62091,5.63507,1.568,13.2159,135,5,
64.9966,3.62183,5.63355,1.568,13.2159,135,5,
64.9966,3.61694,5.63202,1.568,13.2159,135,5,
64.9966,3.61694,5.6366,1.568,13.2159,135,5,
64.9967,3.61664,5.63202,1.568,13.2159,135,5,
64.9967,3.61603,5.63507,1.568,13.2159,135,5,
64.9967,3.61694,5.63507,1.568,13.2159,135,5,
64.9968,3.61633,5.63507,1.568,13.2159,135,5,
64.9968,3.61725,5.63507,1.568,13.2159,135,5,
64.9968,3.61633,5.63355,1.568,13.2159,135,5,
64.9969,3.61725,5.63507,1.568,13.2159,135,5,
64.9969,3.61572,5.63355,1.568,13.2159,135,5,
64.9969,3.61176,5.6366,1.568,13.2159,135,5,
64.997,3.61145,5.63507,1.568,13.2159,135,5,
64.997,3.61237,5.63202,1.568,13.2159,135,5,
64.997,3.61145,5.63202,1.568,13.2159,135,5,
64.9971,3.61176,5.63202,1.568,13.2159,135,5,
64.9971,3.61145,5.63202,1.568,13.2159,135,5,
64.9971,3.61145,5.6366,1.568,13.2159,135,5,
64.9972,3.61115,5.63355,1.568,13.2159,135,5,
64.9972,3.6087,5.62897,1.568,13.2159,135,5,
64.9972,3.60718,5.6366,1.568,13.2159,135,5,
64.9973,3.60718,5.62897,1.568,13.2159,135,5,
64.9973,3.60657,5.63507,1.568,13.2159,135,5,
64.9973,3.60657,5.63355,1.568,13.2159,135,5,
64.9974,3.60687,5.6366,1.568,13.2159,135,5,
64.9974,3.60657,5.63202,1.568,13.2159,135,5,
64.9974,3.60718,5.63355,1.568,13.2159,135,5,
64.9975,3.60657,5.6366,1.568,13.2159,135,5,
64.9975,3.6026,5.63355,1.568,13.2159,135,5,
64.9975,3.60168,5.63812,1.568,13.2159,135,5,
64.9976,3.60199,5.63812,1.568,13.2159,135,5,
64.9976,3.60199,5.63355,1.568,13.2159,135,5,
64.9976,3.60229,5.6366,1.568,13.2159,135,5,
64.9977,3.60168,5.63507,1.568,13.2159,135,5,
64.9977,3.60199,5.63355,1.568,13.2159,135,5,
64.9977,3.59772,5.63507,1.568,13.2159,135,5,
64.9978,3.59711,5.63202,1.568,13.2159,135,5,
64.9978,3.59711,5.62897,1.568,13.2159,135,5,
64.9978,3.59772,5.6366,1.568,13.2159,135,5,
64.9979,3.5968,5.63202,1.568,13.2159,135,5,
64.9979,3.59741,5.63507,1.568,13.2159,135,5,
64.9979,3.59711,5.6366,1.568,13.2159,135,5,
64.998,3.59436,5.63355,1.568,13.2159,135,5,
64.998,3.59161,5.63507,1.568,13.2159,135,5,
64.998,3.59222,5.63355,1.568,13.2159,135,5,
64.9981,3.59222,5.63355,1.568,13.2159,135,5,
64.9981,3.59222,5.63507,1.568,13.2159,135,5,
64.9981,3.59192,5.63355,1.568,13.2159,135,5,
64.9982,3.59222,5.63202,1.568,13.2159,135,5,
64.9982,3.58704,5.63355,1.568,13.2159,135,5,
64.9982,3.58795,5.63507,1.568,13.2159,135,5,
64.9983,3.58734,5.63202,1.568,13.2159,135,5,
64.9983,3.58795,5.63355,1.568,13.2159,135,5,
64.9983,3.58795,5.63812,1.568,13.2159,135,5,
64.9984,3.58734,5.63355,1.568,13.2159,135,5,
64.9984,3.58765,5.63507,1.568,13.2159,135,5,
64.9984,3.58276,5.63507,1.568,13.2159,135,5,
64.9985,3.58276,5.63202,1.568,13.2159,135,5,
64.9985,3.58276,5.63507,1.568,13.2159,135,5,
64.9985,3.58215,5.63812,1.568,13.2159,135,5,
64.9986,3.58276,5.63355,1.568,13.2159,135,5,
64.9986,3.58215,5.6366,1.568,13.2159,135,5,
64.9986,3.57758,5.63049,1.568,13.2159,135,5,
64.9987,3.57819,5.63507,1.568,13.2159,135,5,
64.9987,3.57758,5.63507,1.568,13.2159,135,5,
64.9987,3.57788,5.6366,1.568,13.2159,135,5,
64.9988,3.57727,5.63202,1.568,13.2159,135,5,
64.9988,3.57758,5.63507,1.568,13.2159,135,5,
64.9988,3.573,5.63507,1.568,13.2159,135,5,
64.9989,3.57239,5.63202,1.568,13.2159,135,5,
64.9989,3.573,5.63507,1.568,13.2159,135,5,
64.9989,3.57269,5.6366,1.568,13.2159,135,5,
64.999,3.573,5.63507,1.568,13.2159,135,5,
64.999,3.57147,5.63355,1.568,13.2159,135,5,
64.999,3.56842,5.63507,1.568,13.2159,135,5,
64.9991,3.5675,5.63507,1.568,13.2159,135,5,
64.9991,3.56781,5.63355,1.568,13.2159,135,5,
64.9991,3.56781,5.63355,1.568,13.2159,135,5,
64.9992,3.56812,5.63355,1.568,13.2159,135,5,
64.9992,3.56384,5.63202,1.568,13.2159,135,5,
64.9992,3.56262,5.63202,1.568,13.2159,135,5,
64.9993,3.56323,5.63355,1.568,13.2159,135,5,
64.9993,3.56232,5.63507,1.568,13.2159,135,5,
64.9993,3.56354,5.63202,1.568,13.2159,135,5,
64.9994,3.56323,5.63355,1.568,13.2159,135,5,
64.9994,3.55865,5.63202,1.568,13.2159,135,5,
64.9994,3.55835,5.63812,1.568,13.2159,135,5,
64.9995,3.55743,5.63049,1.568,13.2159,135,5,
64.9995,3.55804,5.63507,1.568,13.2159,135,5,
64.9995,3.55835,5.63049,1.568,13.2159,135,5,
64.9996,3.55774,5.63355,1.568,13.2159,135,5,
64.9996,3.55316,5.63202,1.568,13.2159,135,5,
64.9996,3.55316,5.63965,1.568,13.2159,135,5,
64.9997,3.55316,5.63507,1.568,13.2159,135,5,
64.9997,3.55347,5.63507,1.568,13.2159,135,5,
64.9997,3.55316,5.63507,1.568,13.2159,135,5,
64.9998,3.54828,5.63355,1.568,13.2159,135,5,
64.9998,3.54828,5.63507,1.568,13.2159,135,5,
64.9998,3.54828,5.63507,1.568,13.2159,135,5,
64.9999,3.54767,5.63507,1.568,13.2159,135,5,
64.9999,3.54797,5.62286,1.568,13.2159,135,5,
64.9999,3.54492,5.62134,1.568,13.2159,135,5,
65,3.5434,5.62286,1.568,13.2159,135,5,
65,3.54309,5.62134,1.568,13.2159,135,5,
65,3.54309,5.62286,1.568,13.2159,135,5,
65.0001,3.5434,5.61981,1.568,13.2159,135,5,
65.0001,3.54248,5.62134,1.568,13.2159,135,5,
65.0001,3.53912,5.62134,1.568,13.2159,135,5,
65.0002,3.53912,5.62439,1.568,13.2159,135,5,
65.0002,3.53912,5.62134,1.568,13.2159,135,5,
65.0002,3.53943,5.62134,1.568,13.2159,135,5,
65.0003,3.53943,5.62286,1.568,13.2159,135,5,
65.0003,3.53485,5.62134,1.568,13.2159,135,5,
65.0003,3.53455,5.62134,1.568,13.2159,135,5,
65.0004,3.53485,5.62134,1.568,13.2159,135,5,
65.0004,3.53363,5.62134,1.568,13.2159,135,5,
65.0004,3.53394,5.62439,1.568,13.2159,135,5,
65.0005,3.53119,5.61676,1.568,13.2159,135,5,
65.0005,3.52905,5.62286,1.568,13.2159,135,5,
65.0005,3.52905,5.61829,1.568,13.2159,135,5,
65.0006,3.52905,5.61829,1.568,13.2159,135,5,
65.0006,3.52753,5.62286,1.568,13.2159,135,5,
65.0006,3.52753,5.61981,1.568,13.2159,135,5,
65.0007,3.52356,5.61981,1.568,13.2159,135,5,
65.0007,3.52295,5.61981,1.568,13.2159,135,5,
65.0007,3.52264,5.62286,1.568,13.2159,135,5,
65.0008,3.52356,5.62134,1.568,13.2159,135,5,
65.0008,3.52295,5.61981,1.568,13.2159,135,5,
65.0008,3.51837,5.62286,1.568,13.2159,135,5,
65.0009,3.51837,5.62134,1.568,13.2159,135,5,
65.0009,3.51807,5.62134,1.568,13.2159,135,5,
65.0009,3.51868,5.62439,1.568,13.2159,135,5,
65.001,3.51868,5.62134,1.568,13.2159,135,5,
65.001,3.51349,5.62134,1.568,13.2159,135,5,
65.001,3.51257,5.61981,1.568,13.2159,135,5,
65.0011,3.5141,5.61981,1.568,13.2159,135,5,
65.0011,3.51379,5.62439,1.568,13.2159,135,5,
65.0011,3.51074,5.61981,1.568,13.2159,135,5,
65.0012,3.5083,5.61981,1.568,13.2159,135,5,
65.0012,3.50861,5.61981,1.568,13.2159,135,5,
65.0012,3.50891,5.61981,1.568,13.2159,135,5,
65.0013,3.5083,5.61981,1.568,13.2159,135,5,
65.0013,3.50433,5.62286,1.568,13.2159,135,5,
65.0013,3.50372,5.62592,1.568,13.2159,135,5,
65.0014,3.50403,5.62592,1.568,13.2159,135,5,
65.0014,3.50372,5.62286,1.568,13.2159,135,5,
65.0014,3.50098,5.62286,1.568,13.2159,135,5,
65.0015,3.49854,5.62134,1.568,13.2159,135,5,
65.0015,3.49854,5.62286,1.568,13.2159,135,5,
65.0015,3.49915,5.62134,1.568,13.2159,135,5,
65.0016,3.49823,5.62134,1.568,13.2159,135,5,
65.0016,3.49396,5.62286,1.568,13.2159,135,5,
65.0016,3.49365,5.62439,1.568,13.2159,135,5,
65.0017,3.49426,5.62286,1.568,13.2159,135,5,
65.0017,3.49365,5.61829,1.568,13.2159,135,5,
65.0017,3.48938,5.62439,1.568,13.2159,135,5,
65.0018,3.48877,5.62439,1.568,13.2159,135,5,
65.0018,3.48938,5.61676,1.568,13.2159,135,5,
65.0018,3.48907,5.61981,1.568,13.2159,135,5,
65.0019,3.48358,5.61981,1.568,13.2159,135,5,
65.0019,3.4845,5.61981,1.568,13.2159,135,5,
65.0019,3.48389,5.62286,1.568,13.2159,135,5,
65.002,3.4845,5.62134,1.568,13.2159,135,5,
65.002,3.479,5.62134,1.568,13.2159,135,5,
65.002,3.47961,5.61981,1.568,13.2159,135,5,
65.0021,3.47961,5.62134,1.568,13.2159,135,5,
65.0021,3.47961,5.61981,1.568,13.2159,135,5,
65.0021,3.47382,5.62439,1.568,13.2159,135,5,
65.0022,3.47534,5.62286,1.568,13.2159,135,5,
65.0022,3.47443,5.62286,1.568,13.2159,135,5,
65.0022,3.47443,5.61981,1.568,13.2159,135,5,
65.0023,3.46924,5.62439,1.568,13.2159,135,5,
65.0023,3.46954,5.61981,1.568,13.2159,135,5,
65.0023,3.47015,5.62439,1.568,13.2159,135,5,
65.0024,3.46863,5.61981,1.568,13.2159,135,5,
65.0024,3.46497,5.62286,1.568,13.2159,135,5,
65.0024,3.46497,5.62134,1.568,13.2159,135,5,
65.0025,3.46405,5.61981,1.568,13.2159,135,5,
65.0025,3.46191,5.62439,1.568,13.2159,135,5,
65.0025,3.46069,5.62286,1.568,13.2159,135,5,
65.0026,3.45947,5.61981,1.568,13.2159,135,5,
65.0026,3.45947,5.62286,1.568,13.2159,135,5,
65.0026,3.45551,5.62439,1.568,13.2159,135,5,
65.0027,3.4552,5.62439,1.568,13.2159,135,5,
65.0027,3.45459,5.62439,1.568,13.2159,135,5,
65.0027,3.45551,5.62286,1.568,13.2159,135,5,
65.0028,3.45062,5.62134,1.568,13.2159,135,5,
65.0028,3.45001,5.62286,1.568,13.2159,135,5,
65.0028,3.45001,5.62286,1.568,13.2159,135,5,
65.0029,3.44971,5.61981,1.568,13.2159,135,5,
65.0029,3.44513,5.61981,1.568,13.2159,135,5,
65.0029,3.44574,5.62744,1.568,13.2159,135,5,
65.003,3.44543,5.62134,1.568,13.2159,135,5,
65.003,3.44086,5.62439,1.568,13.2159,135,5,
65.003,3.44025,5.61981,1.568,13.2159,135,5,
65.0031,3.43994,5.62439,1.568,13.2159,135,5,
65.0031,3.44055,5.61981,1.568,13.2159,135,5,
65.0031,3.43567,5.61981,1.568,13.2159,135,5,
65.0032,3.43536,5.62134,0,13.2159,135,5,
65.0032,3.43536,5.61981,0,13.2159,135,5,
65.0032,3.43018,5.62286,0,13.2159,135,5,
65.0033,3.43048,5.61981,0,13.2159,135,5,
65.0033,3.43018,5.61981,0,13.2159,135,5,
65.0033,3.42712,5.62286,0,13.2159,135,5,
65.0034,3.4256,5.62134,0,13.2159,135,5,
65.0034,3.4259,5.62744,0,13.2159,135,5,
65.0034,3.42499,5.61981,0,13.2159,135,5,
65.0035,3.42041,5.62134,0,13.2159,135,5,
65.0035,3.42041,5.62286,0,13.2159,135,5,
65.0035,3.42102,5.61981,0,13.2159,135,5,
65.0036,3.41614,5.61981,0,13.2159,135,5,
65.0036,3.41614,5.61981,0,13.2159,135,5,
65.0036,3.41583,5.61981,0,13.2159,135,5,
65.0037,3.41187,5.62286,0,13.2159,135,5,
65.0037,3.41095,5.61981,0,13.2159,135,5,
65.0037,3.41064,5.62286,0,13.2159,135,5,
65.0038,3.4082,5.62439,0,13.2159,135,5,
65.0038,3.40607,5.61829,0,13.2159,135,5,
65.0038,3.40607,5.61829,0,13.2159,135,5,
65.0039,3.40546,5.62286,0,13.2159,135,5,
65.0039,3.40179,5.62286,0,13.2159,135,5,
65.0039,3.40088,5.62439,0,13.2159,135,5,
65.004,3.40057,5.62134,0,13.2159,135,5,
65.004,3.396,5.62134,0,13.2159,135,5,
65.004,3.39661,5.62134,0,13.2159,135,5,
65.0041,3.39691,5.62439,0,13.2159,135,5,
65.0041,3.39142,5.62286,0,13.2159,135,5,
65.0041,3.39142,5.62744,0,13.2159,135,5,
65.0042,3.39172,5.62439,0,13.2159,135,5,
65.0042,3.38654,5.61981,0,13.2159,135,5,
65.0042,3.38654,5.62439,0,13.2159,135,5,
65.0043,3.38654,5.61981,0,13.2159,135,5,
65.0043,3.38135,5.62286,0,13.2159,135,5,
65.0043,3.38135,5.61981,0,13.2159,135,5,
65.0044,3.38196,5.61829,0,13.2159,135,5,
65.0044,3.37616,5.62286,0,13.2159,135,5,
65.0044,3.37677,5.61829,0,13.2159,135,5,
65.0045,3.37585,5.61981,0,13.2159,135,5,
65.0045,3.37219,5.62286,0,13.2159,135,5,
65.0045,3.37128,5.62134,0,13.2159,135,5,
65.0046,3.37097,5.62439,0,13.2159,135,5,
65.0046,3.36609,5.62134,0,13.2159,135,5,
65.0046,3.367,5.62439,0,13.2159,135,5,
65.0047,3.36304,5.61981,0,13.2159,135,5,
65.0047,3.36212,5.61981,0,13.2159,135,5,
65.0047,3.36182,5.61981,0,13.2159,135,5,
65.0048,3.35754,5.62439,0,13.2159,135,5,
65.0048,3.35754,5.62286,0,13.2159,135,5,
65.0048,3.35663,5.61981,0,13.2159,135,5,
65.0049,3.35236,5.61829,0,13.2159,135,5,
65.0049,3.35175,5.62439,0,13.2159,135,5,
65.0049,3.34869,5.61981,0,13.2159,135,5,
65.005,3.34717,5.61981,0,13.2159,135,5,
65.005,3.34686,5.62439,0,13.2159,135,5,
65.005,3.34229,5.61981,0,13.2159,135,5,
65.0051,3.34229,5.62286,0,13.2159,135,5,
65.0051,3.34137,5.61981,0,13.2159,135,5,
65.0051,3.33771,5.62134,0,13.2159,135,5,
65.0052,3.3371,5.62286,0,13.2159,135,5,
65.0052,3.33252,5.61829,0,13.2159,135,5,
65.0052,3.33282,5.62286,0,13.2159,135,5,
65.0053,3.3313,5.62439,0,13.2159,135,5,
65.0053,3.32733,5.62134,0,13.2159,135,5,
65.0053,3.32733,5.62134,0,13.2159,135,5,
65.0054,3.32245,5.62439,0,13.2159,135,5,
65.0054,3.32214,5.62439,0,13.2159,135,5,
65.0054,3.32214,5.62134,0,13.2159,135,5,
65.0055,3.31757,5.62134,0,13.2159,135,5,
65.0055,3.31757,5.61981,0,13.2159,135,5,
65.0055,3.3136,5.62439,0,13.2159,135,5,
65.0056,3.31329,5.62286,0,13.2159,135,5,
65.0056,3.31238,5.62134,0,13.2159,135,5,
65.0056,3.3078,5.62286,0,13.2159,135,5,
65.0057,3.3075,5.62134,0,13.2159,135,5,
65.0057,3.30292,5.62134,0,13.2159,135,5,
65.0057,3.30261,5.62134,0,13.2159,135,5,
65.0058,3.29987,5.62134,0,13.2159,135,5,
65.0058,3.29834,5.61981,0,13.2159,135,5,
65.0058,3.29773,5.62439,0,13.2159,135,5,
65.0059,3.29315,5.62134,0,13.2159,135,5,
65.0059,3.29315,5.62134,0,13.2159,135,5,
65.0059,3.29041,5.62286,0,13.2159,135,5,
65.006,3.28857,5.62134,0,13.2159,135,5,
65.006,3.28766,5.62134,0,13.2159,135,5,
65.006,3.28369,5.61981,0,13.2159,135,5,
65.0061,3.284,5.62286,0,13.2159,135,5,
65.0061,3.27911,5.62439,0,13.2159,135,5,
65.0061,3.27881,5.61981,0,13.2159,135,5,
65.0062,3.2785,5.62134,0,13.2159,135,5,
65.0062,3.27362,5.62286,0,13.2159,135,5,
65.0062,3.27362,5.61829,0,13.2159,135,5,
65.0063,3.26935,5.62134,0,13.2159,135,5,
65.0063,3.26965,5.61981,0,13.2159,135,5,
65.0063,3.26538,5.62286,0,13.2159,135,5,
65.0064,3.26385,5.62134,0,13.2159,135,5,
65.0064,3.26416,5.62439,0,13.2159,135,5,
65.0064,3.25928,5.62286,0,13.2159,135,5,
65.0065,3.25928,5.62286,0,13.2159,135,5,
65.0065,3.25439,5.61981,0,13.2159,135,5,
65.0065,3.25439,5.62286,0,13.2159,135,5,
65.0066,3.25378,5.62439,0,13.2159,135,5,
65.0066,3.24951,5.61981,0,13.2159,135,5,
65.0066,3.24951,5.62134,0,13.2159,135,5,
65.0067,3.24432,5.62439,0,13.2159,135,5,
65.0067,3.24493,5.62134,0,13.2159,135,5,
65.0067,3.24127,5.62134,0,13.2159,135,5,
65.0068,3.23883,5.61981,0,13.2159,135,5,
65.0068,3.23883,5.62134,0,13.2159,135,5,
65.0068,3.23456,5.61981,0,13.2159,135,5,
65.0069,3.23486,5.62439,0,13.2159,135,5,
65.0069,3.23151,5.61981,0,13.2159,135,5,
65.0069,3.22937,5.61981,0,13.2159,135,5,
65.007,3.22937,5.62286,0,13.2159,135,5,
65.007,3.2254,5.62439,0,13.2159,135,5,
65.007,3.22479,5.62592,0,13.2159,135,5,
65.0071,3.22021,5.62286,0,13.2159,135,5,
65.0071,3.21991,5.62286,0,13.2159,135,5,
65.0071,3.2193,5.62439,0,13.2159,135,5,
65.0072,3.21533,5.62286,0,13.2159,135,5,
65.0072,3.21533,5.61981,0,13.2159,135,5,
65.0072,3.21045,5.62134,0,13.2159,135,5,
65.0073,3.20984,5.62134,0,13.2159,135,5,
65.0073,3.21075,5.62134,0,13.2159,135,5,
65.0073,3.20496,5.62286,0,13.2159,135,5,
65.0074,3.20496,5.62134,0,13.2159,135,5,
65.0074,3.20221,5.62134,0,13.2159,135,5,
65.0074,3.20038,5.62134,0,13.2159,135,5,
65.0075,3.20068,5.62134,0,13.2159,135,5,
65.0075,3.1955,5.62286,0,13.2159,135,5,
65.0075,3.19519,5.61981,0,13.2159,135,5,
65.0076,3.19183,5.62134,0,13.2159,135,5,
65.0076,3.19,5.61981,0,13.2159,135,5,
65.0076,3.19061,5.62286,0,13.2159,135,5,
65.0077,3.18573,5.61829,0,13.2159,135,5,
65.0077,3.18604,5.62286,0,13.2159,135,5,
65.0077,3.18542,5.61829,0,13.2159,135,5,
65.0078,3.18085,5.62286,0,13.2159,135,5,
65.0078,3.18054,5.62286,0,13.2159,135,5,
65.0078,3.17596,5.62134,0,13.2159,135,5,
65.0079,3.17596,5.62439,0,13.2159,135,5,
65.0079,3.17535,5.61981,0,13.2159,135,5,
65.0079,3.17017,5.62286,0,13.2159,135,5,
65.008,3.17139,5.62439,0,13.2159,135,5,
65.008,3.17078,5.62286,0,13.2159,135,5,
65.008,3.1662,5.62286,0,13.2159,135,5,
65.0081,3.16589,5.62286,0,13.2159,135,5,
65.0081,3.16223,5.62286,0,13.2159,135,5,
65.0081,3.1604,5.62134,0,13.2159,135,5,
65.0082,3.16101,5.61981,0,13.2159,135,5,
65.0082,3.15674,5.61981,0,13.2159,135,5,
65.0082,3.15613,5.62134,0,13.2159,135,5,
65.0083,3.15613,5.62134,0,13.2159,135,5,
65.0083,3.15125,5.61981,0,13.2159,135,5,
65.0083,3.15155,5.61981,0,13.2159,135,5,
65.0084,3.15125,5.61981,0,13.2159,135,5,
65.0084,3.14667,5.61981,0,13.2159,135,5,
65.0084,3.14667,5.62286,0,13.2159,135,5,
65.0085,3.14331,5.62439,0,13.2159,135,5,
65.0085,3.14056,5.61981,0,13.2159,135,5,
65.0085,3.14117,5.62286,0,13.2159,135,5,
65.0086,3.13843,5.62134,0,13.2159,135,5,
65.0086,3.1369,5.61981,0,13.2159,135,5,
65.0086,3.13599,5.62134,0,13.2159,135,5,
65.0087,3.13202,5.62134,0,13.2159,135,5,
65.0087,3.13232,5.61829,0,13.2159,135,5,
65.0087,3.13202,5.62286,0,13.2159,135,5,
65.0088,3.12714,5.61981,0,13.2159,135,5,
65.0088,3.12653,5.62286,0,13.2159,135,5,
65.0088,3.12653,5.62286,0,13.2159,135,5,
65.0089,3.12225,5.61981,0,13.2159,135,5,
65.0089,3.12195,5.61829,0,13.2159,135,5,
65.0089,3.12256,5.61981,0,13.2159,135,5,
65.009,3.11737,5.61981,0,13.2159,135,5,
65.009,3.11707,5.62134,0,13.2159,135,5,
65.009,3.11707,5.62286,0,13.2159,135,5,
65.0091,3.11218,5.62286,0,13.2159,135,5,
65.0091,3.11188,5.61981,0,13.2159,135,5,
65.0091,3.11218,5.62134,0,13.2159,135,5,
65.0092,3.10913,5.62286,0,13.2159,135,5,
65.0092,3.1073,5.62286,0,13.2159,135,5,
65.0092,3.1076,5.62134,0,13.2159,135,5,
65.0093,3.10394,5.61981,0,13.2159,135,5,
65.0093,3.10242,5.62439,0,13.2159,135,5,
65.0093,3.10242,5.62134,0,13.2159,135,5,
65.0094,3.10211,5.62286,0,13.2159,135,5,
65.0094,3.09784,5.61829,0,13.2159,135,5,
65.0094,3.09692,5.62134,0,13.2159,135,5,
65.0095,3.09814,5.62134,0,13.2159,135,5,
65.0095,3.09296,5.62134,0,13.2159,135,5,
65.0095,3.09235,5.61981,0,13.2159,135,5,
65.0096,3.09265,5.62286,0,13.2159,135,5,
65.0096,3.08838,5.62439,0,13.2159,135,5,
65.0096,3.08807,5.62439,0,13.2159,135,5,
65.0097,3.08746,5.62439,0,13.2159,135,5,
65.0097,3.08502,5.62134,0,13.2159,135,5,
65.0097,3.08319,5.61981,0,13.2159,135,5,
65.0098,3.08289,5.62134,0,13.2159,135,5,
65.0098,3.08258,5.62286,0,13.2159,135,5,
65.0098,3.07831,5.61829,0,13.2159,135,5,
65.0099,3.0777,5.61981,0,13.2159,135,5,
65.0099,3.078,5.62134,0,13.2159,135,5,
65.0099,3.07281,5.62134,0,13.2159,135,5,
65.01,3.07281,5.61981,0,13.2159,135,5,
65.01,3.07251,5.61981,0,13.2159,135,5,
65.01,3.07251,5.62134,0,13.2159,135,5,
65.0101,3.06854,5.61676,0,13.2159,135,5,
65.0101,3.06824,5.61981,0,13.2159,135,5,
65.0101,3.06824,5.62286,0,13.2159,135,5,
65.0102,3.06366,5.62286,0,13.2159,135,5,
65.0102,3.06274,5.62134,0,13.2159,135,5,
65.0102,3.06335,5.61981,0,13.2159,135,5,
65.0103,3.06274,5.62134,0,13.2159,135,5,
65.0103,3.05847,5.62286,0,13.2159,135,5,
65.0103,3.05786,5.61829,0,13.2159,135,5,
65.0104,3.05847,5.62134,0,13.2159,135,5,
65.0104,3.0545,5.62286,0,13.2159,135,5,
65.0104,3.05328,5.61981,0,13.2159,135,5,
65.0105,3.05328,5.62134,0,13.2159,135,5,
65.0105,3.05328,5.62439,0,13.2159,135,5,
65.0105,3.04871,5.62286,0,13.2159,135,5,
65.0106,3.04871,5.62134,0,13.2159,135,5,
65.0106,3.0481,5.62592,0,13.2159,135,5,
65.0106,3.04901,5.62134,0,13.2159,135,5,
65.0107,3.04474,5.62286,0,13.2159,135,5,
65.0107,3.04321,5.61981,0,13.2159,135,5,
65.0107,3.04321,5.62286,0,13.2159,135,5,
65.0108,3.04352,5.61829,0,13.2159,135,5,
65.0108,3.03894,5.62439,0,13.2159,135,5,
65.0108,3.03864,5.62286,0,13.2159,135,5,
65.0109,3.03802,5.62439,0,13.2159,135,5,
65.0109,3.03925,5.62439,0,13.2159,135,5,
65.0109,3.03436,5.62134,0,13.2159,135,5,
65.011,3.03345,5.62439,0,13.2159,135,5,
65.011,3.03375,5.61981,0,13.2159,135,5,
65.011,3.03314,5.62286,0,13.2159,135,5,
65.0111,3.02948,5.62134,0,13.2159,135,5,
65.0111,3.02856,5.62286,0,13.2159,135,5,
65.0111,3.02856,5.62286,0,13.2159,135,5,
65.0112,3.02917,5.62286,0,13.2159,135,5,
65.0112,3.02826,5.62286,0,13.2159,135,5,
65.0112,3.02399,5.61981,0,13.2159,135,5,
65.0113,3.02399,5.62134,0,13.2159,135,5,
65.0113,3.02429,5.62286,0,13.2159,135,5,
65.0113,3.02368,5.61981,0,13.2159,135,5,
65.0114,3.02002,5.62744,0,13.2159,135,5,
65.0114,3.02002,5.62134,0,13.2159,135,5,
65.0114,3.01941,5.62134,0,13.2159,135,5,
65.0115,3.01971,5.61981,0,13.2159,135,5,
65.0115,3.0188,5.61981,0,13.2159,135,5,
65.0115,3.01453,5.62439,0,13.2159,135,5,
65.0116,3.01453,5.62134,0,13.2159,135,5,
65.0116,3.01483,5.62134,0,13.2159,135,5,
65.0116,3.01422,5.62286,0,13.2159,135,5,
65.0117,3.01208,5.62439,0,13.2159,135,5,
65.0117,3.00995,5.62286,0,13.2159,135,5,
65.0117,3.00964,5.62134,0,13.2159,135,5,
65.0118,3.01056,5.62134,0,13.2159,135,5,
65.0118,3.00995,5.61981,0,13.2159,135,5,
65.0118,3.00629,5.62286,0,13.2159,135,5,
65.0119,3.00476,5.62286,0,13.2159,135,5,
65.0119,3.00415,5.62286,0,13.2159,135,5,
65.0119,3.00507,5.61981,0,13.2159,135,5,
65.012,3.00476,5.61981,0,13.2159,135,5,
65.012,3.00079,5.62286,0,13.2159,135,5,
65.012,2.99957,5.62134,0,13.2159,135,5,
65.0121,2.99896,5.62286,0,13.2159,135,5,
65.0121,2.99896,5.61981,0,13.2159,135,5,
65.0121,2.99896,5.62286,0,13.2159,135,5,
65.0122,2.99866,5.62286,0,13.2159,135,5,
65.0122,2.99438,5.61981,0,13.2159,135,5,
65.0122,2.99469,5.62134,0,13.2159,135,5,
65.0123,2.99377,5.61981,0,13.2159,135,5,
65.0123,2.99469,5.62134,0,13.2159,135,5,
65.0123,2.99438,5.62134,0,13.2159,135,5,
65.0124,2.99072,5.62286,0,13.2159,135,5,
65.0124,2.9895,5.62286,0,13.2159,135,5,
65.0124,2.98981,5.62286,0,13.2159,135,5,
65.0125,2.9892,5.61981,0,13.2159,135,5,
65.0125,2.99011,5.62134,0,13.2159,135,5,
65.0125,2.98981,5.62134,0,13.2159,135,5,
65.0126,2.98462,5.62439,0,13.2159,135,5,
65.0126,2.98462,5.62439,0,13.2159,135,5,
65.0126,2.98492,5.62134,0,13.2159,135,5,
65.0127,2.98462,5.62592,0,13.2159,135,5,
65.0127,2.98462,5.62592,0,13.2159,135,5,
65.0127,2.98431,5.62439,0,13.2159,135,5,
65.0128,2.98065,5.62439,0,13.2159,135,5,
65.0128,2.98065,5.61981,0,13.2159,135,5,
65.0128,2.97943,5.61981,0,13.2159,135,5,
65.0129,2.97943,5.62286,0,13.2159,135,5,
65.0129,2.97974,5.61981,0,13.2159,135,5,
65.0129,2.98004,5.62286,0,13.2159,135,5,
65.013,2.97607,5.61829,0,13.2159,135,5,
65.013,2.97485,5.62286,2.838,13.2159,135,5,
65.013,2.97577,5.62134,2.838,13.2159,135,5,
65.0131,2.97485,5.62134,2.838,13.2159,135,5,
65.0131,2.97546,5.61981,2.838,13.2159,135,5,
65.0131,2.97516,5.61981,2.838,13.2159,135,5,
65.0132,2.97485,5.62134,2.838,13.2159,135,5,
65.0132,2.97058,5.62134,2.838,13.2159,135,5,
65.0132,2.96997,5.62134,2.838,13.2159,135,5,
65.0133,2.96997,5.62286,2.838,13.2159,135,5,
65.0133,2.96997,5.62134,2.838,13.2159,135,5,
65.0133,2.97058,5.62134,2.838,13.2159,135,5,
65.0134,2.96967,5.61981,2.838,13.2159,135,5,
65.0134,2.96997,5.62134,2.838,13.2159,135,5,
65.0134,2.96478,5.61981,2.838,13.2159,135,5,
65.0135,2.96539,5.62134,2.838,13.2159,135,5,
65.0135,2.96478,5.61676,2.838,13.2159,135,5,
65.0135,2.96539,5.63049,2.838,13.2159,135,5,
65.0136,2.9657,5.63812,2.838,13.2159,135,5,
65.0136,2.9657,5.6366,2.838,13.2159,135,5,
65.0136,2.96478,5.63355,2.838,13.2159,135,5,
65.0137,2.96051,5.63355,2.838,13.2159,135,5,
65.0137,2.9599,5.63202,2.838,13.2159,135,5,
65.0137,2.96082,5.63202,2.838,13.2159,135,5,
65.0138,2.95929,5.63507,2.838,13.2159,135,5,
65.0138,2.95959,5.6366,2.838,13.2159,135,5,
65.0138,2.96082,5.63049,2.838,13.2159,135,5,
65.0139,2.95959,5.63202,2.838,13.2159,135,5,
65.0139,2.96021,5.63355,2.838,13.2159,135,5,
65.0139,2.95563,5.63355,2.838,13.2159,135,5,
65.014,2.95532,5.63049,2.838,13.2159,135,5,
65.014,2.95532,5.63202,2.838,13.2159,135,5,
65.014,2.95593,5.63355,2.838,13.2159,135,5,
65.0141,2.95563,5.63507,2.838,13.2159,135,5,
65.0141,2.95593,5.63355,2.838,13.2159,135,5,
65.0141,2.95532,5.63355,2.838,13.2159,135,5,
65.0142,2.95227,5.63202,2.838,13.2159,135,5,
65.0142,2.95135,5.63355,2.838,13.2159,135,5,
65.0142,2.95013,5.63507,2.838,13.2159,135,5,
65.0143,2.94983,5.63202,2.838,13.2159,135,5,
65.0143,2.95044,5.6366,2.838,13.2159,135,5,
65.0143,2.95044,5.63355,2.838,13.2159,135,5,
65.0144,2.95044,5.63202,2.838,13.2159,135,5,
65.0144,2.95044,5.6366,2.838,13.2159,135,5,
65.0144,2.94556,5.63507,2.838,13.2159,135,5,
65.0145,2.94556,5.6366,2.838,13.2159,135,5,
65.0145,2.94525,5.63355,2.838,13.2159,135,5,
65.0145,2.94556,5.63355,2.838,13.2159,135,5,
65.0146,2.94556,5.63355,2.838,13.2159,135,5,
65.0146,2.94525,5.63507,2.838,13.2159,135,5,
65.0146,2.94586,5.63507,2.838,13.2159,135,5,
65.0147,2.94525,5.63355,2.838,13.2159,135,5,
65.0147,2.94159,5.63355,2.838,13.2159,135,5,
65.0147,2.94098,5.63507,2.838,13.2159,135,5,
65.0148,2.94128,5.6366,2.838,13.2159,135,5,
65.0148,2.94067,5.6366,2.838,13.2159,135,5,
65.0148,2.94067,5.63355,2.838,13.2159,135,5,
65.0149,2.94067,5.63507,2.838,13.2159,135,5,
65.0149,2.94128,5.63355,2.838,13.2159,135,5,
65.0149,2.94098,5.63507,2.838,13.2159,135,5,
65.015,2.93579,5.63202,2.838,13.2159,135,5,
65.015,2.93518,5.63202,2.838,13.2159,135,5,
65.015,2.93579,5.63202,2.838,13.2159,135,5,
65.0151,2.93579,5.63507,2.838,13.2159,135,5,
65.0151,2.93518,5.63507,2.838,13.2159,135,5,
65.0151,2.9361,5.63202,2.838,13.2159,135,5,
65.0152,2.93549,5.6366,2.838,13.2159,135,5,
65.0152,2.93549,5.63507,2.838,13.2159,135,5,
65.0152,2.93152,5.63355,2.838,13.2159,135,5,
65.0153,2.93121,5.63507,2.838,13.2159,135,5,
65.0153,2.9306,5.63355,2.838,13.2159,135,5,
65.0153,2.93121,5.63507,2.838,13.2159,135,5,
65.0154,2.9303,5.6366,2.838,13.2159,135,5,
65.0154,2.93091,5.63355,2.838,13.2159,135,5,
65.0154,2.93121,5.63355,2.838,13.2159,135,5,
65.0155,2.93121,5.63812,2.838,13.2159,135,5,
65.0155,2.92694,5.6366,2.838,13.2159,135,5,
65.0155,2.92603,5.63355,2.838,13.2159,135,5,
65.0156,2.92572,5.63507,2.838,13.2159,135,5,
65.0156,2.92633,5.63049,2.838,13.2159,135,5,
65.0156,2.92633,5.63355,2.838,13.2159,135,5,
65.0157,2.92603,5.63202,2.838,13.2159,135,5,
65.0157,2.92542,5.63355,2.838,13.2159,135,5,
65.0157,2.92633,5.63355,2.838,13.2159,135,5,
65.0158,2.92694,5.63507,2.838,13.2159,135,5,
65.0158,2.92114,5.63507,2.838,13.2159,135,5,
65.0158,2.92145,5.63507,2.838,13.2159,135,5,
65.0159,2.92053,5.6366,2.838,13.2159,135,5,
65.0159,2.92114,5.63355,2.838,13.2159,135,5,
65.0159,2.92114,5.63507,2.838,13.2159,135,5,
65.016,2.92084,5.63507,2.838,13.2159,135,5,
65.016,2.92145,5.63355,2.838,13.2159,135,5,
65.016,2.92084,5.63355,2.838,13.2159,135,5,
65.0161,2.92114,5.63355,2.838,13.2159,135,5,
65.0161,2.91595,5.63507,2.838,13.2159,135,5,
65.0161,2.91656,5.63202,2.838,13.2159,135,5,
65.0162,2.91656,5.63355,2.838,13.2159,135,5,
65.0162,2.91626,5.63355,2.838,13.2159,135,5,
65.0162,2.91656,5.63507,2.838,13.2159,135,5,
65.0163,2.91626,5.63355,2.838,13.2159,135,5,
65.0163,2.91595,5.63507,2.838,13.2159,135,5,
65.0163,2.91595,5.63355,2.838,13.2159,135,5,
65.0164,2.91595,5.63355,2.838,13.2159,135,5,
65.0164,2.91626,5.63355,2.838,13.2159,135,5,
65.0164,2.91168,5.63202,2.838,13.2159,135,5,
65.0165,2.91107,5.63202,2.838,13.2159,135,5,
65.0165,2.91107,5.63202,2.838,13.2159,135,5,
65.0165,2.91138,5.63202,2.838,13.2159,135,5,
65.0166,2.91138,5.63049,2.838,13.2159,135,5,
65.0166,2.91199,5.63507,2.838,13.2159,135,5,
65.0166,2.91077,5.6366,2.838,13.2159,135,5,
65.0167,2.91138,5.63049,2.838,13.2159,135,5,
65.0167,2.91138,5.63507,2.838,13.2159,135,5,
65.0167,2.91077,5.63507,2.838,13.2159,135,5,
65.0168,2.9068,5.63965,2.838,13.2159,135,5,
65.0168,2.90649,5.63812,2.838,13.2159,135,5,
65.0168,2.9068,5.6366,2.838,13.2159,135,5,
65.0169,2.90588,5.63355,2.838,13.2159,135,5,
65.0169,2.90619,5.63355,2.838,13.2159,135,5,
65.0169,2.90649,5.63507,2.838,13.2159,135,5,
65.017,2.9068,5.63355,2.838,13.2159,135,5,
65.017,2.9071,5.63507,2.838,13.2159,135,5,
65.017,2.90558,5.63355,2.838,13.2159,135,5,
65.0171,2.9068,5.63507,2.838,13.2159,135,5,
65.0171,2.90192,5.63507,2.838,13.2159,135,5,
65.0171,2.90131,5.63355,2.838,13.2159,135,5,
65.0172,2.901,5.63507,2.838,13.2159,135,5,
65.0172,2.90131,5.63507,2.838,13.2159,135,5,
65.0172,2.90131,5.63507,2.838,13.2159,135,5,
65.0173,2.90161,5.63507,2.838,13.2159,135,5,
65.0173,2.90192,5.6366,2.838,13.2159,135,5,
65.0173,2.90161,5.63355,2.838,13.2159,135,5,
65.0174,2.90131,5.63507,2.838,13.2159,135,5,
65.0174,2.90161,5.63355,2.838,13.2159,135,5,
65.0174,2.90161,5.6366,2.838,13.2159,135,5,
65.0175,2.89673,5.63507,2.838,13.2159,135,5,
65.0175,2.89612,5.63507,2.838,13.2159,135,5,
65.0175,2.89642,5.6366,2.838,13.2159,135,5,
65.0176,2.89612,5.63507,2.838,13.2159,135,5,
65.0176,2.89703,5.63812,2.838,13.2159,135,5,
65.0176,2.89703,5.6366,2.838,13.2159,135,5,
65.0177,2.89673,5.63355,2.838,13.2159,135,5,
65.0177,2.89673,5.63507,2.838,13.2159,135,5,
65.0177,2.89703,5.63355,2.838,13.2159,135,5,
65.0178,2.89642,5.6366,2.838,13.2159,135,5,
65.0178,2.89703,5.63507,2.838,13.2159,135,5,
65.0178,2.89642,5.63355,2.838,13.2159,135,5,
65.0179,2.89154,5.6366,2.838,13.2159,135,5,
65.0179,2.89185,5.63507,2.838,13.2159,135,5,
65.0179,2.89185,5.63507,2.838,13.2159,135,5,
65.018,2.89124,5.63507,2.838,13.2159,135,5,
65.018,2.89154,5.63355,2.838,13.2159,135,5,
65.018,2.89124,5.6366,2.838,13.2159,135,5,
65.0181,2.89185,5.6366,2.838,13.2159,135,5,
65.0181,2.89062,5.63202,2.838,13.2159,135,5,
65.0181,2.89185,5.63355,2.838,13.2159,135,5,
65.0182,2.89124,5.63355,2.838,13.2159,135,5,
65.0182,2.89154,5.63202,2.838,13.2159,135,5,
65.0182,2.89215,5.63507,2.838,13.2159,135,5,
65.0183,2.89124,5.63202,2.838,13.2159,135,5,
65.0183,2.88666,5.63355,2.838,13.2159,135,5,
65.0183,2.88666,5.6366,2.838,13.2159,135,5,
65.0184,2.88666,5.63202,2.838,13.2159,135,5,
65.0184,2.88696,5.6366,2.838,13.2159,135,5,
65.0184,2.88727,5.63355,2.838,13.2159,135,5,
65.0185,2.88666,5.63202,2.838,13.2159,135,5,
65.0185,2.88727,5.6366,2.838,13.2159,135,5,
65.0185,2.88635,5.63049,2.838,13.2159,135,5,
65.0186,2.88696,5.63355,2.838,13.2159,135,5,
65.0186,2.88696,5.63355,2.838,13.2159,135,5,
65.0186,2.88635,5.63049,2.838,13.2159,135,5,
65.0187,2.88635,5.63355,2.838,13.2159,135,5,
65.0187,2.88635,5.63507,2.838,13.2159,135,5,
65.0187,2.883,5.63355,2.838,13.2159,135,5,
65.0188,2.88177,5.63355,2.838,13.2159,135,5,
65.0188,2.88177,5.63355,2.838,13.2159,135,5,
65.0188,2.88177,5.63507,2.838,13.2159,135,5,
65.0189,2.88208,5.6366,2.838,13.2159,135,5,
65.0189,2.88208,5.63355,2.838,13.2159,135,5,
65.0189,2.88208,5.63202,2.838,13.2159,135,5,
65.019,2.88208,5.63355,2.838,13.2159,135,5,
65.019,2.88177,5.6366,2.838,13.2159,135,5,
65.019,2.88147,5.63355,2.838,13.2159,135,5,
65.0191,2.88177,5.63202,2.838,13.2159,135,5,
65.0191,2.88239,5.63049,2.838,13.2159,135,5,
65.0191,2.88147,5.63355,2.838,13.2159,135,5,
65.0192,2.88177,5.6366,2.838,13.2159,135,5,
65.0192,2.88208,5.63507,2.838,13.2159,135,5,
65.0192,2.88208,5.63507,2.838,13.2159,135,5,
65.0193,2.8772,5.63355,2.838,13.2159,135,5,
65.0193,2.87659,5.6366,2.838,13.2159,135,5,
65.0193,2.8772,5.63202,2.838,13.2159,135,5,
65.0194,2.87659,5.63355,2.838,13.2159,135,5,
65.0194,2.87659,5.6366,2.838,13.2159,135,5,
65.0194,2.8772,5.63507,2.838,13.2159,135,5,
65.0195,2.8772,5.63507,2.838,13.2159,135,5,
65.0195,2.87628,5.63202,2.838,13.2159,135,5,
65.0195,2.8772,5.63355,2.838,13.2159,135,5,
65.0196,2.87659,5.63202,2.838,13.2159,135,5,
65.0196,2.87781,5.63355,2.838,13.2159,135,5,
65.0196,2.87689,5.63812,2.838,13.2159,135,5,
65.0197,2.87689,5.63355,2.838,13.2159,135,5,
65.0197,2.87689,5.63355,2.838,13.2159,135,5,
65.0197,2.87689,5.6366,2.838,13.2159,135,5,
65.0198,2.87689,5.64575,2.838,13.2159,135,5,
65.0198,2.8772,5.6488,2.838,13.2159,135,5,
65.0198,2.87689,5.64575,2.838,13.2159,135,5,
65.0199,2.8772,5.64575,2.838,13.2159,135,5,
65.0199,2.87628,5.64728,2.838,13.2159,135,5,
65.0199,2.87628,5.6488,2.838,13.2159,135,5,
65.02,2.87628,5.64728,2.838,13.2159,135,5,
65.02,2.87659,5.64423,2.838,13.2159,135,5,
65.02,2.8772,5.64423,2.838,13.2159,135,5,
65.0201,2.8772,5.6427,2.838,13.2159,135,5,
65.0201,2.8717,5.64728,2.838,13.2159,135,5,
65.0201,2.87231,5.64575,2.838,13.2159,135,5,
65.0202,2.8717,5.64575,2.838,13.2159,135,5,
65.0202,2.8714,5.64423,2.838,13.2159,135,5,
65.0202,2.87262,5.64575,2.838,13.2159,135,5,
65.0203,2.87201,5.64575,2.838,13.2159,135,5,
65.0203,2.87231,5.64728,2.838,13.2159,135,5,
65.0203,2.87231,5.64575,2.838,13.2159,135,5,
65.0204,2.87201,5.64423,2.838,13.2159,135,5,
65.0204,2.87231,5.64423,2.838,13.2159,135,5,
65.0204,2.8717,5.64575,2.838,13.2159,135,5,
65.0205,2.87201,5.64575,2.838,13.2159,135,5,
65.0205,2.8714,5.64423,2.838,13.2159,135,5,
65.0205,2.87201,5.64728,2.838,13.2159,135,5,
65.0206,2.87506,5.64575,2.838,13.2159,135,5,
65.0206,2.87628,5.64575,2.838,13.2159,135,5,
65.0206,2.87781,5.64423,2.838,13.2159,135,5,
65.0207,2.8775,5.64423,2.838,13.2159,135,5,
65.0207,2.8772,5.6427,2.838,13.2159,135,5,
65.0207,2.87689,5.64423,2.838,13.2159,135,5,
65.0208,2.8772,5.64575,2.838,13.2159,135,5,
65.0208,2.8775,5.6488,2.838,13.2159,135,5,
65.0208,2.87659,5.6488,2.838,13.2159,135,5,
65.0209,2.87689,5.64575,2.838,13.2159,135,5,
65.0209,2.8772,5.6488,2.838,13.2159,135,5,
65.0209,2.8772,5.6427,2.838,13.2159,135,5,
65.021,2.8772,5.64728,2.838,13.2159,135,5,
65.021,2.87811,5.64728,2.838,13.2159,135,5,
65.021,2.87689,5.64575,2.838,13.2159,135,5,
65.0211,2.8775,5.64728,2.838,13.2159,135,5,
65.0211,2.8772,5.64575,2.838,13.2159,135,5,
65.0211,2.8775,5.64575,2.838,13.2159,135,5,
65.0212,2.87689,5.64575,2.838,13.2159,135,5,
65.0212,2.87781,5.64575,2.838,13.2159,135,5,
65.0212,2.88055,5.6427,2.838,13.2159,135,5,
65.0213,2.88208,5.64575,2.838,13.2159,135,5,
65.0213,2.88239,5.64575,2.838,13.2159,135,5,
65.0213,2.88208,5.64728,2.838,13.2159,135,5,
65.0214,2.88208,5.64575,2.838,13.2159,135,5,
65.0214,2.88208,5.64728,2.838,13.2159,135,5,
65.0214,2.88208,5.64728,2.838,13.2159,135,5,
65.0215,2.88177,5.6488,2.838,13.2159,135,5,
65.0215,2.88239,5.64575,2.838,13.2159,135,5,
65.0215,2.88239,5.64575,2.838,13.2159,135,5,
65.0216,2.88177,5.64423,2.838,13.2159,135,5,
65.0216,2.88696,5.64575,2.838,13.2159,135,5,
65.0216,2.88666,5.64423,2.838,13.2159,135,5,
65.0217,2.88696,5.65033,2.838,13.2159,135,5,
65.0217,2.88635,5.64575,2.838,13.2159,135,5,
65.0217,2.88635,5.64575,2.838,13.2159,135,5,
65.0218,2.88696,5.64728,2.838,13.2159,135,5,
65.0218,2.88696,5.64575,2.838,13.2159,135,5,
65.0218,2.88696,5.64575,2.838,13.2159,135,5,
65.0219,2.88971,5.64575,2.838,13.2159,135,5,
65.0219,2.89185,5.64575,2.838,13.2159,135,5,
65.0219,2.89246,5.64423,2.838,13.2159,135,5,
65.022,2.89246,5.64728,2.838,13.2159,135,5,
65.022,2.89185,5.6427,2.838,13.2159,135,5,
65.022,2.89154,5.64423,2.838,13.2159,135,5,
65.0221,2.89185,5.64423,2.838,13.2159,135,5,
65.0221,2.89185,5.6427,2.838,13.2159,135,5,
65.0221,2.89612,5.64423,2.838,13.2159,135,5,
65.0222,2.89673,5.64423,2.838,13.2159,135,5,
65.0222,2.89642,5.64423,2.838,13.2159,135,5,
65.0222,2.89673,5.64728,2.838,13.2159,135,5,
65.0223,2.89642,5.64575,2.838,13.2159,135,5,
65.0223,2.89673,5.64728,2.838,13.2159,135,5,
65.0223,2.90131,5.64728,2.838,13.2159,135,5,
65.0224,2.90131,5.64728,2.838,13.2159,135,5,
65.0224,2.90131,5.6488,2.838,13.2159,135,5,
65.0224,2.901,5.64728,2.838,13.2159,135,5,
65.0225,2.90161,5.64728,2.838,13.2159,135,5,
65.0225,2.90131,5.64575,2.838,13.2159,135,5,
65.0225,2.9071,5.64575,2.838,13.2159,135,5,
65.0226,2.90588,5.64575,2.838,13.2159,135,5,
65.0226,2.9068,5.6488,2.838,13.2159,135,5,
65.0226,2.90649,5.64423,2.838,13.2159,135,5,
65.0227,2.9068,5.64575,2.838,13.2159,135,5,
65.0227,2.91107,5.64423,2.838,13.2159,135,5,
65.0227,2.91168,5.64575,2.838,13.2159,135,5,
65.0228,2.91138,5.64728,2.838,13.2159,135,5,
65.0228,2.91107,5.64423,2.838,13.2159,135,5,
65.0228,2.91107,5.64423,2.838,13.2159,135,5,
65.0229,2.91626,5.64575,2.838,13.2159,135,5,
65.0229,2.91656,5.64423,2.838,13.2159,135,5,
65.0229,2.91656,5.64728,2.838,13.2159,135,5,
65.023,2.91595,5.64575,2.838,13.2159,135,5,
65.023,2.91992,5.6488,2.838,13.2159,135,5,
65.023,2.92175,5.6427,2.838,13.2159,135,5,
65.0231,2.92206,5.64575,2.838,13.2159,135,5,
65.0231,2.92145,5.64575,2.838,13.2159,135,5,
65.0231,2.9248,5.64728,2.838,13.2159,135,5,
65.0232,2.92694,5.64728,2.838,13.2159,135,5,
65.0232,2.92633,5.64575,2.838,13.2159,135,5,
65.0232,2.92725,5.64575,2.838,13.2159,135,5,
65.0233,2.93121,5.64423,2.838,13.2159,135,5,
65.0233,2.93182,5.64575,2.838,13.2159,135,5,
65.0233,2.93182,5.64728,2.838,13.2159,135,5,
65.0234,2.93243,5.64575,2.838,13.2159,135,5,
65.0234,2.93732,5.64575,2.838,13.2159,135,5,
65.0234,2.93732,5.64575,2.838,13.2159,135,5,
65.0235,2.9361,5.64575,2.838,13.2159,135,5,
65.0235,2.94128,5.64575,2.838,13.2159,135,5,
65.0235,2.94159,5.64423,2.838,13.2159,135,5,
65.0236,2.94159,5.64728,2.838,13.2159,135,5,
65.0236,2.94495,5.6427,2.838,13.2159,135,5,
65.0236,2.94525,5.64423,2.838,13.2159,135,5,
65.0237,2.94586,5.64728,2.838,13.2159,135,5,
65.0237,2.95013,5.6427,2.838,13.2159,135,5,
65.0237,2.95044,5.6488,2.838,13.2159,135,5,
65.0238,2.95013,5.64575,2.838,13.2159,135,5,
65.0238,2.95532,5.64423,2.838,13.2159,135,5,
65.0238,2.95532,5.64423,2.838,13.2159,135,5,
65.0239,2.95563,5.6488,2.838,13.2159,135,5,
65.0239,2.96051,5.64423,2.838,13.2159,135,5,
65.0239,2.9599,5.64423,2.838,13.2159,135,5,
65.024,2.96387,5.64575,2.838,13.2159,135,5,
65.024,2.96448,5.64575,2.838,13.2159,135,5,
65.024,2.96478,5.64575,2.838,13.2159,135,5,
65.0241,2.96967,5.64118,2.838,13.2159,135,5,
65.0241,2.97028,5.64575,2.838,13.2159,135,5,
65.0241,2.97028,5.6427,2.838,13.2159,135,5,
65.0242,2.97424,5.6488,2.838,13.2159,135,5,
65.0242,2.97485,5.64575,2.838,13.2159,135,5,
65.0242,2.98065,5.64118,2.838,13.2159,135,5,
65.0243,2.97974,5.64118,2.838,13.2159,135,5,
65.0243,2.98279,5.64728,2.838,13.2159,135,5,
65.0243,2.98462,5.64423,2.838,13.2159,135,5,
65.0244,2.98492,5.64423,2.838,13.2159,135,5,
65.0244,2.9892,5.64423,2.838,13.2159,135,5,
65.0244,2.98981,5.6427,2.838,13.2159,135,5,
65.0245,2.99408,5.64575,2.838,13.2159,135,5,
65.0245,2.99408,5.64728,2.838,13.2159,135,5,
65.0245,2.99774,5.64423,2.838,13.2159,135,5,
65.0246,2.99927,5.64575,2.838,13.2159,135,5,
65.0246,2.99957,5.64423,2.838,13.2159,135,5,
65.0246,3.00415,5.64728,2.838,13.2159,135,5,
65.0247,3.00415,5.6488,2.838,13.2159,135,5,
65.0247,3.00934,5.64423,2.838,13.2159,135,5,
65.0247,3.00903,5.6427,2.838,13.2159,135,5,
65.0248,3.01361,5.6427,2.838,13.2159,135,5,
65.0248,3.01483,5.64728,2.838,13.2159,135,5,
65.0248,3.01849,5.64575,2.838,13.2159,135,5,
65.0249,3.01819,5.64423,2.838,13.2159,135,5,
65.0249,3.02399,5.6488,2.838,13.2159,135,5,
65.0249,3.02399,5.64575,2.838,13.2159,135,5,
65.025,3.02643,5.6488,2.838,13.2159,135,5,
65.025,3.02856,5.64575,2.838,13.2159,135,5,
65.025,3.03162,5.64575,2.838,13.2159,135,5,
65.0251,3.03345,5.64423,2.838,13.2159,135,5,
65.0251,3.0368,5.64575,2.838,13.2159,135,5,
65.0251,3.03833,5.64575,2.838,13.2159,135,5,
65.0252,3.04199,5.64728,2.838,13.2159,135,5,
65.0252,3.04382,5.64575,2.838,13.2159,135,5,
65.0252,3.04718,5.6427,2.838,13.2159,135,5,
65.0253,3.04871,5.6427,2.838,13.2159,135,5,
65.0253,3.05176,5.64423,2.838,13.2159,135,5,
65.0253,3.05298,5.64728,2.838,13.2159,135,5,
65.0254,3.05725,5.64423,2.838,13.2159,135,5,
65.0254,3.05847,5.64575,2.838,13.2159,135,5,
65.0254,3.06152,5.64423,2.838,13.2159,135,5,
65.0255,3.06335,5.64728,2.838,13.2159,135,5,
65.0255,3.06763,5.64575,2.838,13.2159,135,5,
65.0255,3.06732,5.65033,2.838,13.2159,135,5,
65.0256,3.07251,5.6427,2.838,13.2159,135,5,
65.0256,3.07251,5.6488,2.838,13.2159,135,5,
65.0256,3.07861,5.6488,2.838,13.2159,135,5,
65.0257,3.07861,5.64423,2.838,13.2159,135,5,
65.0257,3.08289,5.64575,2.838,13.2159,135,5,
65.0257,3.0838,5.64423,2.838,13.2159,135,5,
65.0258,3.08777,5.6488,2.838,13.2159,135,5,
65.0258,3.08868,5.64575,2.838,13.2159,135,5,
65.0258,3.09296,5.64728,2.838,13.2159,135,5,
65.0259,3.0957,5.64728,2.838,13.2159,135,5,
65.0259,3.09753,5.6427,2.838,13.2159,135,5,
65.0259,3.10181,5.64575,2.838,13.2159,135,5,
65.026,3.10181,5.64423,2.838,13.2159,135,5,
65.026,3.10699,5.64575,2.838,13.2159,135,5,
65.026,3.1076,5.64423,2.838,13.2159,135,5,
65.0261,3.11218,5.64423,2.838,13.2159,135,5,
65.0261,3.11279,5.6488,2.838,13.2159,135,5,
65.0261,3.11676,5.64575,2.838,13.2159,135,5,
65.0262,3.12012,5.64728,2.838,13.2159,135,5,
65.0262,3.12225,5.64575,2.838,13.2159,135,5,
65.0262,3.12683,5.64728,2.838,13.2159,135,5,
65.0263,3.12683,5.64423,2.838,13.2159,135,5,
65.0263,3.13171,5.64575,2.838,13.2159,135,5,
65.0263,3.13202,5.6427,2.838,13.2159,135,5,
65.0264,3.13629,5.64728,2.838,13.2159,135,5,
65.0264,3.13995,5.64728,2.838,13.2159,135,5,
65.0264,3.14087,5.64423,2.838,13.2159,135,5,
65.0265,3.14575,5.64423,2.838,13.2159,135,5,
65.0265,3.14697,5.64728,2.838,13.2159,135,5,
65.0265,3.15125,5.64423,2.838,13.2159,135,5,
65.0266,3.1546,5.64575,2.838,13.2159,135,5,
65.0266,3.15582,5.64728,2.838,13.2159,135,5,
65.0266,3.16101,5.64575,2.838,13.2159,135,5,
65.0267,3.16132,5.64575,2.838,13.2159,135,5,
65.0267,3.16589,5.64575,2.838,13.2159,135,5,
65.0267,3.1665,5.64575,2.838,13.2159,135,5,
65.0268,3.17078,5.64118,2.838,13.2159,135,5,
65.0268,3.17535,5.64423,2.838,13.2159,135,5,
65.0268,3.17566,5.64728,2.838,13.2159,135,5,
65.0269,3.18085,5.64423,2.838,13.2159,135,5,
65.0269,3.18146,5.64728,2.838,13.2159,135,5,
65.0269,3.18573,5.64575,2.838,13.2159,135,5,
65.027,3.19,5.64423,2.838,13.2159,135,5,
65.027,3.19,5.64728,2.838,13.2159,135,5,
65.027,3.19519,5.6427,2.838,13.2159,135,5,
65.0271,3.19916,5.64423,2.838,13.2159,135,5,
65.0271,3.20068,5.64423,2.838,13.2159,135,5,
65.0271,3.20465,5.6488,2.838,13.2159,135,5,
65.0272,3.20557,5.64728,2.838,13.2159,135,5,
65.0272,3.20984,5.64728,2.838,13.2159,135,5,
65.0272,3.21442,5.64575,2.838,13.2159,135,5,
65.0273,3.21503,5.64423,2.838,13.2159,135,5,
65.0273,3.2193,5.6427,2.838,13.2159,135,5,
65.0273,3.22296,5.6427,2.838,13.2159,135,5,
65.0274,3.22479,5.6427,2.838,13.2159,135,5,
65.0274,3.23059,5.6427,2.838,13.2159,135,5,
65.0274,3.2309,5.64423,2.838,13.2159,135,5,
65.0275,3.23425,5.64728,2.838,13.2159,135,5,
65.0275,3.23944,5.64423,2.838,13.2159,135,5,
65.0275,3.23975,5.64423,2.838,13.2159,135,5,
65.0276,3.24463,5.64575,2.838,13.2159,135,5,
65.0276,3.2489,5.64423,2.838,13.2159,135,5,
65.0276,3.24951,5.64728,2.838,13.2159,135,5,
65.0277,3.25439,5.64575,2.838,13.2159,135,5,
65.0277,3.25745,5.6427,2.838,13.2159,135,5,
65.0277,3.25928,5.6427,2.838,13.2159,135,5,
65.0278,3.26355,5.64575,2.838,13.2159,135,5,
65.0278,3.26782,5.64728,2.838,13.2159,135,5,
65.0278,3.26843,5.64423,2.838,13.2159,135,5,
65.0279,3.27362,5.6427,2.838,13.2159,135,5,
65.0279,3.27484,5.6488,2.838,13.2159,135,5,
65.0279,3.27881,5.63965,2.838,13.2159,135,5,
65.028,3.28308,5.64423,2.838,13.2159,135,5,
65.028,3.2843,5.64575,2.838,13.2159,135,5,
65.028,3.28857,5.63965,2.838,13.2159,135,5,
65.0281,3.29254,5.6427,2.838,13.2159,135,5,
65.0281,3.29376,5.64575,2.838,13.2159,135,5,
65.0281,3.29773,5.64728,2.838,13.2159,135,5,
65.0282,3.30261,5.64728,2.838,13.2159,135,5,
65.0282,3.30292,5.64728,2.838,13.2159,135,5,
65.0282,3.3078,5.64575,2.838,13.2159,135,5,
65.0283,3.31085,5.6488,2.838,13.2159,135,5,
65.0283,3.31268,5.6427,2.838,13.2159,135,5,
65.0283,3.31787,5.64575,2.838,13.2159,135,5,
65.0284,3.32092,5.65033,2.838,13.2159,135,5,
65.0284,3.32245,5.64575,2.838,13.2159,135,5,
65.0284,3.32733,5.64728,2.838,13.2159,135,5,
65.0285,3.33069,5.64575,2.838,13.2159,135,5,
65.0285,3.33221,5.64575,2.838,13.2159,135,5,
65.0285,3.33679,5.64423,2.838,13.2159,135,5,
65.0286,3.33801,5.64728,2.838,13.2159,135,5,
65.0286,3.34259,5.64423,2.838,13.2159,135,5,
65.0286,3.34717,5.64728,2.838,13.2159,135,5,
65.0287,3.34747,5.64575,2.838,13.2159,135,5,
65.0287,3.35175,5.64423,2.838,13.2159,135,5,
65.0287,3.35632,5.64423,2.838,13.2159,135,5,
65.0288,3.35754,5.64423,2.838,13.2159,135,5,
65.0288,3.36182,5.64575,2.838,13.2159,135,5,
65.0288,3.36487,5.64575,2.838,13.2159,135,5,
65.0289,3.36639,5.64575,2.838,13.2159,135,5,
65.0289,3.37097,5.64728,2.838,13.2159,135,5,
65.0289,3.37524,5.64575,2.838,13.2159,135,5,
65.029,3.37708,5.64423,2.838,13.2159,135,5,
65.029,3.38104,5.64575,2.838,13.2159,135,5,
65.029,3.3847,5.64423,2.838,13.2159,135,5,
65.0291,3.38623,5.64423,2.838,13.2159,135,5,
65.0291,3.39081,5.64575,2.838,13.2159,135,5,
65.0291,3.39142,5.6488,2.838,13.2159,135,5,
65.0292,3.3963,5.64423,2.838,13.2159,135,5,
65.0292,3.40057,5.6488,2.838,13.2159,135,5,
65.0292,3.4021,5.64728,2.838,13.2159,135,5,
65.0293,3.40607,5.64575,2.838,13.2159,135,5,
65.0293,3.41064,5.64423,2.838,13.2159,135,5,
65.0293,3.41064,5.64575,2.838,13.2159,135,5,
65.0294,3.41614,5.6427,2.838,13.2159,135,5,
65.0294,3.41858,5.64728,2.838,13.2159,135,5,
65.0294,3.42072,5.64575,2.838,13.2159,135,5,
65.0295,3.42529,5.64575,2.838,13.2159,135,5,
65.0295,3.42987,5.64575,2.838,13.2159,135,5,
65.0295,3.43079,5.64118,2.838,13.2159,135,5,
65.0296,3.43475,5.6427,2.838,13.2159,135,5,
65.0296,3.43628,5.64575,2.838,13.2159,135,5,
65.0296,3.44055,5.64575,2.838,13.2159,135,5,
65.0297,3.44482,5.64575,2.838,13.2159,135,5,
65.0297,3.44543,5.64728,2.838,13.2159,135,5,
65.0297,3.45032,5.64423,2.838,13.2159,135,5,
65.0298,3.45337,5.65033,2.838,13.2159,135,5,
65.0298,3.4549,5.64728,2.838,13.2159,135,5,
65.0298,3.45978,5.64728,2.838,13.2159,135,5,
65.0299,3.46008,5.64728,2.838,13.2159,135,5,
65.0299,3.46436,5.65033,2.838,13.2159,135,5,
65.0299,3.46924,5.64575,2.838,13.2159,135,5,
65.03,3.46985,5.64575,2.838,13.2159,135,5,
65.03,3.47443,5.64575,2.838,13.2159,135,5,
65.03,3.47748,5.64728,2.838,13.2159,135,5,
65.0301,3.47992,5.64728,2.838,13.2159,135,5,
65.0301,3.48419,5.64575,2.838,13.2159,135,5,
65.0301,3.4845,5.6427,2.838,13.2159,135,5,
65.0302,3.48816,5.64575,2.838,13.2159,135,5,
65.0302,3.49457,5.64575,2.838,13.2159,135,5,
65.0302,3.49396,5.64575,2.838,13.2159,135,5,
65.0303,3.49884,5.64423,2.838,13.2159,135,5,
65.0303,3.50189,5.64728,2.838,13.2159,135,5,
65.0303,3.50464,5.64423,2.838,13.2159,135,5,
65.0304,3.5083,5.64728,2.838,13.2159,135,5,
65.0304,3.50983,5.65033,2.838,13.2159,135,5,
65.0304,3.51349,5.64423,2.838,13.2159,135,5,
65.0305,3.51685,5.6488,2.838,13.2159,135,5,
65.0305,3.51898,5.64728,2.838,13.2159,135,5,
65.0305,3.52325,5.64575,2.838,13.2159,135,5,
65.0306,3.52417,5.64423,2.838,13.2159,135,5,
65.0306,3.52875,5.64575,2.838,13.2159,135,5,
65.0306,3.5318,5.64423,2.838,13.2159,135,5,
65.0307,3.53271,5.65186,2.838,13.2159,135,5,
65.0307,3.53821,5.64728,2.838,13.2159,135,5,
65.0307,3.53821,5.64728,2.838,13.2159,135,5,
65.0308,3.54309,5.64423,2.838,13.2159,135,5,
65.0308,3.54645,5.64575,2.838,13.2159,135,5,
65.0308,3.54828,5.64728,2.838,13.2159,135,5,
65.0309,3.55255,5.65033,2.838,13.2159,135,5,
65.0309,3.55255,5.64423,2.838,13.2159,135,5,
65.0309,3.55804,5.6488,2.838,13.2159,135,5,
65.031,3.5614,5.64728,2.838,13.2159,135,5,
65.031,3.56293,5.64575,2.838,13.2159,135,5,
65.031,3.56781,5.6488,2.838,13.2159,135,5,
65.0311,3.5675,5.64423,2.838,13.2159,135,5,
65.0311,3.573,5.64423,2.838,13.2159,135,5,
65.0311,3.57361,5.64575,2.838,13.2159,135,5,
65.0312,3.57758,5.64728,2.838,13.2159,135,5,
65.0312,3.58124,5.64423,2.838,13.2159,135,5,
65.0312,3.58215,5.64575,2.838,13.2159,135,5,
65.0313,3.58643,5.64728,2.838,13.2159,135,5,
65.0313,3.58734,5.64423,2.838,13.2159,135,5,
65.0313,3.59222,5.64728,2.838,13.2159,135,5,
65.0314,3.59253,5.64575,2.838,13.2159,135,5,
65.0314,3.5968,5.6488,2.838,13.2159,135,5,
65.0314,3.60046,5.6488,2.838,13.2159,135,5,
65.0315,3.60168,5.65033,2.838,13.2159,135,5,
65.0315,3.60687,5.64575,2.838,13.2159,135,5,
65.0315,3.60687,5.64575,2.838,13.2159,135,5,
65.0316,3.61115,5.64423,2.838,13.2159,135,5,
65.0316,3.61206,5.64575,2.838,13.2159,135,5,
65.0316,3.61725,5.64423,2.838,13.2159,135,5,
65.0317,3.61725,5.64423,2.838,13.2159,135,5,
65.0317,3.62091,5.65033,2.838,13.2159,135,5,
65.0317,3.62518,5.64423,2.838,13.2159,135,5,
65.0318,3.6264,5.64575,2.838,13.2159,135,5,
65.0318,3.62946,5.64728,2.838,13.2159,135,5,
65.0318,3.63129,5.64728,2.838,13.2159,135,5,
65.0319,3.63586,5.64575,2.838,13.2159,135,5,
65.0319,3.63678,5.64728,2.838,13.2159,135,5,
65.0319,3.64136,5.64423,2.838,13.2159,135,5,
65.032,3.64166,5.64575,2.838,13.2159,135,5,
65.032,3.64563,5.64728,2.838,13.2159,135,5,
65.032,3.64655,5.64728,2.838,13.2159,135,5,
65.0321,3.65143,5.6427,2.838,13.2159,135,5,
65.0321,3.65051,5.6427,2.838,13.2159,135,5,
65.0321,3.65631,5.6488,2.838,13.2159,135,5,
65.0322,3.6557,5.65186,2.838,13.2159,135,5,
65.0322,3.66089,5.64728,2.838,13.2159,135,5,
65.0322,3.66119,5.64423,2.838,13.2159,135,5,
65.0323,3.66577,5.6488,2.838,13.2159,135,5,
65.0323,3.66699,5.6488,2.838,13.2159,135,5,
65.0323,3.67096,5.64728,2.838,13.2159,135,5,
65.0324,3.67065,5.6488,2.838,13.2159,135,5,
65.0324,3.67554,5.64575,2.838,13.2159,135,5,
65.0324,3.67706,5.6488,2.838,13.2159,135,5,
65.0325,3.68073,5.64423,2.838,13.2159,135,5,
65.0325,3.68042,5.64423,2.838,13.2159,135,5,
65.0325,3.6853,5.64423,2.838,13.2159,135,5,
65.0326,3.6853,5.64728,2.838,13.2159,135,5,
65.0326,3.69019,5.6427,2.838,13.2159,135,5,
65.0326,3.68988,5.6488,2.838,13.2159,135,5,
65.0327,3.69507,5.64728,2.838,13.2159,135,5,
65.0327,3.69476,5.64575,2.838,13.2159,135,5,
65.0327,3.69995,5.64423,2.838,13.2159,135,5,
65.0328,3.70026,5.64423,2.838,13.2159,135,5,
65.0328,3.70453,5.64728,2.838,13.2159,135,5,
65.0328,3.70483,5.64575,2.838,13.2159,135,5,
65.0329,3.70819,5.65186,2.838,13.2159,135,5,
65.0329,3.70972,5.6488,2.838,13.2159,135,5,
65.0329,3.71307,5.64728,2.838,13.2159,135,5,
65.033,3.7149,5.64728,2.838,13.2159,135,5,
65.033,3.71552,5.64728,2.838,13.2159,135,5,
65.033,3.71918,5.64423,2.838,13.2159,135,5,
65.0331,3.71979,5.64423,2.838,13.2159,135,5,
65.0331,3.72467,5.64575,2.838,13.2159,135,5,
65.0331,3.72437,5.64575,2.838,13.2159,135,5,
65.0332,3.72894,5.65186,2.838,13.2159,135,5,
65.0332,3.72955,5.64423,2.838,13.2159,135,5,
65.0332,3.7326,5.64575,2.838,13.2159,135,5,
65.0333,3.73444,5.64575,2.838,13.2159,135,5,
65.0333,3.73444,5.6488,2.838,13.2159,135,5,
65.0333,3.73901,5.6427,2.838,13.2159,135,5,
65.0334,3.73871,5.64728,2.838,13.2159,135,5,
65.0334,3.74329,5.64728,2.838,13.2159,135,5,
65.0334,3.74451,5.64575,2.838,13.2159,135,5,
65.0335,3.74695,5.6488,2.838,13.2159,135,5,
65.0335,3.74878,5.64423,2.838,13.2159,135,5,
65.0335,3.74908,5.64575,2.838,13.2159,135,5,
65.0336,3.75397,5.64575,2.838,13.2159,135,5,
65.0336,3.75397,5.6488,2.838,13.2159,135,5,
65.0336,3.75702,5.64728,2.838,13.2159,135,5,
65.0337,3.75854,5.64423,2.838,13.2159,135,5,
65.0337,3.75824,5.6488,2.838,13.2159,135,5,
65.0337,3.76404,5.64728,2.838,13.2159,135,5,
65.0338,3.76312,5.64423,2.838,13.2159,135,5,
65.0338,3.76678,5.64575,2.838,13.2159,135,5,
65.0338,3.76831,5.64728,2.838,13.2159,135,5,
65.0339,3.76862,5.64728,2.838,13.2159,135,5,
65.0339,3.77319,5.64575,2.838,13.2159,135,5,
65.0339,3.77289,5.64575,2.838,13.2159,135,5,
65.034,3.77441,5.64728,2.838,13.2159,135,5,
65.034,3.77838,5.65033,2.838,13.2159,135,5,
65.034,3.77808,5.64728,2.838,13.2159,135,5,
65.0341,3.78265,5.64575,2.838,13.2159,135,5,
65.0341,3.78357,5.64575,2.838,13.2159,135,5,
65.0341,3.78326,5.64575,2.838,13.2159,135,5,
65.0342,3.78845,5.6488,2.838,13.2159,135,5,
65.0342,3.78845,5.64575,2.838,13.2159,135,5,
65.0342,3.7915,5.6427,2.838,13.2159,135,5,
65.0343,3.79272,5.64575,2.838,13.2159,135,5,
65.0343,3.79395,5.64575,2.838,13.2159,135,5,
65.0343,3.79791,5.64575,2.838,13.2159,135,5,
65.0344,3.79822,5.64423,2.838,13.2159,135,5,
65.0344,3.79852,5.64728,2.838,13.2159,135,5,
65.0344,3.80371,5.64423,2.838,13.2159,135,5,
65.0345,3.80371,5.64728,2.838,13.2159,135,5,
65.0345,3.80371,5.6488,2.838,13.2159,135,5,
65.0345,3.80859,5.64423,2.838,13.2159,135,5,
65.0346,3.80829,5.64575,2.838,13.2159,135,5,
65.0346,3.80859,5.64728,2.838,13.2159,135,5,
65.0346,3.81378,5.64575,2.838,13.2159,135,5,
65.0347,3.81378,5.6488,2.838,13.2159,135,5,
65.0347,3.81409,5.64575,2.838,13.2159,135,5,
65.0347,3.81836,5.6488,2.838,13.2159,135,5,
65.0348,3.81866,5.64728,2.838,13.2159,135,5,
65.0348,3.81897,5.64423,2.838,13.2159,135,5,
65.0348,3.82294,5.6427,2.838,13.2159,135,5,
65.0349,3.82263,5.64423,2.838,13.2159,135,5,
65.0349,3.82263,5.64728,2.838,13.2159,135,5,
65.0349,3.82751,5.64575,2.838,13.2159,135,5,
65.035,3.8269,5.64575,2.838,13.2159,135,5,
65.035,3.82843,5.64575,2.838,13.2159,135,5,
65.035,3.83179,5.64728,2.838,13.2159,135,5,
65.0351,3.83209,5.64423,2.838,13.2159,135,5,
65.0351,3.8324,5.64575,2.838,13.2159,135,5,
65.0351,3.83667,5.64728,2.838,13.2159,135,5,
65.0352,3.83636,5.64423,2.838,13.2159,135,5,
65.0352,3.83789,5.64423,2.838,13.2159,135,5,
65.0352,3.84155,5.6488,2.838,13.2159,135,5,
65.0353,3.84125,5.64575,2.838,13.2159,135,5,
65.0353,3.84216,5.64728,2.838,13.2159,135,5,
65.0353,3.84644,5.6488,2.838,13.2159,135,5,
65.0354,3.84644,5.64423,2.838,13.2159,135,5,
65.0354,3.84674,5.64575,2.838,13.2159,135,5,
65.0354,3.85193,5.64575,2.838,13.2159,135,5,
65.0355,3.85162,5.6488,2.838,13.2159,135,5,
65.0355,3.85162,5.64575,2.838,13.2159,135,5,
65.0355,3.85651,5.6427,2.838,13.2159,135,5,
65.0356,3.8562,5.64575,2.838,13.2159,135,5,
65.0356,3.85742,5.64728,2.838,13.2159,135,5,
65.0356,3.86017,5.64728,2.838,13.2159,135,5,
65.0357,3.86169,5.6488,2.838,13.2159,135,5,
65.0357,3.86139,5.6427,2.838,13.2159,135,5,
65.0357,3.8623,5.64728,2.838,16.1987,135,5,
65.0358,3.86597,5.64728,2.838,16.1987,135,5,
65.0358,3.86688,5.64728,2.838,16.1987,135,5,
65.0358,3.86627,5.64423,2.838,16.1987,135,5,
65.0359,3.87115,5.64728,2.838,16.1987,135,5,
65.0359,3.87115,5.64423,2.838,16.1987,135,5,
65.0359,3.87146,5.64575,2.838,16.1987,135,5,
65.036,3.8739,5.64728,2.838,16.1987,135,5,
65.036,3.87604,5.64423,2.838,16.1987,135,5,
65.036,3.87695,5.64728,2.838,16.1987,135,5,
65.0361,3.87726,5.64423,2.838,16.1987,135,5,
65.0361,3.88153,5.64728,2.838,16.1987,135,5,
65.0361,3.88092,5.6488,2.838,16.1987,135,5,
65.0362,3.88092,5.64575,2.838,16.1987,135,5,
65.0362,3.88611,5.64423,2.838,16.1987,135,5,
65.0362,3.8858,5.64575,2.838,16.1987,135,5,
65.0363,3.8855,5.64575,2.838,16.1987,135,5,
65.0363,3.88611,5.64575,2.838,16.1987,135,5,
65.0363,3.89038,5.65186,2.838,16.1987,135,5,
65.0364,3.89069,5.64575,2.838,16.1987,135,5,
65.0364,3.89099,5.64423,2.838,16.1987,135,5,
65.0364,3.89435,5.64575,2.838,16.1987,135,5,
65.0365,3.89496,5.6488,2.838,16.1987,135,5,
65.0365,3.89587,5.64575,2.838,16.1987,135,5,
65.0365,3.89587,5.64423,2.838,16.1987,135,5,
65.0366,3.89954,5.64575,2.838,16.1987,135,5,
65.0366,3.90045,5.64423,2.838,16.1987,135,5,
65.0366,3.90076,5.64423,2.838,16.1987,135,5,
65.0367,3.90137,5.6427,2.838,16.1987,135,5,
65.0367,3.90503,5.6427,2.838,16.1987,135,5,
65.0367,3.90472,5.64728,2.838,16.1987,135,5,
65.0368,3.90533,5.64423,2.838,16.1987,135,5,
65.0368,3.90533,5.64575,2.838,16.1987,135,5,
65.0368,3.91052,5.64423,2.838,16.1987,135,5,
65.0369,3.91113,5.64575,2.838,16.1987,135,5,
65.0369,3.91113,5.64575,2.838,16.1987,135,5,
65.0369,3.91357,5.64575,2.838,16.1987,135,5,
65.037,3.91571,5.64575,2.838,16.1987,135,5,
65.037,3.91479,5.64423,2.838,16.1987,135,5,
65.037,3.9151,5.64423,2.838,16.1987,135,5,
65.0371,3.92029,5.64728,2.838,16.1987,135,5,
65.0371,3.9209,5.6488,2.838,16.1987,135,5,
65.0371,3.92029,5.64575,2.838,16.1987,135,5,
65.0372,3.91968,5.64575,2.838,16.1987,135,5,
65.0372,3.92487,5.64423,2.838,16.1987,135,5,
65.0372,3.92578,5.65186,2.838,16.1987,135,5,
65.0373,3.92517,5.64575,2.838,16.1987,135,5,
65.0373,3.92517,5.64728,2.838,16.1987,135,5,
65.0373,3.92944,5.63812,2.838,16.1987,135,5,
65.0374,3.93005,5.63507,2.838,16.1987,135,5,
65.0374,3.92975,5.63507,2.838,16.1987,135,5,
65.0374,3.93097,5.62897,2.838,16.1987,135,5,
65.0375,3.93494,5.6366,2.838,16.1987,135,5,
65.0375,3.93463,5.63507,2.838,16.1987,135,5,
65.0375,3.93555,5.63507,2.838,16.1987,135,5,
65.0376,3.93463,5.63812,2.838,16.1987,135,5,
65.0376,3.94012,5.63507,2.838,16.1987,135,5,
65.0376,3.94012,5.63355,2.838,16.1987,135,5,
65.0377,3.93982,5.63355,2.838,16.1987,135,5,
65.0377,3.93982,5.63507,2.838,16.1987,135,5,
65.0377,3.9447,5.63507,2.838,16.1987,135,5,
65.0378,3.94562,5.63507,2.838,16.1987,135,5,
65.0378,3.9447,5.63355,2.838,16.1987,135,5,
65.0378,3.94562,5.63507,2.838,16.1987,135,5,
65.0379,3.94989,5.63355,2.838,16.1987,135,5,
65.0379,3.94989,5.63355,2.838,16.1987,135,5,
65.0379,3.95081,5.63355,2.838,16.1987,135,5,
65.038,3.9505,5.63202,2.838,16.1987,135,5,
65.038,3.95508,5.6366,2.838,16.1987,135,5,
65.038,3.95569,5.63202,2.838,16.1987,135,5,
65.0381,3.95477,5.63355,2.838,16.1987,135,5,
65.0381,3.95538,5.63202,2.838,16.1987,135,5,
65.0381,3.95996,5.63355,2.838,16.1987,135,5,
65.0382,3.95966,5.63355,2.838,16.1987,135,5,
65.0382,3.95996,5.62897,2.838,16.1987,135,5,
65.0382,3.95905,5.63355,2.838,16.1987,135,5,
65.0383,3.96454,5.63355,2.838,16.1987,135,5,
65.0383,3.96454,5.62897,2.838,16.1987,135,5,
65.0383,3.96454,5.63202,2.838,16.1987,135,5,
65.0384,3.96454,5.63202,2.838,16.1987,135,5,
65.0384,3.9682,5.63355,2.838,16.1987,135,5,
65.0384,3.96973,5.63507,2.838,16.1987,135,5,
65.0385,3.96973,5.63507,2.838,16.1987,135,5,
65.0385,3.96942,5.6366,2.838,16.1987,135,5,
65.0385,3.97064,5.63355,2.838,16.1987,135,5,
65.0386,3.9743,5.63202,2.838,16.1987,135,5,
65.0386,3.97461,5.63202,2.838,16.1987,135,5,
65.0386,3.97491,5.63812,2.838,16.1987,135,5,
65.0387,3.97461,5.63507,2.838,16.1987,135,5,
65.0387,3.97919,5.6366,2.838,16.1987,135,5,
65.0387,3.97949,5.63507,2.838,16.1987,135,5,
65.0388,3.97888,5.63507,2.838,16.1987,135,5,
65.0388,3.97919,5.63355,2.838,16.1987,135,5,
65.0388,3.98254,5.63202,2.838,16.1987,135,5,
65.0389,3.98468,5.63507,2.838,16.1987,135,5,
65.0389,3.98407,5.63049,2.838,16.1987,135,5,
65.0389,3.98438,5.63507,2.838,16.1987,135,5,
65.039,3.98407,5.63355,2.838,16.1987,135,5,
65.039,3.98895,5.63202,2.838,16.1987,135,5,
65.039,3.98895,5.63202,2.838,16.1987,135,5,
65.0391,3.98834,5.63049,2.838,16.1987,135,5,
65.0391,3.98865,5.63202,2.838,16.1987,135,5,
65.0391,3.98987,5.63202,2.838,16.1987,135,5,
65.0392,3.99414,5.63202,2.838,16.1987,135,5,
65.0392,3.99323,5.63355,2.838,16.1987,135,5,
65.0392,3.99384,5.63507,2.838,16.1987,135,5,
65.0393,3.99414,5.63507,2.838,16.1987,135,5,
65.0393,3.99658,5.63355,2.838,16.1987,135,5,
65.0393,3.99872,5.63355,2.838,16.1987,135,5,
65.0394,3.99902,5.63355,2.838,16.1987,135,5,
65.0394,3.99841,5.63049,2.838,16.1987,135,5,
65.0394,3.99902,5.6366,2.838,16.1987,135,5,
65.0395,4.00299,5.63202,2.838,16.1987,135,5,
65.0395,4.00421,5.63507,2.838,16.1987,135,5,
65.0395,4.0036,5.63355,2.838,16.1987,135,5,
65.0396,4.0033,5.6366,2.838,16.1987,135,5,
65.0396,4.0033,5.63355,2.838,16.1987,135,5,
65.0396,4.00879,5.63355,2.838,16.1987,135,5,
65.0397,4.00818,5.63355,2.838,16.1987,135,5,
65.0397,4.00848,5.63202,2.838,16.1987,135,5,
65.0397,4.00787,5.63202,2.838,16.1987,135,5,
65.0398,4.00818,5.63355,2.838,16.1987,135,5,
65.0398,4.01154,5.63507,2.838,16.1987,135,5,
65.0398,4.01398,5.63202,2.838,16.1987,135,5,
65.0399,4.01367,5.6366,2.838,16.1987,135,5,
65.0399,4.01367,5.63507,2.838,16.1987,135,5,
65.0399,4.01367,5.63202,2.838,16.1987,135,5,
65.04,4.01398,5.63202,2.838,16.1987,135,5,
65.04,4.01825,5.63355,2.838,16.1987,135,5,
65.04,4.01855,5.63355,2.838,16.1987,135,5,
65.0401,4.01917,5.63202,2.838,16.1987,135,5,
65.0401,4.01855,5.6366,2.838,16.1987,135,5,
65.0401,4.01855,5.63507,2.838,16.1987,135,5,
65.0402,4.02313,5.63355,2.838,16.1987,135,5,
65.0402,4.02222,5.63355,2.838,16.1987,135,5,
65.0402,4.02313,5.63507,2.838,16.1987,135,5,
65.0403,4.02283,5.63202,2.838,16.1987,135,5,
65.0403,4.02374,5.63507,2.838,16.1987,135,5,
65.0403,4.02679,5.63202,2.838,16.1987,135,5,
65.0404,4.02771,5.63507,2.838,16.1987,135,5,
65.0404,4.02863,5.63202,2.838,16.1987,135,5,
65.0404,4.02863,5.63507,2.838,16.1987,135,5,
65.0405,4.02832,5.63507,2.838,16.1987,135,5,
65.0405,4.02863,5.63355,2.838,16.1987,135,5,
65.0405,4.0332,5.63202,2.838,16.1987,135,5,
65.0406,4.0332,5.63202,2.838,16.1987,135,5,
65.0406,4.0332,5.63507,2.838,16.1987,135,5,
65.0406,4.0332,5.63355,2.838,16.1987,135,5,
65.0407,4.03229,5.63507,2.838,16.1987,135,5,
65.0407,4.03351,5.63202,2.838,16.1987,135,5,
65.0407,4.03717,5.63202,2.838,16.1987,135,5,
65.0408,4.03839,5.63507,2.838,16.1987,135,5,
65.0408,4.03778,5.6366,2.838,16.1987,135,5,
65.0408,4.03839,5.63355,2.838,16.1987,135,5,
65.0409,4.03778,5.63202,2.838,16.1987,135,5,
65.0409,4.03839,5.63355,2.838,16.1987,135,5,
65.0409,4.03931,5.63202,2.838,16.1987,135,5,
65.041,4.04297,5.63355,2.838,16.1987,135,5,
65.041,4.04266,5.63202,2.838,16.1987,135,5,
65.041,4.04327,5.63507,2.838,16.1987,135,5,
65.0411,4.04236,5.6366,2.838,16.1987,135,5,
65.0411,4.04297,5.63202,2.838,16.1987,135,5,
65.0411,4.04297,5.6366,2.838,16.1987,135,5,
65.0412,4.04724,5.63049,2.838,16.1987,135,5,
65.0412,4.04785,5.63355,2.838,16.1987,135,5,
65.0412,4.04846,5.6366,2.838,16.1987,135,5,
65.0413,4.04846,5.63507,2.838,16.1987,135,5,
65.0413,4.04755,5.63202,2.838,16.1987,135,5,
65.0413,4.04755,5.63202,2.838,16.1987,135,5,
65.0414,4.04816,5.63202,2.838,16.1987,135,5,
65.0414,4.05212,5.63202,2.838,16.1987,135,5,
65.0414,4.05273,5.6366,2.838,16.1987,135,5,
65.0415,4.05273,5.6366,2.838,16.1987,135,5,
65.0415,4.05365,5.63202,2.838,16.1987,135,5,
65.0415,4.05212,5.63355,2.838,16.1987,135,5,
65.0416,4.05334,5.63202,2.838,16.1987,135,5,
65.0416,4.05273,5.63355,2.838,16.1987,135,5,
65.0416,4.05609,5.63812,2.838,16.1987,135,5,
65.0417,4.05762,5.63507,2.838,16.1987,135,5,
65.0417,4.05823,5.6366,2.838,16.1987,135,5,
65.0417,4.05823,5.6366,2.838,16.1987,135,5,
65.0418,4.05762,5.63507,2.838,16.1987,135,5,
65.0418,4.05792,5.63507,2.838,16.1987,135,5,
65.0418,4.05792,5.63507,2.838,16.1987,135,5,
65.0419,4.05792,5.63202,2.838,16.1987,135,5,
65.0419,4.0625,5.6366,2.838,16.1987,135,5,
65.0419,4.06311,5.63507,2.838,16.1987,135,5,
65.042,4.0625,5.63202,2.838,16.1987,135,5,
65.042,4.06281,5.63507,2.838,16.1987,135,5,
65.042,4.06311,5.63507,2.838,16.1987,135,5,
65.0421,4.06219,5.63202,2.838,16.1987,135,5,
65.0421,4.06281,5.63202,2.838,16.1987,135,5,
65.0421,4.06281,5.63355,2.838,16.1987,135,5,
65.0422,4.06555,5.63355,2.838,16.1987,135,5,
65.0422,4.06738,5.63507,2.838,16.1987,135,5,
65.0422,4.0683,5.63355,2.838,16.1987,135,5,
65.0423,4.06708,5.63355,2.838,16.1987,135,5,
65.0423,4.06738,5.63202,2.838,16.1987,135,5,
65.0423,4.06738,5.63202,2.838,16.1987,135,5,
65.0424,4.06769,5.6366,2.838,16.1987,135,5,
65.0424,4.06677,5.63355,2.838,16.1987,135,5,
65.0424,4.06708,5.63507,2.838,16.1987,135,5,
65.0425,4.07074,5.63507,2.838,16.1987,135,5,
65.0425,4.07257,5.6366,2.838,16.1987,135,5,
65.0425,4.07196,5.63355,2.838,16.1987,135,5,
65.0426,4.07318,5.63507,2.838,16.1987,135,5,
65.0426,4.07257,5.6366,2.838,16.1987,135,5,
65.0426,4.07288,5.63202,2.838,16.1987,135,5,
65.0427,4.07318,5.6366,2.838,16.1987,135,5,
65.0427,4.07227,5.63507,2.838,16.1987,135,5,
65.0427,4.07196,5.63507,2.838,16.1987,135,5,
65.0428,4.07227,5.63507,2.838,16.1987,135,5,
65.0428,4.07715,5.63355,2.838,16.1987,135,5,
65.0428,4.07715,5.63202,2.838,16.1987,135,5,
65.0429,4.07745,5.63355,2.838,16.1987,135,5,
65.0429,4.07776,5.63049,2.838,16.1987,135,5,
65.0429,4.07715,5.63812,2.838,16.1987,135,5,
65.043,4.07745,5.63507,2.838,16.1987,135,5,
65.043,4.07806,5.63355,2.838,16.1987,135,5,
65.043,4.07745,5.63202,2.838,16.1987,135,5,
65.0431,4.07745,5.63202,2.838,16.1987,135,5,
65.0431,4.07776,5.63202,2.838,16.1987,135,5,
65.0431,4.07745,5.63355,2.838,16.1987,135,5,
65.0432,4.08203,5.63202,2.838,16.1987,135,5,
65.0432,4.08203,5.6366,2.838,16.1987,135,5,
65.0432,4.08295,5.63507,2.838,16.1987,135,5,
65.0433,4.08295,5.63507,2.838,16.1987,135,5,
65.0433,4.08234,5.63355,2.838,16.1987,135,5,
65.0433,4.08295,5.63355,2.838,16.1987,135,5,
65.0434,4.08234,5.63355,2.838,16.1987,135,5,
65.0434,4.08203,5.63355,2.838,16.1987,135,5,
65.0434,4.08234,5.63355,2.838,16.1987,135,5,
65.0435,4.08264,5.63812,2.838,16.1987,135,5,
65.0435,4.08203,5.6366,2.838,16.1987,135,5,
65.0435,4.08203,5.63355,2.838,16.1987,135,5,
65.0436,4.086,5.6366,2.838,16.1987,135,5,
65.0436,4.08691,5.63202,2.838,16.1987,135,5,
65.0436,4.08722,5.6366,2.838,16.1987,135,5,
65.0437,4.08722,5.63507,2.838,16.1987,135,5,
65.0437,4.08691,5.6366,2.838,16.1987,135,5,
65.0437,4.08752,5.63355,2.838,16.1987,135,5,
65.0438,4.08691,5.6366,2.838,16.1987,135,5,
65.0438,4.08813,5.63202,2.838,16.1987,135,5,
65.0438,4.0863,5.63507,2.838,16.1987,135,5,
65.0439,4.08691,5.63049,2.838,16.1987,135,5,
65.0439,4.08752,5.63202,2.838,16.1987,135,5,
65.0439,4.08722,5.63202,2.838,16.1987,135,5,
65.044,4.08661,5.63049,2.838,16.1987,135,5,
65.044,4.08752,5.63507,2.838,16.1987,135,5,
65.044,4.08722,5.63355,2.838,16.1987,135,5,
65.0441,4.08997,5.63355,2.838,16.1987,135,5,
65.0441,4.09241,5.63355,2.838,16.1987,135,5,
65.0441,4.0921,5.6366,2.838,16.1987,135,5,
65.0442,4.0921,5.6366,2.838,16.1987,135,5,
65.0442,4.0921,5.63507,2.838,16.1987,135,5,
65.0442,4.09271,5.63355,2.838,16.1987,135,5,
65.0443,4.09241,5.63507,2.838,16.1987,135,5,
65.0443,4.09119,5.62439,2.838,16.1987,135,5,
65.0443,4.0921,5.61981,2.838,16.1987,135,5,
65.0444,4.0918,5.62134,2.838,16.1987,135,5,
65.0444,4.0918,5.62286,2.838,16.1987,135,5,
65.0444,4.0918,5.62439,2.838,16.1987,135,5,
65.0445,4.0918,5.62439,2.838,16.1987,135,5,
65.0445,4.0918,5.62134,2.838,16.1987,135,5,
65.0445,4.09241,5.62286,2.838,16.1987,135,5,
65.0446,4.0918,5.62134,2.838,16.1987,135,5,
65.0446,4.0918,5.62134,2.838,16.1987,135,5,
65.0446,4.09119,5.62286,2.838,16.1987,135,5,
65.0447,4.0921,5.62134,2.838,16.1987,135,5,
65.0447,4.09668,5.61981,2.838,16.1987,135,5,
65.0447,4.09729,5.61829,2.838,16.1987,135,5,
65.0448,4.09698,5.62134,2.838,16.1987,135,5,
65.0448,4.09668,5.62439,2.838,16.1987,135,5,
65.0448,4.09698,5.61981,2.838,16.1987,135,5,
65.0449,4.09637,5.62134,2.838,16.1987,135,5,
65.0449,4.0976,5.61829,2.838,16.1987,135,5,
65.0449,4.09698,5.62286,2.838,16.1987,135,5,
65.045,4.09698,5.62134,2.838,16.1987,135,5,
65.045,4.09729,5.62134,2.838,16.1987,135,5,
65.045,4.09698,5.61981,2.838,16.1987,135,5,
65.0451,4.09637,5.62134,2.838,16.1987,135,5,
65.0451,4.09668,5.61981,2.838,16.1987,135,5,
65.0451,4.09729,5.61981,2.838,16.1987,135,5,
65.0452,4.09668,5.62286,2.838,16.1987,135,5,
65.0452,4.09698,5.62134,2.838,16.1987,135,5,
65.0452,4.09668,5.61829,2.838,16.1987,135,5,
65.0453,4.09668,5.62134,2.838,16.1987,135,5,
65.0453,4.09668,5.62286,2.838,16.1987,135,5,
65.0453,4.09698,5.61981,2.838,16.1987,135,5,
65.0454,4.09668,5.62286,2.838,16.1987,135,5,
65.0454,4.09698,5.61981,2.838,16.1987,135,5,
65.0454,4.09698,5.62286,2.838,16.1987,135,5,
65.0455,4.0979,5.62592,2.838,16.1987,135,5,
65.0455,4.0976,5.62286,2.838,16.1987,135,5,
65.0455,4.09821,5.62134,2.838,16.1987,135,5,
65.0456,4.10309,5.62134,2.838,16.1987,135,5,
65.0456,4.10248,5.62134,2.838,16.1987,135,5,
65.0456,4.10217,5.61981,2.838,16.1987,135,5,
65.0457,4.10309,5.61829,2.838,16.1987,135,5,
65.0457,4.10278,5.61981,2.838,16.1987,135,5,
65.0457,4.10278,5.62286,2.838,16.1987,135,5,
65.0458,4.10278,5.61981,2.838,16.1987,135,5,
65.0458,4.10278,5.62286,2.838,16.1987,135,5,
65.0458,4.10278,5.61981,2.838,16.1987,135,5,
65.0459,4.10248,5.61981,2.838,16.1987,135,5,
65.0459,4.10309,5.62286,2.838,16.1987,135,5,
65.0459,4.10309,5.61981,2.838,16.1987,135,5,
65.046,4.10217,5.61981,2.838,16.1987,135,5,
65.046,4.10187,5.61981,2.838,16.1987,135,5,
65.046,4.10187,5.62286,2.838,16.1987,135,5,
65.0461,4.10187,5.62286,2.838,16.1987,135,5,
65.0461,4.10187,5.62439,2.838,16.1987,135,5,
65.0461,4.10095,5.62286,2.838,16.1987,135,5,
65.0462,4.10156,5.61829,2.838,16.1987,135,5,
65.0462,4.10126,5.62286,2.838,16.1987,135,5,
65.0462,4.10156,5.62286,2.838,16.1987,135,5,
65.0463,4.10156,5.61981,2.838,16.1987,135,5,
65.0463,4.10187,5.62286,2.838,16.1987,135,5,
65.0463,4.10156,5.62439,2.838,16.1987,135,5,
65.0464,4.10187,5.61981,2.838,16.1987,135,5,
65.0464,4.10126,5.62286,2.838,16.1987,135,5,
65.0464,4.10095,5.62134,2.838,16.1987,135,5,
65.0465,4.10156,5.61981,2.838,16.1987,135,5,
65.0465,4.10156,5.62286,2.838,16.1987,135,5,
65.0465,4.10126,5.61981,2.838,16.1987,135,5,
65.0466,4.10187,5.62286,2.838,16.1987,135,5,
65.0466,4.10156,5.62286,2.838,16.1987,135,5,
65.0466,4.10217,5.62286,2.838,16.1987,135,5,
65.0467,4.10156,5.62134,2.838,16.1987,135,5,
65.0467,4.10217,5.61981,2.838,16.1987,135,5,
65.0467,4.10217,5.61981,2.838,16.1987,135,5,
65.0468,4.10156,5.61981,2.838,16.1987,135,5,
65.0468,4.10187,5.62286,2.838,16.1987,135,5,
65.0468,4.10187,5.61829,2.838,16.1987,135,5,
65.0469,4.10156,5.62286,2.838,16.1987,135,5,
65.0469,4.10126,5.62134,2.838,16.1987,135,5,
65.0469,4.10187,5.62134,2.838,16.1987,135,5,
65.047,4.10187,5.62134,2.838,16.1987,135,5,
65.047,4.10217,5.62134,2.838,16.1987,135,5,
65.047,4.10156,5.62134,2.838,16.1987,135,5,
65.0471,4.10187,5.62286,2.838,16.1987,135,5,
65.0471,4.10187,5.62134,2.838,16.1987,135,5,
65.0471,4.10156,5.61981,2.838,16.1987,135,5,
65.0472,4.10156,5.62286,2.838,16.1987,135,5,
65.0472,4.10095,5.62134,2.838,16.1987,135,5,
65.0472,4.10156,5.62286,2.838,16.1987,135,5,
65.0473,4.10217,5.62134,2.838,16.1987,135,5,
65.0473,4.10156,5.61981,2.838,16.1987,135,5,
65.0473,4.10156,5.62134,2.838,16.1987,135,5,
65.0474,4.10187,5.62134,2.838,16.1987,135,5,
65.0474,4.10217,5.62134,2.838,16.1987,135,5,
65.0474,4.10187,5.62286,2.838,16.1987,135,5,
65.0475,4.10187,5.62286,2.838,16.1987,135,5,
65.0475,4.10187,5.62134,2.838,16.1987,135,5,
65.0475,4.10248,5.61981,2.838,16.1987,135,5,
65.0476,4.10095,5.62286,2.838,16.1987,135,5,
65.0476,4.10156,5.62744,2.838,16.1987,135,5,
65.0476,4.10187,5.62134,2.838,16.1987,135,5,
65.0477,4.10187,5.62134,2.838,16.1987,135,5,
65.0477,4.10217,5.62134,2.838,16.1987,135,5,
65.0477,4.10217,5.62286,2.838,16.1987,135,5,
65.0478,4.10248,5.62439,2.838,16.1987,135,5,
65.0478,4.10126,5.61981,2.838,16.1987,135,5,
65.0478,4.10248,5.62134,2.838,16.1987,135,5,
65.0479,4.10156,5.61829,2.838,16.1987,135,5,
65.0479,4.10217,5.62286,2.838,16.1987,135,5,
65.0479,4.10248,5.61981,2.838,16.1987,135,5,
65.048,4.10156,5.62134,2.838,16.1987,135,5,
65.048,4.10156,5.62439,2.838,16.1987,135,5,
65.048,4.10126,5.62134,2.838,16.1987,135,5,
65.0481,4.10156,5.61981,2.838,16.1987,135,5,
65.0481,4.10217,5.62439,2.838,16.1987,135,5,
65.0481,4.10248,5.61981,2.838,16.1987,135,5,
65.0482,4.10217,5.62286,2.838,16.1987,135,5,
65.0482,4.10248,5.62134,2.838,16.1987,135,5,
65.0482,4.10217,5.62286,2.838,16.1987,135,5,
65.0483,4.10187,5.62134,2.838,16.1987,135,5,
65.0483,4.10187,5.61981,2.838,16.1987,135,5,
65.0483,4.10156,5.62439,2.838,16.1987,135,5,
65.0484,4.10278,5.62592,2.838,16.1987,135,5,
65.0484,4.10217,5.61981,2.838,16.1987,135,5,
65.0484,4.10217,5.62286,2.838,16.1987,135,5,
65.0485,4.10187,5.62134,2.838,16.1987,135,5,
65.0485,4.10217,5.61981,2.838,16.1987,135,5,
65.0485,4.10187,5.62134,2.838,16.1987,135,5,
65.0486,4.10156,5.62134,2.838,16.1987,135,5,
65.0486,4.10156,5.61981,2.838,16.1987,135,5,
65.0486,4.10217,5.62439,2.838,16.1987,135,5,
65.0487,4.10156,5.62134,2.838,16.1987,135,5,
65.0487,4.10217,5.62286,2.838,16.1987,135,5,
65.0487,4.10217,5.62592,2.838,16.1987,135,5,
65.0488,4.10126,5.62286,2.838,16.1987,135,5,
65.0488,4.10156,5.62286,2.838,16.1987,135,5,
65.0488,4.10187,5.62439,2.838,16.1987,135,5,
65.0489,4.10217,5.62134,2.838,16.1987,135,5,
65.0489,4.10217,5.61981,2.838,16.1987,135,5,
65.0489,4.10217,5.62134,2.838,16.1987,135,5,
65.049,4.10095,5.62286,2.838,16.1987,135,5,
65.049,4.09698,5.62286,2.838,16.1987,135,5,
65.049,4.09729,5.62286,2.838,16.1987,135,5,
65.0491,4.09698,5.62134,2.838,16.1987,135,5,
65.0491,4.09729,5.62286,2.838,16.1987,135,5,
65.0491,4.09729,5.62134,2.838,16.1987,135,5,
65.0492,4.09668,5.62592,2.838,16.1987,135,5,
65.0492,4.09698,5.62134,2.838,16.1987,135,5,
65.0492,4.09668,5.62134,2.838,16.1987,135,5,
65.0493,4.09698,5.61981,2.838,16.1987,135,5,
65.0493,4.09698,5.62439,2.838,16.1987,135,5,
65.0493,4.09668,5.62134,2.838,16.1987,135,5,
65.0494,4.09607,5.62134,2.838,16.1987,135,5,
65.0494,4.09729,5.62134,2.838,16.1987,135,5,
65.0494,4.09637,5.62134,2.838,16.1987,135,5,
65.0495,4.09698,5.62134,2.838,16.1987,135,5,
65.0495,4.09729,5.62286,2.838,16.1987,135,5,
65.0495,4.09668,5.62134,2.838,16.1987,135,5,
65.0496,4.09668,5.62286,2.838,16.1987,135,5,
65.0496,4.09607,5.62286,2.838,16.1987,135,5,
65.0496,4.09729,5.62134,2.838,16.1987,135,5,
65.0497,4.09698,5.61981,2.838,16.1987,135,5,
65.0497,4.09668,5.61981,2.838,16.1987,135,5,
65.0497,4.09698,5.61981,2.838,16.1987,135,5,
65.0498,4.0921,5.62286,2.838,16.1987,135,5,
65.0498,4.0921,5.61981,2.838,16.1987,135,5,
65.0498,4.0918,5.62286,2.838,16.1987,135,5,
65.0499,4.0918,5.62134,2.838,16.1987,135,5,
65.0499,4.0918,5.62134,2.838,16.1987,135,5,
65.0499,4.0921,5.61981,2.838,16.1987,135,5,
65.05,4.09241,5.62134,2.838,16.1987,135,5,
65.05,4.0921,5.60913,2.838,16.1987,135,5,
65.05,4.09149,5.60913,2.838,16.1987,135,5,
65.0501,4.09149,5.61218,2.838,16.1987,135,5,
65.0501,4.0918,5.61218,2.838,16.1987,135,5,
65.0501,4.0921,5.61218,2.838,16.1987,135,5,
65.0502,4.0918,5.61066,2.838,16.1987,135,5,
65.0502,4.09241,5.61066,2.838,16.1987,135,5,
65.0502,4.09271,5.60913,2.838,16.1987,135,5,
65.0503,4.0921,5.61218,2.838,16.1987,135,5,
65.0503,4.08661,5.61218,2.838,16.1987,135,5,
65.0503,4.08661,5.61218,2.838,16.1987,135,5,
65.0504,4.08722,5.61066,2.838,16.1987,135,5,
65.0504,4.08752,5.61066,2.838,16.1987,135,5,
65.0504,4.08661,5.60913,2.838,16.1987,135,5,
65.0505,4.08752,5.61218,0.866,16.1987,135,5,
65.0505,4.08691,5.61066,0.866,16.1987,135,5,
65.0505,4.08691,5.60913,0.866,16.1987,135,5,
65.0506,4.08783,5.61218,0.866,16.1987,135,5,
65.0506,4.0863,5.61218,0.866,16.1987,135,5,
65.0506,4.08722,5.60913,0.866,16.1987,135,5,
65.0507,4.08752,5.60913,0.866,16.1987,135,5,
65.0507,4.08722,5.60913,0.866,16.1987,135,5,
65.0507,4.0863,5.60761,0.866,16.1987,135,5,
65.0508,4.08295,5.60913,0.866,16.1987,135,5,
65.0508,4.08142,5.60761,0.866,16.1987,135,5,
65.0508,4.08173,5.60913,0.866,16.1987,135,5,
65.0509,4.08264,5.61371,0.866,16.1987,135,5,
65.0509,4.08264,5.60761,0.866,16.1987,135,5,
65.0509,4.08203,5.60761,0.866,16.1987,135,5,
65.051,4.08173,5.60608,0.866,16.1987,135,5,
65.051,4.08234,5.61218,0.866,16.1987,135,5,
65.051,4.08264,5.60608,0.866,16.1987,135,5,
