5100-SECPT.acq
2 msec/sample
6 channels
RSP, X, RSPEC-R
Volts
EDA, Y, PPGED-R
microsiemens
ECG R-R
Seconds
Respiration Rate
BPM
C7 - EDR
Peaks
C14 - Control
Volts
min,CH1,CH14,CH40,CH42,CH47,CH54,
,91109,91109,91109,91109,91109,91109,
74.3468,2.56805,10.7941,0.334,16.8445,334,5,
74.3468,2.56866,10.7941,0.334,16.8445,334,5,
74.3468,2.57263,10.791,0.334,16.8445,334,5,
74.3469,2.57294,10.7971,0.334,16.8445,334,5,
74.3469,2.57385,10.791,0.334,16.8445,334,5,
74.3469,2.57385,10.7941,0.334,16.8445,334,5,
74.347,2.57355,10.8017,0.334,16.8445,334,5,
74.347,2.57416,10.8047,0.334,16.8445,334,5,
74.347,2.57355,10.8047,0.334,16.8445,334,5,
74.3471,2.57355,10.8017,0.334,16.8445,334,5,
74.3471,2.57385,10.8047,0.334,16.8445,334,5,
74.3471,2.57355,10.8032,0.334,16.8445,334,5,
74.3472,2.57355,10.8017,0.334,16.8445,334,5,
74.3472,2.57355,10.8063,0.334,16.8445,334,5,
74.3472,2.57355,10.8017,0.334,16.8445,334,5,
74.3473,2.57324,10.8063,0.334,16.8445,334,5,
74.3473,2.57416,10.8017,0.334,16.8445,334,5,
74.3473,2.57355,10.8063,0.334,16.8445,334,5,
74.3474,2.57721,10.8078,0.334,16.8445,334,5,
74.3474,2.57782,10.8185,0.334,16.8445,334,5,
74.3474,2.57843,10.8139,0.334,16.8445,334,5,
74.3475,2.57843,10.8185,0.334,16.8445,334,5,
74.3475,2.57874,10.817,0.334,16.8445,334,5,
74.3475,2.57812,10.817,0.334,16.8445,334,5,
74.3476,2.57782,10.8185,0.334,16.8445,334,5,
74.3476,2.57874,10.82,0.334,16.8445,334,5,
74.3476,2.57843,10.8154,0.334,16.8445,334,5,
74.3477,2.57843,10.8154,0.334,16.8445,334,5,
74.3477,2.57812,10.817,0.334,16.8445,334,5,
74.3477,2.57812,10.817,0.334,16.8445,334,5,
74.3478,2.57782,10.8185,0.334,16.8445,334,5,
74.3478,2.57843,10.8292,0.334,16.8445,334,5,
74.3478,2.57874,10.8292,0.334,16.8445,334,5,
74.3479,2.57874,10.8307,0.334,16.8445,334,5,
74.3479,2.57904,10.8276,0.334,16.8445,334,5,
74.3479,2.57874,10.8276,0.334,16.8445,334,5,
74.348,2.57843,10.8292,0.334,16.8445,334,5,
74.348,2.57843,10.8292,0.334,16.8445,334,5,
74.348,2.57843,10.8307,0.334,16.8445,334,5,
74.3481,2.57812,10.8307,0.334,16.8445,334,5,
74.3481,2.5827,10.8292,0.334,16.8445,334,5,
74.3481,2.58301,10.8246,0.334,16.8445,334,5,
74.3482,2.5827,10.8307,0.334,16.8445,334,5,
74.3482,2.58301,10.8383,0.334,16.8445,334,5,
74.3482,2.5827,10.8429,0.334,16.8445,334,5,
74.3483,2.58301,10.8414,0.334,16.8445,334,5,
74.3483,2.58301,10.8444,0.334,16.8445,334,5,
74.3483,2.5827,10.8383,0.334,16.8445,334,5,
74.3484,2.58301,10.8429,0.334,16.8445,334,5,
74.3484,2.58209,10.8429,0.334,16.8445,334,5,
74.3484,2.5827,10.8414,0.334,16.8445,334,5,
74.3485,2.58301,10.8429,0.334,16.8445,334,5,
74.3485,2.58301,10.8398,0.334,16.8445,334,5,
74.3485,2.58331,10.8398,0.334,16.8445,334,5,
74.3486,2.5827,10.8429,0.334,16.8445,334,5,
74.3486,2.58301,10.8521,0.334,16.8445,334,5,
74.3486,2.5827,10.8521,0.334,16.8445,334,5,
74.3487,2.58301,10.8536,0.334,16.8445,334,5,
74.3487,2.5827,10.8536,0.334,16.8445,334,5,
74.3487,2.5827,10.8551,0.334,16.8445,334,5,
74.3488,2.58301,10.8536,0.334,16.8445,334,5,
74.3488,2.58331,10.8582,0.334,16.8445,334,5,
74.3488,2.58301,10.8505,0.334,16.8445,334,5,
74.3489,2.5827,10.8536,0.334,16.8445,334,5,
74.3489,2.5827,10.8521,0.334,16.8445,334,5,
74.3489,2.5827,10.8536,0.334,16.8445,334,5,
74.349,2.5824,10.8521,0.334,16.8445,334,5,
74.349,2.58301,10.8505,0.334,16.8445,334,5,
74.349,2.58331,10.8643,0.334,16.8445,334,5,
74.3491,2.5824,10.8658,0.334,16.8445,334,5,
74.3491,2.58301,10.8643,0.334,16.8445,334,5,
74.3491,2.58301,10.8673,0.334,16.8445,334,5,
74.3492,2.58301,10.8673,0.334,16.8445,334,5,
74.3492,2.5827,10.8658,0.334,16.8445,334,5,
74.3492,2.5824,10.8658,0.334,16.8445,334,5,
74.3493,2.5824,10.8673,0.334,16.8445,334,5,
74.3493,2.58209,10.8658,0.334,16.8445,334,5,
74.3493,2.58331,10.8658,0.334,16.8445,334,5,
74.3494,2.5827,10.8643,0.334,16.8445,334,5,
74.3494,2.5824,10.8658,0.334,16.8445,334,5,
74.3494,2.58301,10.8658,0.334,16.8445,334,5,
74.3495,2.5824,10.878,0.334,16.8445,334,5,
74.3495,2.58331,10.878,0.334,16.8445,334,5,
74.3495,2.58331,10.8795,0.334,16.8445,334,5,
74.3496,2.58301,10.8749,0.334,16.8445,334,5,
74.3496,2.58331,10.8795,0.334,16.8445,334,5,
74.3496,2.58301,10.881,0.334,16.8445,334,5,
74.3497,2.58362,10.8795,0.334,16.8445,334,5,
74.3497,2.58301,10.878,0.334,16.8445,334,5,
74.3497,2.58301,10.8765,0.334,16.8445,334,5,
74.3498,2.58331,10.878,0.334,16.8445,334,5,
74.3498,2.58301,10.878,0.334,16.8445,334,5,
74.3498,2.58301,10.878,0.334,16.8445,334,5,
74.3499,2.5827,10.881,0.334,16.8445,334,5,
74.3499,2.58301,10.878,0.334,16.8445,334,5,
74.3499,2.58331,10.8871,0.334,16.8445,334,5,
74.35,2.58301,10.8917,0.334,16.8445,334,5,
74.35,2.5824,10.8902,0.334,16.8445,334,5,
74.35,2.58362,10.8902,0.334,16.8445,334,5,
74.3501,2.58301,10.8887,0.334,16.8445,334,5,
74.3501,2.58331,10.8917,0.334,16.8445,334,5,
74.3501,2.58301,10.8917,0.334,16.8445,334,5,
74.3502,2.5827,10.8902,0.334,16.8445,334,5,
74.3502,2.58362,10.8917,0.334,16.8445,334,5,
74.3502,2.58301,10.8902,0.334,16.8445,334,5,
74.3503,2.58331,10.8887,0.334,16.8445,334,5,
74.3503,2.58362,10.8902,0.334,16.8445,334,5,
74.3503,2.58331,10.8902,0.334,16.8445,334,5,
74.3504,2.58301,10.8963,0.334,16.8445,334,5,
74.3504,2.58362,10.8871,0.334,16.8445,334,5,
74.3504,2.58301,10.9009,0.334,16.8445,334,5,
74.3505,2.58209,10.9009,0.334,16.8445,334,5,
74.3505,2.58209,10.9039,0.334,16.8445,334,5,
74.3505,2.58331,10.9039,0.334,16.8445,334,5,
74.3506,2.5827,10.9024,0.334,16.8445,334,5,
74.3506,2.58331,10.9039,0.334,16.8445,334,5,
74.3506,2.58331,10.9009,0.334,16.8445,334,5,
74.3507,2.58301,10.9024,0.334,16.8445,334,5,
74.3507,2.58362,10.9024,0.334,16.8445,334,5,
74.3507,2.58209,10.9024,0.334,16.8445,334,5,
74.3508,2.58301,10.9009,0.334,16.8445,334,5,
74.3508,2.58301,10.9024,0.334,16.8445,334,5,
74.3508,2.58362,10.9024,0.334,16.8445,334,5,
74.3509,2.58301,10.9024,0.334,16.8445,334,5,
74.3509,2.58331,10.9146,0.334,16.8445,334,5,
74.3509,2.58331,10.9161,0.334,16.8445,334,5,
74.351,2.58362,10.9146,0.334,16.8445,334,5,
74.351,2.58331,10.9161,0.334,16.8445,334,5,
74.351,2.58301,10.9161,0.334,16.8445,334,5,
74.3511,2.58301,10.9161,0.334,16.8445,334,5,
74.3511,2.5827,10.9161,0.334,16.8445,334,5,
74.3511,2.58209,10.9177,0.334,16.8445,334,5,
74.3512,2.58301,10.9131,0.334,16.8445,334,5,
74.3512,2.58301,10.9146,0.334,16.8445,334,5,
74.3512,2.58301,10.9146,0.334,16.8445,334,5,
74.3513,2.5827,10.9131,0.334,16.8445,334,5,
74.3513,2.5824,10.9146,0.334,16.8445,334,5,
74.3513,2.58331,10.9131,0.334,16.8445,334,5,
74.3514,2.58301,10.9268,0.334,16.8445,334,5,
74.3514,2.58301,10.9238,0.334,16.8445,334,5,
74.3514,2.58301,10.9253,0.334,16.8445,334,5,
74.3515,2.58362,10.9253,0.334,16.8445,334,5,
74.3515,2.5827,10.9268,0.334,16.8445,334,5,
74.3515,2.58301,10.9253,0.334,16.8445,334,5,
74.3516,2.58331,10.9253,0.334,16.8445,334,5,
74.3516,2.58362,10.9268,0.334,16.8445,334,5,
74.3516,2.57843,10.9283,0.334,16.8445,334,5,
74.3517,2.57812,10.9283,0.334,16.8445,334,5,
74.3517,2.57843,10.9299,0.334,16.8445,334,5,
74.3517,2.57843,10.9299,0.334,16.8445,334,5,
74.3518,2.57843,10.9375,0.334,16.8445,334,5,
74.3518,2.57874,10.9375,0.334,16.8445,334,5,
74.3518,2.57843,10.9375,0.334,16.8445,334,5,
74.3519,2.57721,10.9406,0.334,16.8445,334,5,
74.3519,2.57874,10.939,0.334,16.8445,334,5,
74.3519,2.57904,10.936,0.334,16.8445,334,5,
74.352,2.57812,10.9406,0.334,16.8445,334,5,
74.352,2.57874,10.9375,0.334,16.8445,334,5,
74.352,2.57843,10.939,0.334,16.8445,334,5,
74.3521,2.57782,10.9406,0.334,16.8445,334,5,
74.3521,2.57843,10.939,0.334,16.8445,334,5,
74.3521,2.57355,10.9375,0.334,16.8445,334,5,
74.3522,2.57355,10.9512,0.334,16.8445,334,5,
74.3522,2.57324,10.9497,0.334,16.8445,334,5,
74.3522,2.57324,10.9512,0.334,16.8445,334,5,
74.3523,2.57294,10.9467,0.334,16.8445,334,5,
74.3523,2.57294,10.9512,0.334,16.8445,334,5,
74.3523,2.57355,10.9543,0.334,16.8445,334,5,
74.3524,2.57385,10.9512,0.334,16.8445,334,5,
74.3524,2.57385,10.9512,0.334,16.8445,334,5,
74.3524,2.57385,10.9497,0.334,16.8445,334,5,
74.3525,2.56866,10.9482,0.334,16.8445,334,5,
74.3525,2.56836,10.9512,0.334,16.8445,334,5,
74.3525,2.56897,10.9619,0.334,16.8445,334,5,
74.3526,2.56866,10.9619,0.334,16.8445,334,5,
74.3526,2.56836,10.965,0.334,16.8445,334,5,
74.3526,2.56836,10.9634,0.334,16.8445,334,5,
74.3527,2.56866,10.965,0.334,16.8445,334,5,
74.3527,2.56897,10.9634,0.334,16.8445,334,5,
74.3527,2.56744,10.9634,0.334,16.8445,334,5,
74.3528,2.56439,10.9665,0.334,16.8445,334,5,
74.3528,2.56409,10.9619,0.334,16.8445,334,5,
74.3528,2.56378,10.9619,0.334,16.8445,334,5,
74.3529,2.56348,10.9634,0.334,16.8445,334,5,
74.3529,2.56439,10.9634,0.334,16.8445,334,5,
74.3529,2.56348,10.968,0.334,16.8445,334,5,
74.353,2.56378,10.9756,0.334,16.8445,334,5,
74.353,2.5589,10.9741,0.334,16.8445,334,5,
74.353,2.5589,10.9772,0.334,16.8445,334,5,
74.3531,2.5589,10.9772,0.334,16.8445,334,5,
74.3531,2.5589,10.9741,0.334,16.8445,334,5,
74.3531,2.5589,10.9741,0.334,16.8445,334,5,
74.3532,2.5592,10.9756,0.334,16.8445,334,5,
74.3532,2.5589,10.9741,0.334,16.8445,334,5,
74.3532,2.55402,10.9726,0.334,16.8445,334,5,
74.3533,2.55402,10.9772,0.334,16.8445,334,5,
74.3533,2.55402,10.9756,0.334,16.8445,334,5,
74.3533,2.55402,10.9772,0.334,16.8445,334,5,
74.3534,2.55432,10.9802,0.334,16.8445,334,5,
74.3534,2.55371,10.9863,0.334,16.8445,334,5,
74.3534,2.55035,10.9848,0.334,16.8445,334,5,
74.3535,2.54883,10.9863,0.334,16.8445,334,5,
74.3535,2.54913,10.9879,0.334,16.8445,334,5,
74.3535,2.54883,10.9863,0.334,16.8445,334,5,
74.3536,2.54913,10.9879,0.334,16.8445,334,5,
74.3536,2.54944,10.9894,0.334,16.8445,334,5,
74.3536,2.54639,10.9879,0.334,16.8445,334,5,
74.3537,2.54425,10.9894,0.334,16.8445,334,5,
74.3537,2.54425,10.9879,0.334,16.8445,334,5,
74.3537,2.54456,10.9879,0.334,16.8445,334,5,
74.3538,2.54425,10.9863,0.334,16.8445,334,5,
74.3538,2.54395,10.9879,0.334,16.8445,334,5,
74.3538,2.53967,10.9924,0.334,16.8445,334,5,
74.3539,2.53967,11.0016,0.334,16.8445,334,5,
74.3539,2.53998,10.9985,0.334,16.8445,334,5,
74.3539,2.53906,10.9985,0.334,16.8445,334,5,
74.354,2.53937,11.0001,0.334,16.8445,334,5,
74.354,2.53845,10.997,0.334,16.8445,334,5,
74.354,2.53448,10.9985,0.334,16.8445,334,5,
74.3541,2.53387,11.0016,0.334,16.8445,334,5,
74.3541,2.53448,11.0001,0.334,16.8445,334,5,
74.3541,2.53418,10.9985,0.334,16.8445,334,5,
74.3542,2.53448,11.0001,0.334,16.8445,334,5,
74.3542,2.5293,10.9985,0.334,16.8445,334,5,
74.3542,2.52869,11.0016,0.334,16.8445,334,5,
74.3543,2.52899,11.0016,0.334,16.8445,334,5,
74.3543,2.5293,11.0001,0.334,16.8445,334,5,
74.3543,2.5293,10.997,0.334,16.8445,334,5,
74.3544,2.52533,11.0031,0.334,16.8445,334,5,
74.3544,2.52411,11.0138,0.334,16.8445,334,5,
74.3544,2.52472,11.0138,0.334,16.8445,334,5,
74.3545,2.52472,11.0123,0.334,16.8445,334,5,
74.3545,2.52441,11.0123,0.334,16.8445,334,5,
74.3545,2.51923,11.0107,0.334,16.8445,334,5,
74.3546,2.51953,11.0107,0.334,16.8445,334,5,
74.3546,2.51953,11.0123,0.334,16.8445,334,5,
74.3546,2.51953,11.0138,0.334,16.8445,334,5,
74.3547,2.5177,11.0077,0.334,16.8445,334,5,
74.3547,2.51465,11.0138,0.334,16.8445,334,5,
74.3547,2.51495,11.0123,0.334,16.8445,334,5,
74.3548,2.51465,11.0123,0.334,16.8445,334,5,
74.3548,2.51526,11.0123,0.334,16.8445,334,5,
74.3548,2.51038,11.0107,0.334,16.8445,334,5,
74.3549,2.50885,11.0107,0.334,16.8445,334,5,
74.3549,2.50977,11.0123,0.334,16.8445,334,5,
74.3549,2.50916,11.0092,0.334,16.8445,334,5,
74.355,2.50763,11.0138,0.334,16.8445,334,5,
74.355,2.50458,11.026,0.334,16.8445,334,5,
74.355,2.50458,11.0245,0.334,16.8445,334,5,
74.3551,2.50458,11.023,0.334,16.8445,334,5,
74.3551,2.50427,11.0245,0.334,16.8445,334,5,
74.3551,2.5,11.0245,0.334,16.8445,334,5,
74.3552,2.50031,11.026,0.334,16.8445,334,5,
74.3552,2.5,11.023,0.334,16.8445,334,5,
74.3552,2.50031,11.0245,0.334,16.8445,334,5,
74.3553,2.49603,11.026,0.334,16.8445,334,5,
74.3553,2.49542,11.0275,0.334,16.8445,334,5,
74.3553,2.49603,11.023,0.334,16.8445,334,5,
74.3554,2.49542,11.023,0.334,16.8445,334,5,
74.3554,2.49176,11.026,0.334,16.8445,334,5,
74.3554,2.49115,11.026,0.334,16.8445,334,5,
74.3555,2.49115,11.023,0.334,16.8445,334,5,
74.3555,2.49115,11.026,0.334,16.8445,334,5,
74.3555,2.48657,11.0291,0.334,16.8445,334,5,
74.3556,2.48627,11.023,0.334,16.8445,334,5,
74.3556,2.48535,11.0245,0.334,16.8445,334,5,
74.3556,2.48566,11.0352,0.334,16.8445,334,5,
74.3557,2.48047,11.0367,0.334,16.8445,334,5,
74.3557,2.48077,11.0382,0.334,16.8445,334,5,
74.3557,2.48077,11.0367,0.334,16.8445,334,5,
74.3558,2.48016,11.0352,0.334,16.8445,334,5,
74.3558,2.47498,11.0352,0.334,16.8445,334,5,
74.3558,2.4762,11.0367,0.334,16.8445,334,5,
74.3559,2.47498,11.0352,0.334,16.8445,334,5,
74.3559,2.47559,11.0382,0.334,16.8445,334,5,
74.3559,2.4704,11.0367,0.334,16.8445,334,5,
74.356,2.47009,11.0382,0.334,16.8445,334,5,
74.356,2.46979,11.0367,0.334,16.8445,334,5,
74.356,2.46857,11.0382,0.334,16.8445,334,5,
74.3561,2.46521,11.0382,0.334,16.8445,334,5,
74.3561,2.46521,11.0367,0.334,16.8445,334,5,
74.3561,2.46521,11.0352,0.334,16.8445,334,5,
74.3562,2.46338,11.0352,0.334,16.8445,334,5,
74.3562,2.46155,11.0352,0.334,16.8445,334,5,
74.3562,2.46002,11.0352,0.334,16.8445,334,5,
74.3563,2.46033,11.0367,0.334,16.8445,334,5,
74.3563,2.45667,11.0367,0.334,16.8445,334,5,
74.3563,2.45575,11.0489,0.334,16.8445,334,5,
74.3564,2.45483,11.0474,0.334,16.8445,334,5,
74.3564,2.45514,11.0489,0.334,16.8445,334,5,
74.3564,2.45117,11.0489,0.334,16.8445,334,5,
74.3565,2.45148,11.0489,0.334,16.8445,334,5,
74.3565,2.45087,11.0474,0.334,16.8445,334,5,
74.3565,2.45056,11.0504,0.334,16.8445,334,5,
74.3566,2.44537,11.0489,0.334,16.8445,334,5,
74.3566,2.44568,11.0474,0.334,16.8445,334,5,
74.3566,2.44568,11.0489,0.334,16.8445,334,5,
74.3567,2.44415,11.0474,0.334,16.8445,334,5,
74.3567,2.4408,11.0504,0.334,16.8445,334,5,
74.3567,2.44141,11.0474,0.334,16.8445,334,5,
74.3568,2.4408,11.0474,0.334,16.8445,334,5,
74.3568,2.43652,11.0489,0.334,16.8445,334,5,
74.3568,2.43561,11.0474,0.334,16.8445,334,5,
74.3569,2.43622,11.0519,0.334,16.8445,334,5,
74.3569,2.43622,11.0504,0.334,16.8445,334,5,
74.3569,2.43073,11.0474,0.334,16.8445,334,5,
74.357,2.43073,11.0504,0.334,16.8445,334,5,
74.357,2.43164,11.0489,0.334,16.8445,334,5,
74.357,2.4292,11.0504,0.334,16.8445,334,5,
74.3571,2.42615,11.0474,0.334,16.8445,334,5,
74.3571,2.42615,11.0596,0.334,16.8445,334,5,
74.3571,2.42584,11.0641,0.334,16.8445,334,5,
74.3572,2.42157,11.0611,0.334,16.8445,334,5,
74.3572,2.42126,11.0611,0.334,16.8445,334,5,
74.3572,2.42096,11.0611,0.334,16.8445,334,5,
74.3573,2.41943,11.0611,0.334,16.8445,334,5,
74.3573,2.41577,11.058,0.334,16.8445,334,5,
74.3573,2.41699,11.0611,0.334,16.8445,334,5,
74.3574,2.41608,11.0641,0.334,16.8445,334,5,
74.3574,2.41211,11.0611,0.334,16.8445,334,5,
74.3574,2.41211,11.0611,0.334,16.8445,334,5,
74.3575,2.4115,11.0611,0.334,16.8445,334,5,
74.3575,2.40967,11.0641,0.334,16.8445,334,5,
74.3575,2.40692,11.0611,0.334,16.8445,334,5,
74.3576,2.40723,11.0626,0.334,16.8445,334,5,
74.3576,2.40601,11.058,0.334,16.8445,334,5,
74.3576,2.40173,11.0626,0.334,16.8445,334,5,
74.3577,2.40173,11.0641,0.334,16.8445,334,5,
74.3577,2.40234,11.0611,0.334,16.8445,334,5,
74.3577,2.3996,11.0641,0.334,16.8445,334,5,
74.3578,2.39685,11.0611,0.334,16.8445,334,5,
74.3578,2.39685,11.0596,0.334,16.8445,334,5,
74.3578,2.39685,11.0596,0.334,16.8445,334,5,
74.3579,2.39319,11.0626,0.334,16.8445,334,5,
74.3579,2.39197,11.0626,0.334,16.8445,334,5,
74.3579,2.39258,11.0611,0.334,16.8445,334,5,
74.358,2.38953,11.0703,0.334,16.8445,334,5,
74.358,2.38678,11.0748,0.334,16.8445,334,5,
74.358,2.38678,11.0779,0.334,16.8445,334,5,
74.3581,2.38678,11.0718,0.334,16.8445,334,5,
74.3581,2.38251,11.0718,0.334,16.8445,334,5,
74.3581,2.38159,11.0703,0.334,16.8445,334,5,
74.3582,2.3822,11.0718,0.334,16.8445,334,5,
74.3582,2.38007,11.0748,0.334,16.8445,334,5,
74.3582,2.37701,11.0718,0.334,16.8445,334,5,
74.3583,2.37671,11.0718,0.334,16.8445,334,5,
74.3583,2.37732,11.0748,0.334,16.8445,334,5,
74.3583,2.37305,11.0718,0.334,16.8445,334,5,
74.3584,2.37244,11.0687,0.334,16.8445,334,5,
74.3584,2.37213,11.0703,0.334,16.8445,334,5,
74.3584,2.37244,11.0718,0.334,16.8445,334,5,
74.3585,2.36664,11.0733,0.334,16.8445,334,5,
74.3585,2.36694,11.0733,0.334,16.8445,334,5,
74.3585,2.36755,11.0733,0.334,16.8445,334,5,
74.3586,2.36389,11.0779,0.334,16.8445,334,5,
74.3586,2.36298,11.0718,0.334,16.8445,334,5,
74.3586,2.36237,11.0779,0.334,16.8445,334,5,
74.3587,2.36267,11.0733,0.334,16.8445,334,5,
74.3587,2.35748,11.0733,0.334,16.8445,334,5,
74.3587,2.35748,11.0718,0.334,16.8445,334,5,
74.3588,2.35718,11.0718,0.334,16.8445,334,5,
74.3588,2.35718,11.0733,0.334,16.8445,334,5,
74.3588,2.35291,11.0733,0.334,16.8445,334,5,
74.3589,2.35291,11.0687,0.334,16.8445,334,5,
74.3589,2.3526,11.0748,0.334,16.8445,334,5,
74.3589,2.35107,11.0764,0.334,16.8445,334,5,
74.359,2.34772,11.087,0.334,16.8445,334,5,
74.359,2.34772,11.087,0.334,16.8445,334,5,
74.359,2.34802,11.0901,0.334,16.8445,334,5,
74.3591,2.34619,11.087,0.334,16.8445,334,5,
74.3591,2.34344,11.087,0.334,16.8445,334,5,
74.3591,2.34314,11.0855,0.334,16.8445,334,5,
74.3592,2.34314,11.0855,0.334,16.8445,334,5,
74.3592,2.33887,11.0855,0.334,16.8445,334,5,
74.3592,2.33826,11.0825,0.334,16.8445,334,5,
74.3593,2.33795,11.087,0.334,16.8445,334,5,
74.3593,2.33795,11.0886,0.334,16.8445,334,5,
74.3593,2.33368,11.084,0.334,16.8445,334,5,
74.3594,2.33337,11.084,0.334,16.8445,334,5,
74.3594,2.33276,11.0855,0.334,16.8445,334,5,
74.3594,2.33337,11.087,0.334,16.8445,334,5,
74.3595,2.32941,11.0855,0.334,16.8445,334,5,
74.3595,2.32819,11.0855,0.334,16.8445,334,5,
74.3595,2.32849,11.084,0.334,16.8445,334,5,
74.3596,2.32819,11.084,0.334,16.8445,334,5,
74.3596,2.32666,11.0809,0.334,16.8445,334,5,
74.3596,2.3233,11.084,0.334,16.8445,334,5,
74.3597,2.32269,11.0855,0.334,16.8445,334,5,
74.3597,2.3233,11.084,0.334,16.8445,334,5,
74.3597,2.32269,11.0825,0.334,16.8445,334,5,
74.3598,2.31842,11.0855,0.334,16.8445,334,5,
74.3598,2.31842,11.084,0.334,16.8445,334,5,
74.3598,2.31873,11.084,0.334,16.8445,334,5,
74.3599,2.31903,11.087,0.334,16.8445,334,5,
74.3599,2.31323,11.087,0.334,16.8445,334,5,
74.3599,2.31323,11.084,0.334,16.8445,334,5,
74.36,2.31415,11.087,0.334,16.8445,334,5,
74.36,2.31323,11.087,0.334,16.8445,334,5,
74.36,2.30988,11.0855,0.334,16.8445,334,5,
74.3601,2.30896,11.087,0.334,16.8445,334,5,
74.3601,2.30865,11.0855,0.334,16.8445,334,5,
74.3601,2.30835,11.0855,0.334,16.8445,334,5,
74.3602,2.30896,11.0886,0.334,16.8445,334,5,
74.3602,2.30377,11.0855,0.334,16.8445,334,5,
74.3602,2.30408,11.0962,0.334,16.8445,334,5,
74.3603,2.30347,11.0977,0.334,16.8445,334,5,
74.3603,2.30408,11.0992,0.334,16.8445,334,5,
74.3603,2.30194,11.0977,0.334,16.8445,334,5,
74.3604,2.29828,11.0992,0.334,16.8445,334,5,
74.3604,2.29858,11.0947,0.334,16.8445,334,5,
74.3604,2.29889,11.0977,0.334,16.8445,334,5,
74.3605,2.2995,11.0977,0.334,16.8445,334,5,
74.3605,2.29431,11.0992,0.334,16.8445,334,5,
74.3605,2.2934,11.0962,0.334,16.8445,334,5,
74.3606,2.2934,11.1008,0.334,16.8445,334,5,
74.3606,2.29431,11.0962,0.334,16.8445,334,5,
74.3606,2.29431,11.0962,0.334,16.8445,334,5,
74.3607,2.29004,11.0947,0.334,16.8445,334,5,
74.3607,2.28943,11.0992,0.334,16.8445,334,5,
74.3607,2.28912,11.0977,0.334,16.8445,334,5,
74.3608,2.29004,11.0962,0.334,16.8445,334,5,
74.3608,2.28943,11.0977,0.334,16.8445,334,5,
74.3608,2.28729,11.0962,0.334,16.8445,334,5,
74.3609,2.28394,11.0977,0.334,16.8445,334,5,
74.3609,2.28424,11.0962,0.334,16.8445,334,5,
74.3609,2.28485,11.0977,0.334,16.8445,334,5,
74.361,2.28424,11.0962,0.334,16.8445,334,5,
74.361,2.28424,11.0947,0.334,16.8445,334,5,
74.361,2.27966,11.1008,0.334,16.8445,334,5,
74.3611,2.27966,11.0992,0.334,16.8445,334,5,
74.3611,2.27875,11.0962,0.334,16.8445,334,5,
74.3611,2.27936,11.0977,0.334,16.8445,334,5,
74.3612,2.27905,11.0977,0.334,16.8445,334,5,
74.3612,2.27783,11.0962,0.334,16.8445,334,5,
74.3612,2.27478,11.0977,0.334,16.8445,334,5,
74.3613,2.27417,11.0977,0.334,16.8445,334,5,
74.3613,2.27448,11.1008,0.334,16.8445,334,5,
74.3613,2.27448,11.0992,0.334,16.8445,334,5,
74.3614,2.27417,11.0947,0.334,16.8445,334,5,
74.3614,2.27264,11.0977,0.334,16.8445,334,5,
74.3614,2.2699,11.0977,0.334,16.8445,334,5,
74.3615,2.26959,11.0962,0.334,16.8445,334,5,
74.3615,2.26959,11.0977,0.334,16.8445,334,5,
74.3615,2.26898,11.0977,0.334,16.8445,334,5,
74.3616,2.26898,11.0992,0.334,16.8445,334,5,
74.3616,2.26929,11.0977,0.334,16.8445,334,5,
74.3616,2.26562,11.0962,0.334,16.8445,334,5,
74.3617,2.2644,11.0962,0.334,16.8445,334,5,
74.3617,2.26471,11.0992,0.334,16.8445,334,5,
74.3617,2.2644,11.0962,0.334,16.8445,334,5,
74.3618,2.26471,11.0992,0.334,16.8445,334,5,
74.3618,2.26471,11.0962,0.334,16.8445,334,5,
74.3618,2.26471,11.0977,0.334,16.8445,334,5,
74.3619,2.25983,11.0992,0.334,16.8445,334,5,
74.3619,2.25891,11.0992,0.334,16.8445,334,5,
74.3619,2.25952,11.0962,0.334,16.8445,334,5,
74.362,2.25983,11.1053,0.334,16.8445,334,5,
74.362,2.25983,11.113,0.334,16.8445,334,5,
74.362,2.25983,11.1084,0.334,16.8445,334,5,
74.3621,2.25922,11.1069,0.334,16.8445,334,5,
74.3621,2.25616,11.1115,0.334,16.8445,334,5,
74.3621,2.25494,11.1069,0.334,16.8445,334,5,
74.3622,2.25494,11.1099,0.334,16.8445,334,5,
74.3622,2.25433,11.1069,0.334,16.8445,334,5,
74.3622,2.25494,11.113,0.334,16.8445,334,5,
74.3623,2.25464,11.1115,0.334,16.8445,334,5,
74.3623,2.25494,11.1084,0.334,16.8445,334,5,
74.3623,2.25525,11.1115,0.334,16.8445,334,5,
74.3624,2.25311,11.1099,0.334,16.8445,334,5,
74.3624,2.24976,11.1115,0.334,16.8445,334,5,
74.3624,2.24915,11.1115,0.334,16.8445,334,5,
74.3625,2.25006,11.1084,0.334,16.8445,334,5,
74.3625,2.24976,11.1099,0.334,16.8445,334,5,
74.3625,2.25006,11.113,0.334,16.8445,334,5,
74.3626,2.24976,11.1084,0.334,16.8445,334,5,
74.3626,2.24945,11.1099,0.334,16.8445,334,5,
74.3626,2.24976,11.1099,0.334,16.8445,334,5,
74.3627,2.24823,11.1069,0.334,16.8445,334,5,
74.3627,2.24487,11.1099,0.334,16.8445,334,5,
74.3627,2.24487,11.113,0.334,16.8445,334,5,
74.3628,2.24518,11.1115,0.334,16.8445,334,5,
74.3628,2.24457,11.1099,0.334,16.8445,334,5,
74.3628,2.24457,11.1115,0.334,16.8445,334,5,
74.3629,2.24518,11.113,0.334,16.8445,334,5,
74.3629,2.24487,11.1115,0.334,16.8445,334,5,
74.3629,2.24518,11.1099,0.334,16.8445,334,5,
74.363,2.24518,11.1084,0.334,16.8445,334,5,
74.363,2.24457,11.1084,0.334,16.8445,334,5,
74.363,2.23969,11.1099,0.334,16.8445,334,5,
74.3631,2.2403,11.113,0.334,16.8445,334,5,
74.3631,2.24091,11.1099,0.334,16.8445,334,5,
74.3631,2.23999,11.1099,0.334,16.8445,334,5,
74.3632,2.2403,11.1069,0.334,16.8445,334,5,
74.3632,2.23969,11.113,0.334,16.8445,334,5,
74.3632,2.23999,11.1084,0.334,16.8445,334,5,
74.3633,2.24091,11.1115,0.334,16.8445,334,5,
74.3633,2.2403,11.1115,0.334,16.8445,334,5,
74.3633,2.2406,11.1099,0.334,16.8445,334,5,
74.3634,2.23969,11.113,0.334,16.8445,334,5,
74.3634,2.2406,11.1115,0.334,16.8445,334,5,
74.3634,2.23969,11.1069,0.334,16.8445,334,5,
74.3635,2.2348,11.1099,0.334,16.8445,334,5,
74.3635,2.23511,11.1099,0.334,16.8445,334,5,
74.3635,2.23511,11.113,0.334,16.8445,334,5,
74.3636,2.2348,11.1099,0.334,16.8445,334,5,
74.3636,2.23633,11.1099,0.334,16.8445,334,5,
74.3636,2.23511,11.1084,0.334,16.8445,334,5,
74.3637,2.23511,11.1084,0.334,16.8445,334,5,
74.3637,2.23541,11.1099,0.334,16.8445,334,5,
74.3637,2.2348,11.1099,0.334,16.8445,334,5,
74.3638,2.23572,11.1115,0.334,16.8445,334,5,
74.3638,2.23511,11.1099,0.334,16.8445,334,5,
74.3638,2.23541,11.1099,0.334,16.8445,334,5,
74.3639,2.23541,11.1115,0.334,16.8445,334,5,
74.3639,2.23511,11.1115,0.334,16.8445,334,5,
74.3639,2.23541,11.1099,0.334,16.8445,334,5,
74.364,2.23511,11.1145,0.334,16.8445,334,5,
74.364,2.2348,11.1084,0.334,16.8445,334,5,
74.364,2.23541,11.1115,0.334,16.8445,334,5,
74.3641,2.2345,11.1084,0.334,16.8445,334,5,
74.3641,2.23572,11.1145,0.334,16.8445,334,5,
74.3641,2.2348,11.1099,0.334,16.8445,334,5,
74.3642,2.2348,11.1084,0.334,16.8445,334,5,
74.3642,2.2348,11.116,0.334,16.8445,334,5,
74.3642,2.2348,11.1099,0.334,16.8445,334,5,
74.3643,2.23053,11.1115,0.334,16.8445,334,5,
74.3643,2.22992,11.1038,0.334,16.8445,334,5,
74.3643,2.23022,11.1099,0.334,16.8445,334,5,
74.3644,2.23022,11.1099,0.334,16.8445,334,5,
74.3644,2.22992,11.1115,0.334,16.8445,334,5,
74.3644,2.23053,11.113,0.334,16.8445,334,5,
74.3645,2.23022,11.113,0.334,16.8445,334,5,
74.3645,2.23053,11.113,0.334,16.8445,334,5,
74.3645,2.22961,11.1099,0.334,16.8445,334,5,
74.3646,2.23053,11.113,0.334,16.8445,334,5,
74.3646,2.23022,11.1115,0.334,16.8445,334,5,
74.3646,2.22961,11.1099,0.334,16.8445,334,5,
74.3647,2.22961,11.1115,0.334,16.8445,334,5,
74.3647,2.23053,11.1084,0.334,16.8445,334,5,
74.3647,2.22961,11.1053,0.334,16.8445,334,5,
74.3648,2.23083,11.1115,0.334,16.8445,334,5,
74.3648,2.23022,11.1099,0.334,16.8445,334,5,
74.3648,2.22992,11.1069,0.334,16.8445,334,5,
74.3649,2.22992,11.113,0.334,16.8445,334,5,
74.3649,2.23511,11.1115,0.334,16.8445,334,5,
74.3649,2.23541,11.1145,0.334,16.8445,334,5,
74.365,2.2348,11.1084,0.334,16.8445,334,5,
74.365,2.2348,11.1084,0.334,16.8445,334,5,
74.365,2.2345,11.113,0.334,16.8445,334,5,
74.3651,2.23511,11.1084,0.334,16.8445,334,5,
74.3651,2.23511,11.1099,0.334,16.8445,334,5,
74.3651,2.2348,11.1099,0.334,16.8445,334,5,
74.3652,2.2348,11.1115,0.334,16.8445,334,5,
74.3652,2.23511,11.1099,0.334,16.8445,334,5,
74.3652,2.23541,11.1084,0.334,16.8445,334,5,
74.3653,2.23541,11.1115,0.334,16.8445,334,5,
74.3653,2.23541,11.1099,0.334,16.8445,334,5,
74.3653,2.23572,11.113,0.334,16.8445,334,5,
74.3654,2.23541,11.1084,0.334,16.8445,334,5,
74.3654,2.23572,11.1115,0.334,16.8445,334,5,
74.3654,2.23633,11.1099,0.334,16.8445,334,5,
74.3655,2.23572,11.1099,0.334,16.8445,334,5,
74.3655,2.23541,11.113,0.334,16.8445,334,5,
74.3655,2.23633,11.1115,0.334,16.8445,334,5,
74.3656,2.23694,11.1115,0.334,16.8445,334,5,
74.3656,2.23572,11.1099,0.334,16.8445,334,5,
74.3656,2.23602,11.1115,0.334,16.8445,334,5,
74.3657,2.23633,11.1099,0.334,16.8445,334,5,
74.3657,2.2406,11.1115,0.334,16.8445,334,5,
74.3657,2.24091,11.1115,0.334,16.8445,334,5,
74.3658,2.2406,11.1099,0.334,16.8445,334,5,
74.3658,2.23999,11.113,0.334,16.8445,334,5,
74.3658,2.2403,11.1115,0.334,16.8445,334,5,
74.3659,2.23969,11.1099,0.334,16.8445,334,5,
74.3659,2.2406,11.1099,0.334,16.8445,334,5,
74.3659,2.2406,11.1115,0.334,16.8445,334,5,
74.366,2.23907,11.1221,0.334,16.8445,334,5,
74.366,2.23907,11.1221,0.334,16.8445,334,5,
74.366,2.23938,11.1237,0.334,16.8445,334,5,
74.3661,2.23999,11.1221,0.334,16.8445,334,5,
74.3661,2.23969,11.1252,0.334,16.8445,334,5,
74.3661,2.2406,11.1221,0.334,16.8445,334,5,
74.3662,2.24487,11.1221,0.334,16.8445,334,5,
74.3662,2.24518,11.1206,0.334,16.8445,334,5,
74.3662,2.24457,11.1237,0.334,16.8445,334,5,
74.3663,2.24548,11.1252,0.334,16.8445,334,5,
74.3663,2.24487,11.1221,0.334,16.8445,334,5,
74.3663,2.24457,11.1221,0.334,16.8445,334,5,
74.3664,2.24487,11.1221,0.334,16.8445,334,5,
74.3664,2.24487,11.1237,0.334,16.8445,334,5,
74.3664,2.24518,11.1221,0.334,16.8445,334,5,
74.3665,2.24457,11.1237,0.334,16.8445,334,5,
74.3665,2.24426,11.1237,0.334,16.8445,334,5,
74.3665,2.2467,11.1221,0.334,16.8445,334,5,
74.3666,2.24976,11.1237,0.334,16.8445,334,5,
74.3666,2.24945,11.1221,0.334,16.8445,334,5,
74.3666,2.24915,11.1221,0.334,16.8445,334,5,
74.3667,2.24945,11.1221,0.334,16.8445,334,5,
74.3667,2.24915,11.1206,0.334,16.8445,334,5,
74.3667,2.24945,11.1221,0.334,16.8445,334,5,
74.3668,2.24915,11.1176,0.334,16.8445,334,5,
74.3668,2.24945,11.1221,0.334,16.8445,334,5,
74.3668,2.24915,11.1206,0.334,16.8445,334,5,
74.3669,2.24976,11.1191,0.334,16.8445,334,5,
74.3669,2.25433,11.1221,0.334,16.8445,334,5,
74.3669,2.25525,11.1191,0.334,16.8445,334,5,
74.367,2.25494,11.1221,0.334,16.8445,334,5,
74.367,2.25433,11.1221,0.334,16.8445,334,5,
74.367,2.25433,11.1206,0.334,16.8445,334,5,
74.3671,2.25494,11.1206,0.334,16.8445,334,5,
74.3671,2.25494,11.1206,0.334,16.8445,334,5,
74.3671,2.25464,11.1206,0.334,16.8445,334,5,
74.3672,2.25464,11.1221,0.334,16.8445,334,5,
74.3672,2.25647,11.1221,0.334,16.8445,334,5,
74.3672,2.25922,11.1206,0.334,16.8445,334,5,
74.3673,2.25952,11.1206,0.334,16.8445,334,5,
74.3673,2.26013,11.1221,0.334,16.8445,334,5,
74.3673,2.25952,11.1252,0.334,16.8445,334,5,
74.3674,2.25983,11.1206,0.334,16.8445,334,5,
74.3674,2.25952,11.1221,0.334,16.8445,334,5,
74.3674,2.25952,11.1206,0.334,16.8445,334,5,
74.3675,2.25922,11.1206,0.334,16.8445,334,5,
74.3675,2.25952,11.1237,0.334,16.8445,334,5,
74.3675,2.2644,11.1221,0.334,16.8445,334,5,
74.3676,2.26501,11.1221,0.334,16.8445,334,5,
74.3676,2.2644,11.1206,0.334,16.8445,334,5,
74.3676,2.2641,11.1267,0.334,16.8445,334,5,
74.3677,2.26501,11.1221,0.334,16.8445,334,5,
74.3677,2.26471,11.1191,0.334,16.8445,334,5,
74.3677,2.26471,11.1206,0.334,16.8445,334,5,
74.3678,2.2641,11.1237,0.334,16.8445,334,5,
74.3678,2.26379,11.1237,0.334,16.8445,334,5,
74.3678,2.26837,11.1221,0.334,16.8445,334,5,
74.3679,2.26868,11.1267,0.334,16.8445,334,5,
74.3679,2.26929,11.1237,0.334,16.8445,334,5,
74.3679,2.26929,11.1237,0.334,16.8445,334,5,
74.368,2.26868,11.1221,0.334,16.8445,334,5,
74.368,2.26929,11.1191,0.334,16.8445,334,5,
74.368,2.26959,11.1221,0.334,16.8445,334,5,
74.3681,2.26898,11.1221,0.334,16.8445,334,5,
74.3681,2.27142,11.1206,0.334,16.8445,334,5,
74.3681,2.27417,11.1237,0.334,16.8445,334,5,
74.3682,2.27417,11.1221,0.334,16.8445,334,5,
74.3682,2.27478,11.1206,0.334,16.8445,334,5,
74.3682,2.27448,11.116,0.334,16.8445,334,5,
74.3683,2.27417,11.1115,0.334,16.8445,334,5,
74.3683,2.27386,11.1115,0.334,16.8445,334,5,
74.3683,2.27448,11.1069,0.334,16.8445,334,5,
74.3684,2.27386,11.1115,0.334,16.8445,334,5,
74.3684,2.27905,11.1145,0.334,16.8445,334,5,
74.3684,2.27936,11.1084,0.334,16.8445,334,5,
74.3685,2.27905,11.1038,0.334,16.8445,334,5,
74.3685,2.27936,11.1115,0.334,16.8445,334,5,
74.3685,2.27936,11.1099,0.334,16.8445,334,5,
74.3686,2.27905,11.113,0.334,16.8445,334,5,
74.3686,2.27905,11.1115,0.334,16.8445,334,5,
74.3686,2.27966,11.113,0.334,16.8445,334,5,
74.3687,2.28455,11.1099,0.334,16.8445,334,5,
74.3687,2.28424,11.1115,0.334,16.8445,334,5,
74.3687,2.28333,11.1099,0.334,16.8445,334,5,
74.3688,2.28363,11.1115,0.334,16.8445,334,5,
74.3688,2.28424,11.1084,0.334,16.8445,334,5,
74.3688,2.28455,11.1099,0.334,16.8445,334,5,
74.3689,2.28424,11.1099,0.334,16.8445,334,5,
74.3689,2.28394,11.1084,0.334,16.8445,334,5,
74.3689,2.28821,11.1084,0.334,16.8445,334,5,
74.369,2.28882,11.1099,0.334,16.8445,334,5,
74.369,2.28912,11.1084,0.334,16.8445,334,5,
74.369,2.28912,11.1145,0.334,16.8445,334,5,
74.3691,2.28912,11.1069,0.334,16.8445,334,5,
74.3691,2.29004,11.1099,0.334,16.8445,334,5,
74.3691,2.28882,11.1084,0.334,16.8445,334,5,
74.3692,2.28882,11.1084,0.334,16.8445,334,5,
74.3692,2.2937,11.1145,0.334,16.8445,334,5,
74.3692,2.29401,11.1115,0.334,16.8445,334,5,
74.3693,2.29523,11.113,0.334,16.8445,334,5,
74.3693,2.29492,11.1084,0.334,16.8445,334,5,
74.3693,2.29401,11.1084,0.334,16.8445,334,5,
74.3694,2.29462,11.1099,0.334,16.8445,334,5,
74.3694,2.2937,11.1084,0.334,16.8445,334,5,
74.3694,2.29584,11.113,0.334,16.8445,334,5,
74.3695,2.29828,11.1115,0.334,16.8445,334,5,
74.3695,2.29889,11.1115,0.334,16.8445,334,5,
74.3695,2.2995,11.1115,0.334,16.8445,334,5,
74.3696,2.29858,11.113,0.334,16.8445,334,5,
74.3696,2.29919,11.1099,0.334,16.8445,334,5,
74.3696,2.29858,11.1115,0.334,16.8445,334,5,
74.3697,2.29889,11.1115,0.334,16.8445,334,5,
74.3697,2.30377,11.1069,0.334,16.8445,334,5,
74.3697,2.30347,11.1115,0.334,16.8445,334,5,
74.3698,2.30347,11.1069,0.334,16.8445,334,5,
74.3698,2.30377,11.1084,0.334,16.8445,334,5,
74.3698,2.30377,11.1084,0.334,16.8445,334,5,
74.3699,2.30377,11.1115,0.334,16.8445,334,5,
74.3699,2.30377,11.1084,0.334,16.8445,334,5,
74.3699,2.3053,11.1099,0.334,16.8445,334,5,
74.37,2.30835,11.1084,0.334,16.8445,334,5,
74.37,2.30835,11.1115,0.334,16.8445,334,5,
74.37,2.30896,11.1084,0.334,16.8445,334,5,
74.3701,2.30835,11.1099,0.334,16.8445,334,5,
74.3701,2.30927,11.1099,0.334,16.8445,334,5,
74.3701,2.30896,11.1115,0.334,16.8445,334,5,
74.3702,2.30927,11.1115,0.334,16.8445,334,5,
74.3702,2.31415,11.1084,0.334,16.8445,334,5,
74.3702,2.31323,11.1115,0.334,16.8445,334,5,
74.3703,2.31323,11.1069,0.334,16.8445,334,5,
74.3703,2.31354,11.1099,0.334,16.8445,334,5,
74.3703,2.31445,11.1099,0.334,16.8445,334,5,
74.3704,2.31384,11.1084,0.334,16.8445,334,5,
74.3704,2.31293,11.1084,0.334,16.8445,334,5,
74.3704,2.31781,11.1099,0.334,16.8445,334,5,
74.3705,2.31903,11.1099,0.334,16.8445,334,5,
74.3705,2.31842,11.113,0.334,16.8445,334,5,
74.3705,2.31842,11.1084,0.334,16.8445,334,5,
74.3706,2.31842,11.1099,0.334,16.8445,334,5,
74.3706,2.31903,11.1084,0.334,16.8445,334,5,
74.3706,2.31812,11.1099,0.334,16.8445,334,5,
74.3707,2.32361,11.1069,0.334,16.8445,334,5,
74.3707,2.32361,11.1084,0.334,16.8445,334,5,
74.3707,2.3233,11.1084,0.334,16.8445,334,5,
74.3708,2.32361,11.1115,0.334,16.8445,334,5,
74.3708,2.32361,11.1099,0.334,16.8445,334,5,
74.3708,2.32269,11.113,0.334,16.8445,334,5,
74.3709,2.323,11.1115,0.334,16.8445,334,5,
74.3709,2.32727,11.1099,0.334,16.8445,334,5,
74.3709,2.3291,11.113,0.334,16.8445,334,5,
74.371,2.32819,11.1084,0.334,16.8445,334,5,
74.371,2.32819,11.1115,0.334,16.8445,334,5,
74.371,2.32819,11.1099,0.334,16.8445,334,5,
74.3711,2.32819,11.1115,0.334,16.8445,334,5,
74.3711,2.3288,11.1099,0.334,16.8445,334,5,
74.3711,2.33276,11.1084,0.334,16.8445,334,5,
74.3712,2.33307,11.1053,0.334,16.8445,334,5,
74.3712,2.33337,11.1115,0.334,16.8445,334,5,
74.3712,2.33337,11.1099,0.334,16.8445,334,5,
74.3713,2.33368,11.1069,0.334,16.8445,334,5,
74.3713,2.33307,11.1115,0.334,16.8445,334,5,
74.3713,2.33368,11.1084,0.334,16.8445,334,5,
74.3714,2.33795,11.1084,0.334,16.8445,334,5,
74.3714,2.33826,11.1115,0.334,16.8445,334,5,
74.3714,2.33826,11.1115,0.334,16.8445,334,5,
74.3715,2.33795,11.1099,0.334,16.8445,334,5,
74.3715,2.33795,11.113,0.334,16.8445,334,5,
74.3715,2.33795,11.1099,0.334,16.8445,334,5,
74.3716,2.33795,11.1053,0.334,16.8445,334,5,
74.3716,2.34314,11.1099,0.334,16.8445,334,5,
74.3716,2.34283,11.1099,0.334,16.8445,334,5,
74.3717,2.34344,11.1099,0.334,16.8445,334,5,
74.3717,2.34253,11.113,0.334,16.8445,334,5,
74.3717,2.34283,11.1069,0.334,16.8445,334,5,
74.3718,2.34344,11.1099,0.334,16.8445,334,5,
74.3718,2.34436,11.1084,0.334,16.8445,334,5,
74.3718,2.34802,11.1145,0.334,16.8445,334,5,
74.3719,2.34802,11.1099,0.334,16.8445,334,5,
74.3719,2.34741,11.1099,0.334,16.8445,334,5,
74.3719,2.34833,11.1084,0.334,16.8445,334,5,
74.372,2.34833,11.1099,0.334,16.8445,334,5,
74.372,2.34833,11.1099,0.334,16.8445,334,5,
74.372,2.3526,11.1145,0.334,16.8445,334,5,
74.3721,2.3526,11.1084,0.334,16.8445,334,5,
74.3721,2.35321,11.1099,0.334,16.8445,334,5,
74.3721,2.35352,11.113,0.334,16.8445,334,5,
74.3722,2.35321,11.113,0.334,16.8445,334,5,
74.3722,2.35229,11.1115,0.334,16.8445,334,5,
74.3722,2.35687,11.1115,0.334,16.8445,334,5,
74.3723,2.35809,11.1099,0.334,16.8445,334,5,
74.3723,2.3584,11.1099,0.334,16.8445,334,5,
74.3723,2.35779,11.113,0.334,16.8445,334,5,
74.3724,2.3584,11.113,0.334,16.8445,334,5,
74.3724,2.35779,11.1099,0.334,16.8445,334,5,
74.3724,2.35992,11.1115,0.334,16.8445,334,5,
74.3725,2.36267,11.0962,0.334,16.8445,334,5,
74.3725,2.36237,11.0962,0.334,16.8445,334,5,
74.3725,2.36267,11.0992,0.334,16.8445,334,5,
74.3726,2.36298,11.0947,0.334,16.8445,334,5,
74.3726,2.36298,11.0977,0.334,16.8445,334,5,
74.3726,2.3645,11.0992,0.334,16.8445,334,5,
74.3727,2.36816,11.0947,0.334,16.8445,334,5,
74.3727,2.36755,11.0977,0.334,16.8445,334,5,
74.3727,2.36816,11.0992,0.334,16.8445,334,5,
74.3728,2.36755,11.0947,0.334,16.8445,334,5,
74.3728,2.36725,11.0962,0.334,16.8445,334,5,
74.3728,2.36938,11.0947,0.334,16.8445,334,5,
74.3729,2.37274,11.0977,0.334,16.8445,334,5,
74.3729,2.37244,11.0977,0.334,16.8445,334,5,
74.3729,2.37213,11.0992,0.334,16.8445,334,5,
74.373,2.37183,11.0977,0.334,16.8445,334,5,
74.373,2.37244,11.0947,0.334,16.8445,334,5,
74.373,2.37488,11.0947,0.334,16.8445,334,5,
74.3731,2.37732,11.0992,0.334,16.8445,334,5,
74.3731,2.37762,11.0977,0.334,16.8445,334,5,
74.3731,2.37701,11.0962,0.334,16.8445,334,5,
74.3732,2.37793,11.0977,0.334,16.8445,334,5,
74.3732,2.37732,11.0947,0.334,16.8445,334,5,
74.3732,2.38159,11.0962,0.334,16.8445,334,5,
74.3733,2.3822,11.0992,0.334,16.8445,334,5,
74.3733,2.38159,11.0977,0.334,16.8445,334,5,
74.3733,2.3822,11.0947,0.334,16.8445,334,5,
74.3734,2.3819,11.0992,0.334,16.8445,334,5,
74.3734,2.3819,11.0977,0.334,16.8445,334,5,
74.3734,2.38678,11.0992,0.334,16.8445,334,5,
74.3735,2.38739,11.0947,0.334,16.8445,334,5,
74.3735,2.3877,11.0962,0.334,16.8445,334,5,
74.3735,2.38739,11.1008,0.334,16.8445,334,5,
74.3736,2.38739,11.0962,0.334,16.8445,334,5,
74.3736,2.388,11.0962,0.334,16.8445,334,5,
74.3736,2.39166,11.0977,0.334,16.8445,334,5,
74.3737,2.39197,11.0977,0.334,16.8445,334,5,
74.3737,2.39166,11.0977,0.334,16.8445,334,5,
74.3737,2.39166,11.0992,0.334,16.8445,334,5,
74.3738,2.39166,11.0962,0.334,16.8445,334,5,
74.3738,2.39716,11.0992,0.334,16.8445,334,5,
74.3738,2.39685,11.0962,0.334,16.8445,334,5,
74.3739,2.39685,11.0977,0.334,16.8445,334,5,
74.3739,2.39716,11.0962,0.334,16.8445,334,5,
74.3739,2.39746,11.1008,0.334,16.8445,334,5,
74.374,2.39868,11.1008,0.334,16.8445,334,5,
74.374,2.40204,11.0977,0.334,16.8445,334,5,
74.374,2.40234,11.0977,0.334,16.8445,334,5,
74.3741,2.40173,11.0992,0.334,16.8445,334,5,
74.3741,2.40173,11.1008,0.334,16.8445,334,5,
74.3741,2.40234,11.0947,0.334,16.8445,334,5,
74.3742,2.40662,11.0962,0.334,16.8445,334,5,
74.3742,2.40692,11.0977,0.334,16.8445,334,5,
74.3742,2.40631,11.0992,0.334,16.8445,334,5,
74.3743,2.40662,11.0977,0.334,16.8445,334,5,
74.3743,2.40662,11.0962,0.334,16.8445,334,5,
74.3743,2.4115,11.0992,0.334,16.8445,334,5,
74.3744,2.4115,11.0977,0.334,16.8445,334,5,
74.3744,2.41211,11.0977,0.334,16.8445,334,5,
74.3744,2.4115,11.0992,0.334,16.8445,334,5,
74.3745,2.41119,11.0947,0.334,16.8445,334,5,
74.3745,2.41547,11.0962,0.334,16.8445,334,5,
74.3745,2.41669,11.0977,0.334,16.8445,334,5,
74.3746,2.41608,11.0962,0.334,16.8445,334,5,
74.3746,2.41699,11.0992,0.334,16.8445,334,5,
74.3746,2.41699,11.0992,0.334,16.8445,334,5,
74.3747,2.42096,11.0977,0.334,16.8445,334,5,
74.3747,2.42126,11.0962,0.334,16.8445,334,5,
74.3747,2.42188,11.0962,0.334,16.8445,334,5,
74.3748,2.42157,11.0962,0.334,16.8445,334,5,
74.3748,2.42218,11.0992,0.334,16.8445,334,5,
74.3748,2.42523,11.0977,0.334,16.8445,334,5,
74.3749,2.42676,11.0977,0.334,16.8445,334,5,
74.3749,2.42615,11.0947,0.334,16.8445,334,5,
74.3749,2.42645,11.0855,0.334,16.8445,334,5,
74.375,2.42584,11.0855,0.334,16.8445,334,5,
74.375,2.43164,11.0855,0.334,16.8445,334,5,
74.375,2.43256,11.084,0.334,16.8445,334,5,
74.3751,2.43225,11.0855,0.334,16.8445,334,5,
74.3751,2.43256,11.0855,0.334,16.8445,334,5,
74.3751,2.43225,11.084,0.334,16.8445,334,5,
74.3752,2.43652,11.087,0.334,16.8445,334,5,
74.3752,2.43683,11.0855,0.334,16.8445,334,5,
74.3752,2.43744,11.084,0.334,16.8445,334,5,
74.3753,2.43744,11.087,0.334,16.8445,334,5,
74.3753,2.43713,11.0855,0.334,16.8445,334,5,
74.3753,2.44232,11.0855,0.334,16.8445,334,5,
74.3754,2.44171,11.0855,0.334,16.8445,334,5,
74.3754,2.44202,11.0855,0.334,16.8445,334,5,
74.3754,2.44202,11.0855,0.334,16.8445,334,5,
74.3755,2.44385,11.0855,0.334,16.8445,334,5,
74.3755,2.44629,11.0855,0.334,16.8445,334,5,
74.3755,2.44629,11.0855,0.334,16.8445,334,5,
74.3756,2.44629,11.087,0.334,16.8445,334,5,
74.3756,2.44568,11.087,0.334,16.8445,334,5,
74.3756,2.44995,11.084,0.334,16.8445,334,5,
74.3757,2.45056,11.0886,0.334,16.8445,334,5,
74.3757,2.45056,11.0855,0.334,16.8445,334,5,
74.3757,2.45056,11.0855,0.334,16.8445,334,5,
74.3758,2.44965,11.087,0.334,16.8445,334,5,
74.3758,2.45575,11.087,0.334,16.8445,334,5,
74.3758,2.45483,11.0855,0.334,16.8445,334,5,
74.3759,2.45575,11.0886,0.334,16.8445,334,5,
74.3759,2.45636,11.0855,0.334,16.8445,334,5,
74.3759,2.45972,11.0855,0.334,16.8445,334,5,
74.376,2.46063,11.084,0.334,16.8445,334,5,
74.376,2.46033,11.084,0.334,16.8445,334,5,
74.376,2.45972,11.084,0.334,16.8445,334,5,
74.3761,2.46033,11.0855,0.334,16.8445,334,5,
74.3761,2.46552,11.084,0.334,16.8445,334,5,
74.3761,2.4649,11.084,0.334,16.8445,334,5,
74.3762,2.46582,11.087,0.334,16.8445,334,5,
74.3762,2.46582,11.0855,0.334,16.8445,334,5,
74.3762,2.47009,11.087,0.334,16.8445,334,5,
74.3763,2.47009,11.087,0.334,16.8445,334,5,
74.3763,2.46979,11.0855,0.334,16.8445,334,5,
74.3763,2.4704,11.084,0.334,16.8445,334,5,
74.3764,2.47253,11.0855,0.334,16.8445,334,5,
74.3764,2.47498,11.0855,0.334,16.8445,334,5,
74.3764,2.47559,11.087,0.334,16.8445,334,5,
74.3765,2.47498,11.084,0.334,16.8445,334,5,
74.3765,2.47559,11.084,0.334,16.8445,334,5,
74.3765,2.47986,11.0855,0.334,16.8445,334,5,
74.3766,2.48047,11.0855,0.334,16.8445,334,5,
74.3766,2.48077,11.0901,0.334,16.8445,334,5,
74.3766,2.47925,11.0855,0.334,16.8445,334,5,
74.3767,2.48413,11.087,0.334,16.8445,334,5,
74.3767,2.48444,11.084,0.334,16.8445,334,5,
74.3767,2.48474,11.087,0.334,16.8445,334,5,
74.3768,2.48566,11.0733,0.334,16.8445,334,5,
74.3768,2.49023,11.0703,0.334,16.8445,334,5,
74.3768,2.48962,11.0703,0.334,16.8445,334,5,
74.3769,2.48962,11.0718,0.334,16.8445,334,5,
74.3769,2.48962,11.0733,0.334,16.8445,334,5,
74.3769,2.4942,11.0733,0.334,16.8445,334,5,
74.377,2.49542,11.0764,0.334,16.8445,334,5,
74.377,2.49451,11.0764,0.334,16.8445,334,5,
74.377,2.49512,11.0733,0.334,16.8445,334,5,
74.3771,2.49695,11.0764,0.334,16.8445,334,5,
74.3771,2.5,11.0764,0.334,16.8445,334,5,
74.3771,2.50061,11.0718,0.334,16.8445,334,5,
74.3772,2.50031,11.0733,0.334,16.8445,334,5,
74.3772,2.50153,11.0703,0.334,16.8445,334,5,
74.3772,2.50427,11.0703,0.334,16.8445,334,5,
74.3773,2.50519,11.0733,0.334,16.8445,334,5,
74.3773,2.50458,11.0764,0.334,16.8445,334,5,
74.3773,2.50488,11.0718,0.334,16.8445,334,5,
74.3774,2.50977,11.0733,0,16.8445,334,5,
74.3774,2.50916,11.0733,0,16.8445,334,5,
74.3774,2.50946,11.0733,0,16.8445,334,5,
74.3775,2.51007,11.0733,0,16.8445,334,5,
74.3775,2.51404,11.0718,0,16.8445,334,5,
74.3775,2.51434,11.0703,0,16.8445,334,5,
74.3776,2.51434,11.0733,0,16.8445,334,5,
74.3776,2.51434,11.0748,0,16.8445,334,5,
74.3776,2.51831,11.0687,0,16.8445,334,5,
74.3777,2.51953,11.0733,0,16.8445,334,5,
74.3777,2.51984,11.0764,0,16.8445,334,5,
74.3777,2.51801,11.0733,0,16.8445,334,5,
74.3778,2.52136,11.0733,0,16.8445,334,5,
74.3778,2.52472,11.0748,0,16.8445,334,5,
74.3778,2.52441,11.0748,0,16.8445,334,5,
74.3779,2.52441,11.0733,0,16.8445,334,5,
74.3779,2.52441,11.0703,0,16.8445,334,5,
74.3779,2.5293,11.0718,0,16.8445,334,5,
74.378,2.52869,11.0748,0,16.8445,334,5,
74.378,2.5293,11.0733,0,16.8445,334,5,
74.378,2.5296,11.0733,0,16.8445,334,5,
74.3781,2.53326,11.0718,0,16.8445,334,5,
74.3781,2.53479,11.0733,0,16.8445,334,5,
74.3781,2.53479,11.0733,0,16.8445,334,5,
74.3782,2.53418,11.0718,0,16.8445,334,5,
74.3782,2.5354,11.0764,0,16.8445,334,5,
74.3782,2.53937,11.0733,0,16.8445,334,5,
74.3783,2.53937,11.0718,0,16.8445,334,5,
74.3783,2.53906,11.0733,0,16.8445,334,5,
74.3783,2.53906,11.0641,0,16.8445,334,5,
74.3784,2.54303,11.0565,0,16.8445,334,5,
74.3784,2.54486,11.0596,0,16.8445,334,5,
74.3784,2.54425,11.0626,0,16.8445,334,5,
74.3785,2.54456,11.0611,0,16.8445,334,5,
74.3785,2.54578,11.0626,0,16.8445,334,5,
74.3785,2.54883,11.0596,0,16.8445,334,5,
74.3786,2.54944,11.0641,0,16.8445,334,5,
74.3786,2.54913,11.0626,0,16.8445,334,5,
74.3786,2.54883,11.0626,0,16.8445,334,5,
74.3787,2.55341,11.0626,0,16.8445,334,5,
74.3787,2.55402,11.0611,0,16.8445,334,5,
74.3787,2.55463,11.0626,0,16.8445,334,5,
74.3788,2.5531,11.0611,0,16.8445,334,5,
74.3788,2.55371,11.0596,0,16.8445,334,5,
74.3788,2.55829,11.0626,0,16.8445,334,5,
74.3789,2.5589,11.0596,0,16.8445,334,5,
74.3789,2.5589,11.0611,0,16.8445,334,5,
74.3789,2.5589,11.058,0,16.8445,334,5,
74.379,2.56317,11.0611,0,16.8445,334,5,
74.379,2.56348,11.0626,0,16.8445,334,5,
74.379,2.56348,11.0611,0,16.8445,334,5,
74.3791,2.56378,11.0611,0,16.8445,334,5,
74.3791,2.56348,11.0626,0,16.8445,334,5,
74.3791,2.56836,11.0596,0,16.8445,334,5,
74.3792,2.56897,11.058,0,16.8445,334,5,
74.3792,2.56836,11.0611,0,16.8445,334,5,
74.3792,2.56897,11.0641,0,16.8445,334,5,
74.3793,2.56866,11.0626,0,16.8445,334,5,
74.3793,2.57416,11.0611,0,16.8445,334,5,
74.3793,2.57355,11.0596,0,16.8445,334,5,
74.3794,2.57355,11.0596,0,16.8445,334,5,
74.3794,2.57416,11.0626,0,16.8445,334,5,
74.3794,2.57355,11.0611,0,16.8445,334,5,
74.3795,2.57812,11.0596,0,16.8445,334,5,
74.3795,2.57874,11.0611,0,16.8445,334,5,
74.3795,2.57751,11.0611,0,16.8445,334,5,
74.3796,2.57843,11.0611,0,16.8445,334,5,
74.3796,2.57965,11.0596,0,16.8445,334,5,
74.3796,2.5824,11.0611,0,16.8445,334,5,
74.3797,2.5824,11.0596,0,16.8445,334,5,
74.3797,2.5827,11.0611,0,16.8445,334,5,
74.3797,2.58331,11.0626,0,16.8445,334,5,
74.3798,2.5824,11.0641,0,16.8445,334,5,
74.3798,2.58728,11.0611,0,16.8445,334,5,
74.3798,2.58789,11.0626,0,16.8445,334,5,
74.3799,2.58728,11.0489,0,16.8445,334,5,
74.3799,2.58789,11.0504,0,16.8445,334,5,
74.3799,2.58789,11.0474,0,16.8445,334,5,
74.38,2.59308,11.0489,0,16.8445,334,5,
74.38,2.59277,11.0504,0,16.8445,334,5,
74.38,2.59308,11.0474,0,16.8445,334,5,
74.3801,2.59308,11.0458,0,16.8445,334,5,
74.3801,2.59277,11.0504,0,16.8445,334,5,
74.3801,2.59705,11.0474,0,16.8445,334,5,
74.3802,2.59766,11.0504,0,16.8445,334,5,
74.3802,2.59796,11.0519,0,16.8445,334,5,
74.3802,2.59796,11.0489,0,16.8445,334,5,
74.3803,2.59827,11.0474,0,16.8445,334,5,
74.3803,2.59827,11.0504,0,16.8445,334,5,
74.3803,2.60315,11.0489,0,16.8445,334,5,
74.3804,2.60315,11.0474,0,16.8445,334,5,
74.3804,2.60284,11.0504,0,16.8445,334,5,
74.3804,2.60284,11.0504,0,16.8445,334,5,
74.3805,2.60284,11.0458,0,16.8445,334,5,
74.3805,2.6062,11.0489,0,16.8445,334,5,
74.3805,2.60773,11.0489,0,16.8445,334,5,
74.3806,2.60773,11.0489,0,16.8445,334,5,
74.3806,2.60803,11.0474,0,16.8445,334,5,
74.3806,2.60651,11.0474,0,16.8445,334,5,
74.3807,2.60712,11.0474,0,16.8445,334,5,
74.3807,2.6123,11.0504,0,16.8445,334,5,
74.3807,2.61261,11.0504,0,16.8445,334,5,
74.3808,2.6123,11.0474,0,16.8445,334,5,
74.3808,2.61261,11.0489,0,16.8445,334,5,
74.3808,2.612,11.0474,0,16.8445,334,5,
74.3809,2.61261,11.0489,0,16.8445,334,5,
74.3809,2.6178,11.0458,0,16.8445,334,5,
74.3809,2.61749,11.0489,0,16.8445,334,5,
74.381,2.61749,11.0519,0,16.8445,334,5,
74.381,2.6178,11.0489,0,16.8445,334,5,
74.381,2.6178,11.0504,0,16.8445,334,5,
74.3811,2.61749,11.0458,0,16.8445,334,5,
74.3811,2.62299,11.0519,0,16.8445,334,5,
74.3811,2.62268,11.0519,0,16.8445,334,5,
74.3812,2.62238,11.0458,0,16.8445,334,5,
74.3812,2.62268,11.0489,0,16.8445,334,5,
74.3812,2.62238,11.0489,0,16.8445,334,5,
74.3813,2.62451,11.0504,0,16.8445,334,5,
74.3813,2.62726,11.0489,0,16.8445,334,5,
74.3813,2.62726,11.0367,0,16.8445,334,5,
74.3814,2.62756,11.0367,0,16.8445,334,5,
74.3814,2.62756,11.0367,0,16.8445,334,5,
74.3814,2.62726,11.0367,0,16.8445,334,5,
74.3815,2.63092,11.0352,0,16.8445,334,5,
74.3815,2.63245,11.0352,0,16.8445,334,5,
74.3815,2.63245,11.0352,0,16.8445,334,5,
74.3816,2.63214,11.0382,0,16.8445,334,5,
74.3816,2.63245,11.0367,0,16.8445,334,5,
74.3816,2.63367,11.0352,0,16.8445,334,5,
74.3817,2.63672,11.0367,0,16.8445,334,5,
74.3817,2.63672,11.0367,0,16.8445,334,5,
74.3817,2.63702,11.0382,0,16.8445,334,5,
74.3818,2.63763,11.0367,0,16.8445,334,5,
74.3818,2.63702,11.0336,0,16.8445,334,5,
74.3818,2.64191,11.0352,0,16.8445,334,5,
74.3819,2.64252,11.0382,0,16.8445,334,5,
74.3819,2.64221,11.0352,0,16.8445,334,5,
74.3819,2.64191,11.0367,0,16.8445,334,5,
74.382,2.6416,11.0428,0,16.8445,334,5,
74.382,2.64557,11.0367,0,16.8445,334,5,
74.382,2.6474,11.0352,0,16.8445,334,5,
74.3821,2.64679,11.0413,0,16.8445,334,5,
74.3821,2.64679,11.0382,0,16.8445,334,5,
74.3821,2.64709,11.0352,0,16.8445,334,5,
74.3822,2.65076,11.0382,0,16.8445,334,5,
74.3822,2.65228,11.0367,0,16.8445,334,5,
74.3822,2.65198,11.0367,0,16.8445,334,5,
74.3823,2.65198,11.0367,0,16.8445,334,5,
74.3823,2.65198,11.0367,0,16.8445,334,5,
74.3823,2.6535,11.0367,0,16.8445,334,5,
74.3824,2.65625,11.0382,0,16.8445,334,5,
74.3824,2.65656,11.0382,0,16.8445,334,5,
74.3824,2.65625,11.0397,0,16.8445,334,5,
74.3825,2.65656,11.0367,0,16.8445,334,5,
74.3825,2.65625,11.0382,0,16.8445,334,5,
74.3825,2.66174,11.0382,0,16.8445,334,5,
74.3826,2.66174,11.0367,0,16.8445,334,5,
74.3826,2.66144,11.0382,0,16.8445,334,5,
74.3826,2.66174,11.0321,0,16.8445,334,5,
74.3827,2.66174,11.0397,0,16.8445,334,5,
74.3827,2.66571,11.023,0,16.8445,334,5,
74.3827,2.66632,11.0275,0,16.8445,334,5,
74.3828,2.66632,11.023,0,16.8445,334,5,
74.3828,2.66663,11.0214,0,16.8445,334,5,
74.3828,2.66632,11.023,0,16.8445,334,5,
74.3829,2.66846,11.0245,0,16.8445,334,5,
74.3829,2.67212,11.023,0,16.8445,334,5,
74.3829,2.67151,11.0214,0,16.8445,334,5,
74.383,2.67181,11.0275,0,16.8445,334,5,
74.383,2.67181,11.026,0,16.8445,334,5,
74.383,2.67181,11.0245,0,16.8445,334,5,
74.3831,2.67303,11.0245,0,16.8445,334,5,
74.3831,2.67609,11.0245,0,16.8445,334,5,
74.3831,2.67639,11.0245,0,16.8445,334,5,
74.3832,2.67639,11.0245,0,16.8445,334,5,
74.3832,2.67639,11.0245,0,16.8445,334,5,
74.3832,2.67639,11.023,0,16.8445,334,5,
74.3833,2.67578,11.023,0,16.8445,334,5,
74.3833,2.68066,11.026,0,16.8445,334,5,
74.3833,2.68127,11.026,0,16.8445,334,5,
74.3834,2.68097,11.0245,0,16.8445,334,5,
74.3834,2.68097,11.0245,0,16.8445,334,5,
74.3834,2.68097,11.023,0,16.8445,334,5,
74.3835,2.68127,11.026,0,16.8445,334,5,
74.3835,2.68097,11.023,0,16.8445,334,5,
74.3835,2.68555,11.026,0,16.8445,334,5,
74.3836,2.68555,11.023,0,16.8445,334,5,
74.3836,2.68555,11.026,0,16.8445,334,5,
74.3836,2.68585,11.026,0,16.8445,334,5,
74.3837,2.68616,11.026,0,16.8445,334,5,
74.3837,2.68585,11.0245,0,16.8445,334,5,
74.3837,2.68555,11.0245,0,16.8445,334,5,
74.3838,2.68616,11.0275,0,16.8445,334,5,
74.3838,2.69073,11.023,0,16.8445,334,5,
74.3838,2.69073,11.023,0,16.8445,334,5,
74.3839,2.69043,11.0245,0,16.8445,334,5,
74.3839,2.69135,11.0245,0,16.8445,334,5,
74.3839,2.69012,11.0245,0,16.8445,334,5,
74.384,2.68982,11.0245,0,16.8445,334,5,
74.384,2.69104,11.023,0,16.8445,334,5,
74.384,2.69043,11.0184,0,16.8445,334,5,
74.3841,2.69043,11.0123,0,16.8445,334,5,
74.3841,2.69012,11.0168,0,16.8445,334,5,
74.3841,2.69592,11.0123,0,16.8445,334,5,
74.3842,2.69653,11.0153,0,16.8445,334,5,
74.3842,2.69592,11.0153,0,16.8445,334,5,
74.3842,2.69562,11.0138,0,16.8445,334,5,
74.3843,2.69562,11.0123,0,16.8445,334,5,
74.3843,2.69562,11.0138,0,16.8445,334,5,
74.3843,2.69653,11.0123,0,16.8445,334,5,
74.3844,2.69592,11.0123,0,16.8445,334,5,
74.3844,2.69653,11.0123,0,16.8445,334,5,
74.3844,2.69653,11.0123,0,16.8445,334,5,
74.3845,2.69623,11.0077,0,16.8445,334,5,
74.3845,2.69653,11.0123,0,16.8445,334,5,
74.3845,2.69623,11.0138,2.296,13.471,334,5,
74.3846,2.69653,11.0123,2.296,13.471,334,5,
74.3846,2.70203,11.0077,2.296,13.471,334,5,
74.3846,2.70172,11.0138,2.296,13.471,334,5,
74.3847,2.70111,11.0107,2.296,13.471,334,5,
74.3847,2.70142,11.0138,2.296,13.471,334,5,
74.3847,2.70172,11.0123,2.296,13.471,334,5,
74.3848,2.70111,11.0123,2.296,13.471,334,5,
74.3848,2.70142,11.0138,2.296,13.471,334,5,
74.3848,2.70081,11.0123,2.296,13.471,334,5,
74.3849,2.7005,11.0138,2.296,13.471,334,5,
74.3849,2.70081,11.0153,2.296,13.471,334,5,
74.3849,2.7002,11.0138,2.296,13.471,334,5,
74.385,2.7005,11.0138,2.296,13.471,334,5,
74.385,2.7005,11.0138,2.296,13.471,334,5,
74.385,2.70111,11.0107,2.296,13.471,334,5,
74.3851,2.69989,11.0138,2.296,13.471,334,5,
74.3851,2.70081,11.0123,2.296,13.471,334,5,
74.3851,2.70081,11.0123,2.296,13.471,334,5,
74.3852,2.70081,11.0138,2.296,13.471,334,5,
74.3852,2.7005,11.0107,2.296,13.471,334,5,
74.3852,2.7005,11.0123,2.296,13.471,334,5,
74.3853,2.7002,11.0123,2.296,13.471,334,5,
74.3853,2.7002,11.0092,2.296,13.471,334,5,
74.3853,2.70081,10.9985,2.296,13.471,334,5,
74.3854,2.69989,11.0016,2.296,13.471,334,5,
74.3854,2.70081,10.9985,2.296,13.471,334,5,
74.3854,2.69989,10.9985,2.296,13.471,334,5,
74.3855,2.69958,11.0001,2.296,13.471,334,5,
74.3855,2.70081,11.0001,2.296,13.471,334,5,
74.3855,2.7005,10.9985,2.296,13.471,334,5,
74.3856,2.7002,10.9985,2.296,13.471,334,5,
74.3856,2.7005,10.9985,2.296,13.471,334,5,
74.3856,2.7005,11.0001,2.296,13.471,334,5,
74.3857,2.7002,11.0031,2.296,13.471,334,5,
74.3857,2.7002,10.997,2.296,13.471,334,5,
74.3857,2.7002,11.0001,2.296,13.471,334,5,
74.3858,2.7005,10.9985,2.296,13.471,334,5,
74.3858,2.7002,11.0001,2.296,13.471,334,5,
74.3858,2.7002,11.0016,2.296,13.471,334,5,
74.3859,2.7005,11.0031,2.296,13.471,334,5,
74.3859,2.70081,10.9985,2.296,13.471,334,5,
74.3859,2.70081,10.9985,2.296,13.471,334,5,
74.386,2.7005,11.0001,2.296,13.471,334,5,
74.386,2.7002,11.0001,2.296,13.471,334,5,
74.386,2.70081,10.9985,2.296,13.471,334,5,
74.3861,2.7005,10.9985,2.296,13.471,334,5,
74.3861,2.69989,11.0031,2.296,13.471,334,5,
74.3861,2.7002,11.0001,2.296,13.471,334,5,
74.3862,2.70081,11.0001,2.296,13.471,334,5,
74.3862,2.7002,11.0016,2.296,13.471,334,5,
74.3862,2.70111,11.0001,2.296,13.471,334,5,
74.3863,2.7002,10.9985,2.296,13.471,334,5,
74.3863,2.69989,11.0016,2.296,13.471,334,5,
74.3863,2.7002,11.0031,2.296,13.471,334,5,
74.3864,2.7005,11.0001,2.296,13.471,334,5,
74.3864,2.7005,11.0016,2.296,13.471,334,5,
74.3864,2.7005,11.0016,2.296,13.471,334,5,
74.3865,2.7005,11.0001,2.296,13.471,334,5,
74.3865,2.7002,11.0001,2.296,13.471,334,5,
74.3865,2.69531,11.0001,2.296,13.471,334,5,
74.3866,2.69562,11.0001,2.296,13.471,334,5,
74.3866,2.69592,11.0001,2.296,13.471,334,5,
74.3866,2.69623,11.0031,2.296,13.471,334,5,
74.3867,2.69562,10.9863,2.296,13.471,334,5,
74.3867,2.69562,10.9879,2.296,13.471,334,5,
74.3867,2.69592,10.9863,2.296,13.471,334,5,
74.3868,2.6947,10.9909,2.296,13.471,334,5,
74.3868,2.69531,10.9894,2.296,13.471,334,5,
74.3868,2.69501,10.9879,2.296,13.471,334,5,
74.3869,2.69562,10.9894,2.296,13.471,334,5,
74.3869,2.69592,10.9909,2.296,13.471,334,5,
74.3869,2.69531,10.9879,2.296,13.471,334,5,
74.387,2.69562,10.9894,2.296,13.471,334,5,
74.387,2.69592,10.9863,2.296,13.471,334,5,
74.387,2.69196,10.9879,2.296,13.471,334,5,
74.3871,2.69012,10.9879,2.296,13.471,334,5,
74.3871,2.68982,10.9879,2.296,13.471,334,5,
74.3871,2.69073,10.9863,2.296,13.471,334,5,
74.3872,2.69043,10.9879,2.296,13.471,334,5,
74.3872,2.69073,10.9863,2.296,13.471,334,5,
74.3872,2.69043,10.9894,2.296,13.471,334,5,
74.3873,2.69073,10.9894,2.296,13.471,334,5,
74.3873,2.69104,10.9894,2.296,13.471,334,5,
74.3873,2.68982,10.9863,2.296,13.471,334,5,
74.3874,2.69073,10.9848,2.296,13.471,334,5,
74.3874,2.68921,10.9909,2.296,13.471,334,5,
74.3874,2.68555,10.9894,2.296,13.471,334,5,
74.3875,2.68616,10.9894,2.296,13.471,334,5,
74.3875,2.68585,10.9894,2.296,13.471,334,5,
74.3875,2.68585,10.9879,2.296,13.471,334,5,
74.3876,2.68585,10.9879,2.296,13.471,334,5,
74.3876,2.68494,10.9863,2.296,13.471,334,5,
74.3876,2.68585,10.9879,2.296,13.471,334,5,
74.3877,2.68524,10.9848,2.296,13.471,334,5,
74.3877,2.68616,10.9863,2.296,13.471,334,5,
74.3877,2.68219,10.9894,2.296,13.471,334,5,
74.3878,2.68036,10.9879,2.296,13.471,334,5,
74.3878,2.68097,10.9863,2.296,13.471,334,5,
74.3878,2.68036,10.9879,2.296,13.471,334,5,
74.3879,2.68097,10.9879,2.296,13.471,334,5,
74.3879,2.68097,10.9863,2.296,13.471,334,5,
74.3879,2.68097,10.9726,2.296,13.471,334,5,
74.388,2.68127,10.9772,2.296,13.471,334,5,
74.388,2.68097,10.9756,2.296,13.471,334,5,
74.388,2.67639,10.9756,2.296,13.471,334,5,
74.3881,2.67609,10.9787,2.296,13.471,334,5,
74.3881,2.67578,10.9772,2.296,13.471,334,5,
74.3881,2.67609,10.9726,2.296,13.471,334,5,
74.3882,2.67609,10.9772,2.296,13.471,334,5,
74.3882,2.67609,10.9772,2.296,13.471,334,5,
74.3882,2.67578,10.9741,2.296,13.471,334,5,
74.3883,2.67426,10.9787,2.296,13.471,334,5,
74.3883,2.67151,10.9772,2.296,13.471,334,5,
74.3883,2.67151,10.9756,2.296,13.471,334,5,
74.3884,2.6712,10.9756,2.296,13.471,334,5,
74.3884,2.6712,10.9772,2.296,13.471,334,5,
74.3884,2.6712,10.9741,2.296,13.471,334,5,
74.3885,2.6712,10.9802,2.296,13.471,334,5,
74.3885,2.67151,10.9756,2.296,13.471,334,5,
74.3885,2.66693,10.9741,2.296,13.471,334,5,
74.3886,2.66663,10.9726,2.296,13.471,334,5,
74.3886,2.66663,10.9787,2.296,13.471,334,5,
74.3886,2.66571,10.9756,2.296,13.471,334,5,
74.3887,2.66632,10.9741,2.296,13.471,334,5,
74.3887,2.66571,10.9711,2.296,13.471,334,5,
74.3887,2.66632,10.9726,2.296,13.471,334,5,
74.3888,2.66144,10.9772,2.296,13.471,334,5,
74.3888,2.66144,10.9741,2.296,13.471,334,5,
74.3888,2.66174,10.9711,2.296,13.471,334,5,
74.3889,2.66144,10.9726,2.296,13.471,334,5,
74.3889,2.66113,10.9741,2.296,13.471,334,5,
74.3889,2.66083,10.9787,2.296,13.471,334,5,
74.389,2.65747,10.9741,2.296,13.471,334,5,
74.389,2.65625,10.9726,2.296,13.471,334,5,
74.389,2.65656,10.9756,2.296,13.471,334,5,
74.3891,2.65656,10.9787,2.296,13.471,334,5,
74.3891,2.65686,10.9756,2.296,13.471,334,5,
74.3891,2.65625,10.9634,2.296,13.471,334,5,
74.3892,2.65472,10.965,2.296,13.471,334,5,
74.3892,2.65167,10.9634,2.296,13.471,334,5,
74.3892,2.65137,10.9634,2.296,13.471,334,5,
74.3893,2.65137,10.9634,2.296,13.471,334,5,
74.3893,2.65167,10.965,2.296,13.471,334,5,
74.3893,2.65167,10.9665,2.296,13.471,334,5,
74.3894,2.65076,10.965,2.296,13.471,334,5,
74.3894,2.6474,10.9634,2.296,13.471,334,5,
74.3894,2.64648,10.965,2.296,13.471,334,5,
74.3895,2.64709,10.965,2.296,13.471,334,5,
74.3895,2.64679,10.9619,2.296,13.471,334,5,
74.3895,2.64648,10.965,2.296,13.471,334,5,
74.3896,2.64496,10.9619,2.296,13.471,334,5,
74.3896,2.64252,10.9604,2.296,13.471,334,5,
74.3896,2.64191,10.965,2.296,13.471,334,5,
74.3897,2.64191,10.9619,2.296,13.471,334,5,
74.3897,2.64191,10.9634,2.296,13.471,334,5,
74.3897,2.6413,10.965,2.296,13.471,334,5,
74.3898,2.63794,10.9665,2.296,13.471,334,5,
74.3898,2.63733,10.9619,2.296,13.471,334,5,
74.3898,2.63794,10.965,2.296,13.471,334,5,
74.3899,2.63733,10.965,2.296,13.471,334,5,
74.3899,2.63733,10.965,2.296,13.471,334,5,
74.3899,2.63702,10.9634,2.296,13.471,334,5,
74.39,2.63245,10.9543,2.296,13.471,334,5,
74.39,2.63214,10.9482,2.296,13.471,334,5,
74.39,2.63214,10.9543,2.296,13.471,334,5,
74.3901,2.63245,10.9512,2.296,13.471,334,5,
74.3901,2.63245,10.9512,2.296,13.471,334,5,
74.3901,2.62787,10.9512,2.296,13.471,334,5,
74.3902,2.62695,10.9543,2.296,13.471,334,5,
74.3902,2.62756,10.9512,2.296,13.471,334,5,
74.3902,2.62726,10.9528,2.296,13.471,334,5,
74.3903,2.62726,10.9528,2.296,13.471,334,5,
74.3903,2.62665,10.9482,2.296,13.471,334,5,
74.3903,2.62268,10.9528,2.296,13.471,334,5,
74.3904,2.62268,10.9528,2.296,13.471,334,5,
74.3904,2.62238,10.9543,2.296,13.471,334,5,
74.3904,2.62238,10.9528,2.296,13.471,334,5,
74.3905,2.62238,10.9528,2.296,13.471,334,5,
74.3905,2.6181,10.9528,2.296,13.471,334,5,
74.3905,2.61749,10.9528,2.296,13.471,334,5,
74.3906,2.6178,10.9528,2.296,13.471,334,5,
74.3906,2.61749,10.9512,2.296,13.471,334,5,
74.3906,2.6181,10.9512,2.296,13.471,334,5,
74.3907,2.61322,10.9528,2.296,13.471,334,5,
74.3907,2.61261,10.9497,2.296,13.471,334,5,
74.3907,2.61261,10.9512,2.296,13.471,334,5,
74.3908,2.61292,10.9528,2.296,13.471,334,5,
74.3908,2.61322,10.9497,2.296,13.471,334,5,
74.3908,2.61078,10.9497,2.296,13.471,334,5,
74.3909,2.60803,10.9497,2.296,13.471,334,5,
74.3909,2.60803,10.9512,2.296,13.471,334,5,
74.3909,2.60803,10.9528,2.296,13.471,334,5,
74.391,2.60834,10.9344,2.296,13.471,334,5,
74.391,2.60803,10.939,2.296,13.471,334,5,
74.391,2.60254,10.936,2.296,13.471,334,5,
74.3911,2.60223,10.939,2.296,13.471,334,5,
74.3911,2.60223,10.939,2.296,13.471,334,5,
74.3911,2.60284,10.9375,2.296,13.471,334,5,
74.3912,2.60345,10.9406,2.296,13.471,334,5,
74.3912,2.59766,10.9406,2.296,13.471,334,5,
74.3912,2.59766,10.9406,2.296,13.471,334,5,
74.3913,2.59827,10.9375,2.296,13.471,334,5,
74.3913,2.59735,10.9406,2.296,13.471,334,5,
74.3913,2.59735,10.9375,2.296,13.471,334,5,
74.3914,2.59369,10.939,2.296,13.471,334,5,
74.3914,2.59277,10.939,2.296,13.471,334,5,
74.3914,2.59308,10.9406,2.296,13.471,334,5,
74.3915,2.59338,10.9375,2.296,13.471,334,5,
74.3915,2.59277,10.936,2.296,13.471,334,5,
74.3915,2.59247,10.9406,2.296,13.471,334,5,
74.3916,2.5882,10.936,2.296,13.471,334,5,
74.3916,2.5882,10.936,2.296,13.471,334,5,
74.3916,2.58728,10.939,2.296,13.471,334,5,
74.3917,2.5882,10.9406,2.296,13.471,334,5,
74.3917,2.58789,10.9421,2.296,13.471,334,5,
74.3917,2.58423,10.939,2.296,13.471,334,5,
74.3918,2.58331,10.9406,2.296,13.471,334,5,
74.3918,2.58331,10.939,2.296,13.471,334,5,
74.3918,2.5827,10.939,2.296,13.471,334,5,
74.3919,2.58362,10.939,2.296,13.471,334,5,
74.3919,2.58301,10.9406,2.296,13.471,334,5,
74.3919,2.57874,10.939,2.296,13.471,334,5,
74.392,2.57843,10.9375,2.296,13.471,334,5,
74.392,2.57874,10.936,2.296,13.471,334,5,
74.392,2.57874,10.9406,2.296,13.471,334,5,
74.3921,2.57843,10.939,2.296,13.471,334,5,
74.3921,2.57812,10.9421,2.296,13.471,334,5,
74.3921,2.57385,10.9375,2.296,13.471,334,5,
74.3922,2.57385,10.9375,2.296,13.471,334,5,
74.3922,2.57324,10.9375,2.296,13.471,334,5,
74.3922,2.57416,10.9406,2.296,13.471,334,5,
74.3923,2.57385,10.9375,2.296,13.471,334,5,
74.3923,2.57385,10.9375,2.296,13.471,334,5,
74.3923,2.56927,10.9375,2.296,13.471,334,5,
74.3924,2.56836,10.9375,2.296,13.471,334,5,
74.3924,2.56866,10.939,2.296,13.471,334,5,
74.3924,2.56836,10.936,2.296,13.471,334,5,
74.3925,2.56866,10.939,2.296,13.471,334,5,
74.3925,2.56866,10.9329,2.296,13.471,334,5,
74.3925,2.56439,10.9268,2.296,13.471,334,5,
74.3926,2.56317,10.9253,2.296,13.471,334,5,
74.3926,2.56378,10.9283,2.296,13.471,334,5,
74.3926,2.56348,10.9253,2.296,13.471,334,5,
74.3927,2.56409,10.9268,2.296,13.471,334,5,
74.3927,2.56378,10.9268,2.296,13.471,334,5,
74.3927,2.56409,10.9238,2.296,13.471,334,5,
74.3928,2.56012,10.9253,2.296,13.471,334,5,
74.3928,2.5589,10.9268,2.296,13.471,334,5,
74.3928,2.55859,10.9268,2.296,13.471,334,5,
74.3929,2.5589,10.9283,2.296,13.471,334,5,
74.3929,2.55829,10.9283,2.296,13.471,334,5,
74.3929,2.5589,10.9283,2.296,13.471,334,5,
74.393,2.5592,10.9299,2.296,13.471,334,5,
74.393,2.55585,10.9238,2.296,13.471,334,5,
74.393,2.55402,10.9268,2.296,13.471,334,5,
74.3931,2.55432,10.9253,2.296,13.471,334,5,
74.3931,2.55371,10.9283,2.296,13.471,334,5,
74.3931,2.55402,10.9253,2.296,13.471,334,5,
74.3932,2.55371,10.9283,2.296,13.471,334,5,
74.3932,2.55402,10.9253,2.296,13.471,334,5,
74.3932,2.55371,10.9268,2.296,13.471,334,5,
74.3933,2.55188,10.9253,2.296,13.471,334,5,
74.3933,2.54913,10.9253,2.296,13.471,334,5,
74.3933,2.54883,10.9238,2.296,13.471,334,5,
74.3934,2.54944,10.9253,2.296,13.471,334,5,
74.3934,2.54913,10.9283,2.296,13.471,334,5,
74.3934,2.54791,10.9268,2.296,13.471,334,5,
74.3935,2.54852,10.9268,2.296,13.471,334,5,
74.3935,2.54913,10.9268,2.296,13.471,334,5,
74.3935,2.54913,10.9268,2.296,13.471,334,5,
74.3936,2.54456,10.9238,2.296,13.471,334,5,
74.3936,2.54364,10.9253,2.296,13.471,334,5,
74.3936,2.54364,10.9253,2.296,13.471,334,5,
74.3937,2.54425,10.9253,2.296,13.471,334,5,
74.3937,2.54425,10.9253,2.296,13.471,334,5,
74.3937,2.54425,10.9283,2.296,13.471,334,5,
74.3938,2.54395,10.9253,2.296,13.471,334,5,
74.3938,2.54425,10.9253,2.296,13.471,334,5,
74.3938,2.54028,10.9283,2.296,13.471,334,5,
74.3939,2.53937,10.9253,2.296,13.471,334,5,
74.3939,2.53967,10.9268,2.296,13.471,334,5,
74.3939,2.53967,10.9268,2.296,13.471,334,5,
74.394,2.54028,10.9253,2.296,13.471,334,5,
74.394,2.54028,10.9238,2.296,13.471,334,5,
74.394,2.53998,10.9283,2.296,13.471,334,5,
74.3941,2.53967,10.9222,2.296,13.471,334,5,
74.3941,2.54028,10.9268,2.296,13.471,334,5,
74.3941,2.5351,10.9253,2.296,13.471,334,5,
74.3942,2.53601,10.9268,2.296,13.471,334,5,
74.3942,2.53632,10.9283,2.296,13.471,334,5,
74.3942,2.53418,10.9299,2.296,13.471,334,5,
74.3943,2.5354,10.9238,2.296,13.471,334,5,
74.3943,2.53571,10.9268,2.296,13.471,334,5,
74.3943,2.53479,10.9253,2.296,13.471,334,5,
74.3944,2.53418,10.9283,2.296,13.471,334,5,
74.3944,2.53021,10.9268,2.296,13.471,334,5,
74.3944,2.53021,10.9253,2.296,13.471,334,5,
74.3945,2.52869,10.9268,2.296,13.471,334,5,
74.3945,2.5296,10.9253,2.296,13.471,334,5,
74.3945,2.5293,10.9253,2.296,13.471,334,5,
74.3946,2.5293,10.9238,2.296,13.471,334,5,
74.3946,2.5296,10.9268,2.296,13.471,334,5,
74.3946,2.52838,10.9268,2.296,13.471,334,5,
74.3947,2.52441,10.9268,2.296,13.471,334,5,
74.3947,2.52411,10.9283,2.296,13.471,334,5,
74.3947,2.52441,10.9283,2.296,13.471,334,5,
74.3948,2.5235,10.9253,2.296,13.471,334,5,
74.3948,2.52502,10.9268,2.296,13.471,334,5,
74.3948,2.5238,10.9253,2.296,13.471,334,5,
74.3949,2.5235,10.9268,2.296,13.471,334,5,
74.3949,2.52228,10.9268,2.296,13.471,334,5,
74.3949,2.51892,10.9299,2.296,13.471,334,5,
74.395,2.51892,10.9268,2.296,13.471,334,5,
74.395,2.51923,10.9253,2.296,13.471,334,5,
74.395,2.51953,10.9283,2.296,13.471,334,5,
74.3951,2.51862,10.9268,2.296,13.471,334,5,
74.3951,2.51892,10.9299,2.296,13.471,334,5,
74.3951,2.51526,10.9299,2.296,13.471,334,5,
74.3952,2.51465,10.9268,2.296,13.471,334,5,
74.3952,2.51495,10.9283,2.296,13.471,334,5,
74.3952,2.51404,10.9268,2.296,13.471,334,5,
74.3953,2.51373,10.9253,2.296,13.471,334,5,
74.3953,2.51495,10.9268,2.296,13.471,334,5,
74.3953,2.51434,10.9268,2.296,13.471,334,5,
74.3954,2.50977,10.9253,2.296,13.471,334,5,
74.3954,2.51038,10.9238,2.296,13.471,334,5,
74.3954,2.50977,10.9268,2.296,13.471,334,5,
74.3955,2.50977,10.9268,2.296,13.471,334,5,
74.3955,2.51007,10.9207,2.296,13.471,334,5,
74.3955,2.50916,10.9268,2.296,13.471,334,5,
74.3956,2.50427,10.9283,2.296,13.471,334,5,
74.3956,2.50458,10.9268,2.296,13.471,334,5,
74.3956,2.50458,10.9268,2.296,13.471,334,5,
74.3957,2.50488,10.9283,2.296,13.471,334,5,
74.3957,2.50458,10.9283,2.296,13.471,334,5,
74.3957,2.50244,10.9253,2.296,13.471,334,5,
74.3958,2.49969,10.9283,2.296,13.471,334,5,
74.3958,2.5,10.9268,2.296,13.471,334,5,
74.3958,2.5,10.9268,2.296,13.471,334,5,
74.3959,2.50031,10.9253,2.296,13.471,334,5,
74.3959,2.49969,10.9283,2.296,13.471,334,5,
74.3959,2.49573,10.9268,2.296,13.471,334,5,
74.396,2.49512,10.9268,2.296,13.471,334,5,
74.396,2.49542,10.9268,2.296,13.471,334,5,
74.396,2.49512,10.9283,2.296,13.471,334,5,
74.3961,2.49481,10.9268,2.296,13.471,334,5,
74.3961,2.49512,10.9253,2.296,13.471,334,5,
74.3961,2.48932,10.9283,2.296,13.471,334,5,
74.3962,2.48962,10.9299,2.296,13.471,334,5,
74.3962,2.48993,10.9283,2.296,13.471,334,5,
74.3962,2.49023,10.9238,2.296,13.471,334,5,
74.3963,2.49023,10.9283,2.296,13.471,334,5,
74.3963,2.48566,10.9268,2.296,13.471,334,5,
74.3963,2.48535,10.9283,2.296,13.471,334,5,
74.3964,2.48535,10.9253,2.296,13.471,334,5,
74.3964,2.48505,10.9283,2.296,13.471,334,5,
74.3964,2.48535,10.9283,2.296,13.471,334,5,
74.3965,2.48047,10.9283,2.296,13.471,334,5,
74.3965,2.48047,10.9268,2.296,13.471,334,5,
74.3965,2.48016,10.9314,2.296,13.471,334,5,
74.3966,2.48047,10.9283,2.296,13.471,334,5,
74.3966,2.48077,10.9421,2.296,13.471,334,5,
74.3966,2.4762,10.9406,2.296,13.471,334,5,
74.3967,2.47559,10.9406,2.296,13.471,334,5,
74.3967,2.47559,10.9406,2.296,13.471,334,5,
74.3967,2.47559,10.939,2.296,13.471,334,5,
74.3968,2.47559,10.939,2.296,13.471,334,5,
74.3968,2.4707,10.9406,2.296,13.471,334,5,
74.3968,2.47101,10.939,2.296,13.471,334,5,
74.3969,2.4704,10.939,2.296,13.471,334,5,
74.3969,2.47101,10.9406,2.296,13.471,334,5,
74.3969,2.46979,10.9406,2.296,13.471,334,5,
74.397,2.46643,10.9375,2.296,13.471,334,5,
74.397,2.46582,10.939,2.296,13.471,334,5,
74.397,2.46582,10.9406,2.296,13.471,334,5,
74.3971,2.46521,10.9406,2.296,13.471,334,5,
74.3971,2.46307,10.9406,2.296,13.471,334,5,
74.3971,2.46063,10.9406,2.296,13.471,334,5,
74.3972,2.46094,10.939,2.296,13.471,334,5,
74.3972,2.46124,10.9406,2.296,13.471,334,5,
74.3972,2.46063,10.939,2.296,13.471,334,5,
74.3973,2.45758,10.939,2.296,13.471,334,5,
74.3973,2.45575,10.939,2.296,13.471,334,5,
74.3973,2.45605,10.9421,2.296,13.471,334,5,
74.3974,2.45544,10.9375,2.296,13.471,334,5,
74.3974,2.45605,10.939,2.296,13.471,334,5,
74.3974,2.45117,10.939,2.296,13.471,334,5,
74.3975,2.45117,10.9375,2.296,13.471,334,5,
74.3975,2.45056,10.9406,2.296,13.471,334,5,
74.3975,2.45026,10.936,2.296,13.471,334,5,
74.3976,2.44904,10.939,2.296,13.471,334,5,
74.3976,2.44629,10.936,2.296,13.471,334,5,
74.3976,2.44598,10.9375,2.296,13.471,334,5,
74.3977,2.44598,10.9406,2.296,13.471,334,5,
74.3977,2.44507,10.9421,2.296,13.471,334,5,
74.3977,2.4408,10.939,2.296,13.471,334,5,
74.3978,2.44141,10.9375,2.296,13.471,334,5,
74.3978,2.4411,10.9375,2.296,13.471,334,5,
74.3978,2.44141,10.936,2.296,13.471,334,5,
74.3979,2.44141,10.9375,2.296,13.471,334,5,
74.3979,2.43591,10.9497,2.296,13.471,334,5,
74.3979,2.43591,10.9497,2.296,13.471,334,5,
74.398,2.43652,10.9528,2.296,13.471,334,5,
74.398,2.43652,10.9528,2.296,13.471,334,5,
74.398,2.43256,10.9528,2.296,13.471,334,5,
74.3981,2.43164,10.9512,2.296,13.471,334,5,
74.3981,2.43164,10.9497,2.296,13.471,334,5,
74.3981,2.43042,10.9543,2.296,13.471,334,5,
74.3982,2.43073,10.9543,2.296,13.471,334,5,
74.3982,2.42584,10.9528,2.296,13.471,334,5,
74.3982,2.42676,10.9512,2.296,13.471,334,5,
74.3983,2.42554,10.9512,2.296,13.471,334,5,
74.3983,2.42615,10.9543,2.296,13.471,334,5,
74.3983,2.42584,10.9512,2.296,13.471,334,5,
74.3984,2.42096,10.9528,2.296,13.471,334,5,
74.3984,2.42126,10.9512,2.296,13.471,334,5,
74.3984,2.42126,10.9528,2.296,13.471,334,5,
74.3985,2.42126,10.9528,2.296,13.471,334,5,
74.3985,2.41943,10.9497,2.296,13.471,334,5,
74.3985,2.41608,10.9512,2.296,13.471,334,5,
74.3986,2.41669,10.9512,2.296,13.471,334,5,
74.3986,2.41699,10.9528,2.296,13.471,334,5,
74.3986,2.41638,10.9497,2.296,13.471,334,5,
74.3987,2.4115,10.9604,2.296,13.471,334,5,
74.3987,2.4115,10.9634,2.296,13.471,334,5,
74.3987,2.41119,10.9619,2.296,13.471,334,5,
74.3988,2.4118,10.9634,2.296,13.471,334,5,
74.3988,2.4115,10.965,2.296,13.471,334,5,
74.3988,2.40662,10.968,2.296,13.471,334,5,
74.3989,2.40601,10.9665,2.296,13.471,334,5,
74.3989,2.40723,10.9619,2.296,13.471,334,5,
74.3989,2.40662,10.9619,2.296,13.471,334,5,
74.399,2.40265,10.9619,2.296,13.471,334,5,
74.399,2.40173,10.965,2.296,13.471,334,5,
74.399,2.40143,10.9619,2.296,13.471,334,5,
74.3991,2.40204,10.9619,2.296,13.471,334,5,
74.3991,2.40204,10.9665,2.296,13.471,334,5,
74.3991,2.39685,10.9634,2.296,13.471,334,5,
74.3992,2.39655,10.9619,2.296,13.471,334,5,
74.3992,2.39655,10.9634,2.296,13.471,334,5,
74.3992,2.39685,10.9634,2.296,13.471,334,5,
74.3993,2.39349,10.9634,2.296,13.471,334,5,
74.3993,2.39288,10.9634,2.296,13.471,334,5,
74.3993,2.39197,10.9634,2.296,13.471,334,5,
74.3994,2.39258,10.9634,2.296,13.471,334,5,
74.3994,2.39014,10.9604,2.296,13.471,334,5,
74.3994,2.38708,10.9726,2.296,13.471,334,5,
74.3995,2.38739,10.9756,2.296,13.471,334,5,
74.3995,2.38678,10.9756,2.296,13.471,334,5,
74.3995,2.38739,10.9772,2.296,13.471,334,5,
74.3996,2.38281,10.9756,2.296,13.471,334,5,
74.3996,2.38251,10.9772,2.296,13.471,334,5,
74.3996,2.38251,10.9741,2.296,13.471,334,5,
74.3997,2.38281,10.9772,2.296,13.471,334,5,
74.3997,2.38007,10.9756,2.296,13.471,334,5,
74.3997,2.37732,10.9741,2.296,13.471,334,5,
74.3998,2.37732,10.9741,2.296,13.471,334,5,
74.3998,2.37732,10.9756,2.296,13.471,334,5,
74.3998,2.37671,10.9772,2.296,13.471,334,5,
74.3999,2.37244,10.9787,2.296,13.471,334,5,
74.3999,2.37305,10.9756,2.296,13.471,334,5,
74.3999,2.37183,10.9772,2.296,13.471,334,5,
74.4,2.37213,10.9726,2.296,13.471,334,5,
74.4,2.36877,10.9741,2.296,13.471,334,5,
74.4,2.36725,10.9756,2.296,13.471,334,5,
74.4001,2.36725,10.9756,2.296,13.471,334,5,
74.4001,2.36694,10.9802,2.296,13.471,334,5,
74.4001,2.36755,10.9787,2.296,13.471,334,5,
74.4002,2.36206,10.9772,2.296,13.471,334,5,
74.4002,2.36298,10.9756,2.296,13.471,334,5,
74.4002,2.36237,10.9879,2.296,13.471,334,5,
74.4003,2.36267,10.9894,2.296,13.471,334,5,
74.4003,2.35992,10.9879,2.296,13.471,334,5,
74.4003,2.3584,10.9863,2.296,13.471,334,5,
74.4004,2.35748,10.9879,2.296,13.471,334,5,
74.4004,2.35687,10.9863,2.296,13.471,334,5,
74.4004,2.35809,10.9863,2.296,13.471,334,5,
74.4005,2.35291,10.9909,2.296,13.471,334,5,
74.4005,2.3526,10.9894,2.296,13.471,334,5,
74.4005,2.35291,10.9909,2.296,13.471,334,5,
74.4006,2.35291,10.9848,2.296,13.471,334,5,
74.4006,2.35352,10.9863,2.296,13.471,334,5,
74.4006,2.34711,10.9879,2.296,13.471,334,5,
74.4007,2.34741,10.9879,2.296,13.471,334,5,
74.4007,2.34802,10.9924,2.296,13.471,334,5,
74.4007,2.34772,10.9848,2.296,13.471,334,5,
74.4008,2.34375,10.9909,2.296,13.471,334,5,
74.4008,2.34314,10.9894,2.296,13.471,334,5,
74.4008,2.34375,10.9879,2.296,13.471,334,5,
74.4009,2.34283,10.9863,2.296,13.471,334,5,
74.4009,2.34344,10.9879,2.296,13.471,334,5,
74.4009,2.33917,10.9879,2.296,13.471,334,5,
74.401,2.33856,10.9879,2.296,13.471,334,5,
74.401,2.33826,10.9894,2.296,13.471,334,5,
74.401,2.33826,10.9879,2.296,13.471,334,5,
74.4011,2.33795,10.9985,2.296,13.471,334,5,
74.4011,2.33368,11.0001,2.296,13.471,334,5,
74.4011,2.33368,11.0001,2.296,13.471,334,5,
74.4012,2.33307,11.0001,2.296,13.471,334,5,
74.4012,2.33337,11.0001,2.296,13.471,334,5,
74.4012,2.33398,11.0031,2.296,13.471,334,5,
74.4013,2.32849,10.9985,2.296,13.471,334,5,
74.4013,2.3291,11.0016,2.296,13.471,334,5,
74.4013,2.32849,11.0031,2.296,13.471,334,5,
74.4014,2.3288,11.0001,2.296,13.471,334,5,
74.4014,2.32788,10.9985,2.296,13.471,334,5,
74.4014,2.3233,11.0016,2.296,13.471,334,5,
74.4015,2.32361,11.0001,2.296,13.471,334,5,
74.4015,2.32391,11.0001,2.296,13.471,334,5,
74.4015,2.3233,10.9985,2.296,13.471,334,5,
74.4016,2.32361,11.0001,2.296,13.471,334,5,
74.4016,2.31995,10.9985,2.296,13.471,334,5,
74.4016,2.31873,11.0001,2.296,13.471,334,5,
74.4017,2.31842,10.9985,2.296,13.471,334,5,
74.4017,2.31842,11.0001,2.296,13.471,334,5,
74.4017,2.31873,11.0016,2.296,13.471,334,5,
74.4018,2.31689,10.9985,2.296,13.471,334,5,
74.4018,2.31384,11.0001,2.296,13.471,334,5,
74.4018,2.31384,10.9955,2.296,13.471,334,5,
74.4019,2.31384,10.9985,2.296,13.471,334,5,
74.4019,2.31354,11.0138,2.296,13.471,334,5,
74.4019,2.31415,11.0123,2.296,13.471,334,5,
74.402,2.30865,11.0153,2.296,13.471,334,5,
74.402,2.30988,11.0138,2.296,13.471,334,5,
74.402,2.30927,11.0138,2.296,13.471,334,5,
74.4021,2.30896,11.0092,2.296,13.471,334,5,
74.4021,2.30865,11.0123,2.296,13.471,334,5,
74.4021,2.30896,11.0123,2.296,13.471,334,5,
74.4022,2.30347,11.0138,2.296,13.471,334,5,
74.4022,2.30347,11.0123,2.296,13.471,334,5,
74.4022,2.30408,11.0107,2.296,13.471,334,5,
74.4023,2.30377,11.0123,2.296,13.471,334,5,
74.4023,2.30377,11.0107,2.296,13.471,334,5,
74.4023,2.30225,11.0138,2.296,13.471,334,5,
74.4024,2.29858,11.0123,2.296,13.471,334,5,
74.4024,2.29919,11.0107,2.296,13.471,334,5,
74.4024,2.29889,11.0107,2.296,13.471,334,5,
74.4025,2.29858,11.0153,2.296,13.471,334,5,
74.4025,2.29858,11.0153,2.296,13.471,334,5,
74.4025,2.29797,11.0138,2.296,13.471,334,5,
74.4026,2.29401,11.0123,2.296,13.471,334,5,
74.4026,2.2937,11.0077,2.296,13.471,334,5,
74.4026,2.29401,11.0153,2.296,13.471,334,5,
74.4027,2.2937,11.0123,2.296,13.471,334,5,
74.4027,2.29431,11.0245,2.296,13.471,334,5,
74.4027,2.29462,11.026,2.296,13.471,334,5,
74.4028,2.29004,11.0245,2.296,13.471,334,5,
74.4028,2.28882,11.026,2.296,13.471,334,5,
74.4028,2.28943,11.0245,2.296,13.471,334,5,
74.4029,2.28882,11.0245,2.296,13.471,334,5,
74.4029,2.29004,11.0214,2.296,13.471,334,5,
74.4029,2.28912,11.023,2.296,13.471,334,5,
74.403,2.28851,11.026,2.296,13.471,334,5,
74.403,2.28455,11.023,2.296,13.471,334,5,
74.403,2.28394,11.023,2.296,13.471,334,5,
74.4031,2.28363,11.0245,2.296,13.471,334,5,
74.4031,2.28394,11.0275,2.296,13.471,334,5,
74.4031,2.28394,11.0245,2.296,13.471,334,5,
74.4032,2.28455,11.023,2.296,13.471,334,5,
74.4032,2.28363,11.026,2.296,13.471,334,5,
74.4032,2.27875,11.0214,2.296,13.471,334,5,
74.4033,2.27966,11.0214,2.296,13.471,334,5,
74.4033,2.27844,11.026,2.296,13.471,334,5,
74.4033,2.27966,11.0245,2.296,13.471,334,5,
74.4034,2.27905,11.026,2.296,13.471,334,5,
74.4034,2.27936,11.026,2.296,13.471,334,5,
74.4034,2.27936,11.0306,2.296,13.471,334,5,
74.4035,2.27448,11.0352,2.296,13.471,334,5,
74.4035,2.27386,11.0367,2.296,13.471,334,5,
74.4035,2.27386,11.0352,2.296,13.471,334,5,
74.4036,2.27448,11.0367,2.296,13.471,334,5,
74.4036,2.27448,11.0336,2.296,13.471,334,5,
74.4036,2.27448,11.0382,2.296,13.471,334,5,
74.4037,2.27386,11.0382,2.296,13.471,334,5,
74.4037,2.27081,11.0382,2.296,13.471,334,5,
74.4037,2.26959,11.0367,2.296,13.471,334,5,
74.4038,2.26959,11.0382,2.296,13.471,334,5,
74.4038,2.26929,11.0382,2.296,13.471,334,5,
74.4038,2.26898,11.0321,2.296,13.471,334,5,
74.4039,2.26929,11.0382,2.296,13.471,334,5,
74.4039,2.2699,11.0367,2.296,13.471,334,5,
74.4039,2.26776,11.0367,2.296,13.471,334,5,
74.404,2.2641,11.0336,2.296,13.471,334,5,
74.404,2.26532,11.0382,2.296,13.471,334,5,
74.404,2.2644,11.0382,2.296,13.471,334,5,
74.4041,2.26501,11.0367,2.296,13.471,334,5,
74.4041,2.26471,11.0382,2.296,13.471,334,5,
74.4041,2.26562,11.0336,2.296,13.471,334,5,
74.4042,2.26562,11.0397,2.296,13.471,334,5,
74.4042,2.26044,11.0504,2.296,13.471,334,5,
74.4042,2.26044,11.0474,2.296,13.471,334,5,
74.4043,2.26074,11.0504,2.296,13.471,334,5,
74.4043,2.26044,11.0474,2.296,13.471,334,5,
74.4043,2.26074,11.0489,2.296,13.471,334,5,
74.4044,2.26105,11.0489,2.296,13.471,334,5,
74.4044,2.26135,11.0504,2.296,13.471,334,5,
74.4044,2.25891,11.0489,2.296,13.471,334,5,
74.4045,2.25586,11.0489,2.296,13.471,334,5,
74.4045,2.25616,11.0504,2.296,13.471,334,5,
74.4045,2.25586,11.0458,2.296,13.471,334,5,
74.4046,2.25525,11.0443,2.296,13.471,334,5,
74.4046,2.25525,11.0474,2.296,13.471,334,5,
74.4046,2.25525,11.0474,2.296,13.471,334,5,
74.4047,2.25525,11.0489,2.296,13.471,334,5,
74.4047,2.24976,11.0474,2.296,13.471,334,5,
74.4047,2.24915,11.0489,2.296,13.471,334,5,
74.4048,2.24945,11.0489,2.296,13.471,334,5,
74.4048,2.24976,11.0504,2.296,13.471,334,5,
74.4048,2.24945,11.0504,2.296,13.471,334,5,
74.4049,2.25037,11.0504,2.296,13.471,334,5,
74.4049,2.24976,11.0519,2.296,13.471,334,5,
74.4049,2.24762,11.0596,2.296,13.471,334,5,
74.405,2.24457,11.0611,2.296,13.471,334,5,
74.405,2.24457,11.0611,2.296,13.471,334,5,
74.405,2.24426,11.0611,2.296,13.471,334,5,
74.4051,2.24518,11.0626,2.296,13.471,334,5,
74.4051,2.24487,11.0611,2.296,13.471,334,5,
74.4051,2.24487,11.0611,2.296,13.471,334,5,
74.4052,2.24457,11.0611,2.296,13.471,334,5,
74.4052,2.23938,11.0626,2.296,13.471,334,5,
74.4052,2.23999,11.0611,2.296,13.471,334,5,
74.4053,2.23969,11.0626,2.296,13.471,334,5,
74.4053,2.23969,11.0611,2.296,13.471,334,5,
74.4053,2.23907,11.0611,2.296,13.471,334,5,
74.4054,2.23969,11.0626,2.296,13.471,334,5,
74.4054,2.23969,11.0626,2.296,13.471,334,5,
74.4054,2.23938,11.0641,2.296,13.471,334,5,
74.4055,2.23511,11.0565,2.296,13.471,334,5,
74.4055,2.23541,11.0626,2.296,13.471,334,5,
74.4055,2.2348,11.0611,2.296,13.471,334,5,
74.4056,2.2345,11.0611,2.296,13.471,334,5,
74.4056,2.2345,11.0596,2.296,13.471,334,5,
74.4056,2.23389,11.0626,2.296,13.471,334,5,
74.4057,2.2345,11.0748,2.296,13.471,334,5,
74.4057,2.23419,11.0748,2.296,13.471,334,5,
74.4057,2.23022,11.0733,2.296,13.471,334,5,
74.4058,2.23022,11.0733,2.296,13.471,334,5,
74.4058,2.22992,11.0718,2.296,13.471,334,5,
74.4058,2.22992,11.0703,2.296,13.471,334,5,
74.4059,2.23053,11.0748,2.296,13.471,334,5,
74.4059,2.23022,11.0733,2.296,13.471,334,5,
74.4059,2.23022,11.0718,2.296,13.471,334,5,
74.406,2.23022,11.0748,2.296,13.471,334,5,
74.406,2.22473,11.0764,2.296,13.471,334,5,
74.406,2.22534,11.0733,2.296,13.471,334,5,
74.4061,2.22565,11.0733,2.296,13.471,334,5,
74.4061,2.22595,11.0718,2.296,13.471,334,5,
74.4061,2.22504,11.0718,2.296,13.471,334,5,
74.4062,2.22504,11.0733,2.296,13.471,334,5,
74.4062,2.22534,11.0764,2.296,13.471,334,5,
74.4062,2.22504,11.0733,2.296,13.471,334,5,
74.4063,2.22534,11.0733,2.296,13.471,334,5,
74.4063,2.22107,11.0748,2.296,13.471,334,5,
74.4063,2.21985,11.0733,2.296,13.471,334,5,
74.4064,2.22015,11.0687,2.296,13.471,334,5,
74.4064,2.21985,11.0825,2.296,13.471,334,5,
74.4064,2.22046,11.0855,2.296,13.471,334,5,
74.4065,2.22046,11.0855,2.296,13.471,334,5,
74.4065,2.22076,11.0886,2.296,13.471,334,5,
74.4065,2.22015,11.084,2.296,13.471,334,5,
74.4066,2.22015,11.0855,2.296,13.471,334,5,
74.4066,2.21863,11.087,2.296,13.471,334,5,
74.4066,2.21558,11.0855,2.296,13.471,334,5,
74.4067,2.21558,11.084,2.296,13.471,334,5,
74.4067,2.21527,11.0855,2.296,13.471,334,5,
74.4067,2.21558,11.0886,2.296,13.471,334,5,
74.4068,2.21497,11.084,2.296,13.471,334,5,
74.4068,2.21558,11.0855,2.296,13.471,334,5,
74.4068,2.21436,11.084,2.296,13.471,334,5,
74.4069,2.21466,11.084,2.296,13.471,334,5,
74.4069,2.21527,11.087,2.296,13.471,334,5,
74.4069,2.21497,11.087,2.296,13.471,334,5,
74.407,2.21039,11.087,2.296,13.471,334,5,
74.407,2.21069,11.0825,2.296,13.471,334,5,
74.407,2.21039,11.0855,2.296,13.471,334,5,
74.4071,2.21069,11.0886,2.296,13.471,334,5,
74.4071,2.21069,11.0825,2.296,13.471,334,5,
74.4071,2.211,11.084,2.296,13.471,334,5,
74.4072,2.21069,11.0977,2.296,13.471,334,5,
74.4072,2.21069,11.0962,2.296,13.471,334,5,
74.4072,2.21069,11.0992,2.296,13.471,334,5,
74.4073,2.21008,11.0962,2.296,13.471,334,5,
74.4073,2.21069,11.0977,2.296,13.471,334,5,
74.4073,2.21008,11.0977,2.296,13.471,334,5,
74.4074,2.20917,11.0962,2.296,13.471,334,5,
74.4074,2.2052,11.0962,2.296,13.471,334,5,
74.4074,2.20551,11.0931,2.296,13.471,334,5,
74.4075,2.20551,11.0992,2.296,13.471,334,5,
74.4075,2.20551,11.0992,2.296,13.471,334,5,
74.4075,2.2052,11.0992,2.296,13.471,334,5,
74.4076,2.2052,11.0962,2.296,13.471,334,5,
74.4076,2.20581,11.0962,2.296,13.471,334,5,
74.4076,2.20551,11.0977,2.296,13.471,334,5,
74.4077,2.20581,11.0962,2.296,13.471,334,5,
74.4077,2.20581,11.0947,2.296,13.471,334,5,
74.4077,2.20551,11.0962,2.296,13.471,334,5,
74.4078,2.2052,11.0962,2.296,13.471,334,5,
74.4078,2.2052,11.0992,2.296,13.471,334,5,
74.4078,2.2049,11.0977,2.296,13.471,334,5,
74.4079,2.20642,11.0977,2.296,13.471,334,5,
74.4079,2.20581,11.0962,2.296,13.471,334,5,
74.4079,2.20093,11.1008,2.296,13.471,334,5,
74.408,2.20001,11.1099,2.296,13.471,334,5,
74.408,2.20032,11.1099,2.296,13.471,334,5,
74.408,2.20062,11.1084,2.296,13.471,334,5,
74.4081,2.20093,11.1115,2.296,13.471,334,5,
74.4081,2.20093,11.1099,2.296,13.471,334,5,
74.4081,2.20062,11.1099,2.296,13.471,334,5,
74.4082,2.20123,11.1099,2.296,13.471,334,5,
74.4082,2.20154,11.1115,2.296,13.471,334,5,
74.4082,2.20032,11.1145,2.296,13.471,334,5,
74.4083,2.20032,11.1145,2.296,13.471,334,5,
74.4083,2.20093,11.113,2.296,13.471,334,5,
74.4083,2.20123,11.1115,2.296,13.471,334,5,
74.4084,2.20093,11.1099,2.296,13.471,334,5,
74.4084,2.20062,11.1099,2.296,13.471,334,5,
74.4084,2.20093,11.113,2.296,13.471,334,5,
74.4085,2.20062,11.1115,2.296,13.471,334,5,
74.4085,2.20123,11.1084,2.296,13.471,334,5,
74.4085,2.20093,11.1099,2.296,13.471,334,5,
74.4086,2.20123,11.1099,2.296,13.471,334,5,
74.4086,2.20062,11.1069,2.296,13.471,334,5,
74.4086,2.20062,11.1115,2.296,13.471,334,5,
74.4087,2.20093,11.1099,2.296,13.471,334,5,
74.4087,2.20093,11.1115,2.296,13.471,334,5,
74.4087,2.20062,11.1115,2.296,13.471,334,5,
74.4088,2.20154,11.1237,2.296,13.471,334,5,
74.4088,2.20093,11.1191,2.296,13.471,334,5,
74.4088,2.20062,11.1191,2.296,13.471,334,5,
74.4089,2.20093,11.1206,2.296,13.471,334,5,
74.4089,2.20123,11.1206,2.296,13.471,334,5,
74.4089,2.20062,11.1206,2.296,13.471,334,5,
74.409,2.20123,11.1206,2.296,13.471,334,5,
74.409,2.20093,11.1237,2.296,13.471,334,5,
74.409,2.20093,11.1221,2.296,13.471,334,5,
74.4091,2.20032,11.1221,2.296,13.471,334,5,
74.4091,2.20032,11.1221,2.296,13.471,334,5,
74.4091,2.20093,11.1237,2.296,13.471,334,5,
74.4092,2.20123,11.1237,2.296,13.471,334,5,
74.4092,2.20123,11.1206,2.296,13.471,334,5,
74.4092,2.20123,11.1221,2.296,13.471,334,5,
74.4093,2.20093,11.1206,2.296,13.471,334,5,
74.4093,2.20154,11.1206,2.296,13.471,334,5,
74.4093,2.20093,11.1221,2.296,13.471,334,5,
74.4094,2.20093,11.1221,2.296,13.471,334,5,
74.4094,2.20123,11.1237,2.296,13.471,334,5,
74.4094,2.20123,11.1206,2.296,13.471,334,5,
74.4095,2.20093,11.1237,2.296,13.471,334,5,
74.4095,2.20093,11.1221,2.296,13.471,334,5,
74.4095,2.20123,11.1282,2.296,13.471,334,5,
74.4096,2.20093,11.1343,2.296,13.471,334,5,
74.4096,2.20123,11.1343,2.296,13.471,334,5,
74.4096,2.20123,11.1343,2.296,13.471,334,5,
74.4097,2.20062,11.1374,2.296,13.471,334,5,
74.4097,2.20093,11.1374,2.296,13.471,334,5,
74.4097,2.20093,11.1343,2.296,13.471,334,5,
74.4098,2.20123,11.1374,2.296,13.471,334,5,
74.4098,2.20093,11.1328,2.296,13.471,334,5,
74.4098,2.20062,11.1359,2.296,13.471,334,5,
74.4099,2.20093,11.1359,2.296,13.471,334,5,
74.4099,2.20093,11.1359,2.296,13.471,334,5,
74.4099,2.20032,11.1374,2.296,13.471,334,5,
74.41,2.20062,11.1359,2.296,13.471,334,5,
74.41,2.2049,11.1374,2.296,13.471,334,5,
74.41,2.20581,11.1343,2.296,13.471,334,5,
74.4101,2.20581,11.1328,2.296,13.471,334,5,
74.4101,2.20612,11.1359,2.296,13.471,334,5,
74.4101,2.20612,11.1313,2.296,13.471,334,5,
74.4102,2.20581,11.1343,2.296,13.471,334,5,
74.4102,2.2052,11.1313,2.296,13.471,334,5,
74.4102,2.2052,11.1359,2.296,13.471,334,5,
74.4103,2.20612,11.1359,2.296,13.471,334,5,
74.4103,2.20581,11.1343,2.296,13.471,334,5,
74.4103,2.20581,11.1343,2.296,13.471,334,5,
74.4104,2.20551,11.1359,2.296,13.471,334,5,
74.4104,2.20673,11.1465,2.296,13.471,334,5,
74.4104,2.21039,11.1481,2.296,13.471,334,5,
74.4105,2.21069,11.1481,2.296,13.471,334,5,
74.4105,2.21039,11.145,2.296,13.471,334,5,
74.4105,2.21039,11.1465,2.296,13.471,334,5,
74.4106,2.211,11.145,2.296,13.471,334,5,
74.4106,2.211,11.145,2.296,13.471,334,5,
74.4106,2.21039,11.1435,2.296,13.471,334,5,
74.4107,2.21039,11.1481,2.296,13.471,334,5,
74.4107,2.21069,11.1435,2.296,13.471,334,5,
74.4107,2.21466,11.1435,2.296,13.471,334,5,
74.4108,2.21588,11.1496,2.296,13.471,334,5,
74.4108,2.21558,11.1496,2.296,13.471,334,5,
74.4108,2.21497,11.1465,1.958,13.471,334,5,
74.4109,2.21619,11.1465,1.958,13.471,334,5,
74.4109,2.21619,11.145,1.958,13.471,334,5,
74.4109,2.21588,11.1481,1.958,13.471,334,5,
74.411,2.21527,11.145,1.958,13.471,334,5,
74.411,2.22046,11.145,1.958,13.471,334,5,
74.411,2.22076,11.1465,1.958,13.471,334,5,
74.4111,2.22076,11.1435,1.958,13.471,334,5,
74.4111,2.22076,11.1435,1.958,13.471,334,5,
74.4111,2.22046,11.1481,1.958,13.471,334,5,
74.4112,2.22015,11.1465,1.958,13.471,334,5,
74.4112,2.22015,11.145,1.958,13.471,334,5,
74.4112,2.22534,11.1465,1.958,13.471,334,5,
74.4113,2.22565,11.1465,1.958,13.471,334,5,
74.4113,2.22534,11.1588,1.958,13.471,334,5,
74.4113,2.22534,11.1603,1.958,13.471,334,5,
74.4114,2.22565,11.1542,1.958,13.471,334,5,
74.4114,2.22534,11.1588,1.958,13.471,334,5,
74.4114,2.23053,11.1588,1.958,13.471,334,5,
74.4115,2.22961,11.1603,1.958,13.471,334,5,
74.4115,2.23022,11.1603,1.958,13.471,334,5,
74.4115,2.23022,11.1572,1.958,13.471,334,5,
74.4116,2.23022,11.1572,1.958,13.471,334,5,
74.4116,2.22992,11.1588,1.958,13.471,334,5,
74.4116,2.23511,11.1588,1.958,13.471,334,5,
74.4117,2.23511,11.1572,1.958,13.471,334,5,
74.4117,2.2348,11.1603,1.958,13.471,334,5,
74.4117,2.2348,11.1557,1.958,13.471,334,5,
74.4118,2.23541,11.1572,1.958,13.471,334,5,
74.4118,2.23511,11.1588,1.958,13.471,334,5,
74.4118,2.23999,11.1572,1.958,13.471,334,5,
74.4119,2.23969,11.1572,1.958,13.471,334,5,
74.4119,2.23907,11.1557,1.958,13.471,334,5,
74.4119,2.23999,11.1572,1.958,13.471,334,5,
74.412,2.23969,11.1588,1.958,13.471,334,5,
74.412,2.24426,11.1618,1.958,13.471,334,5,
74.412,2.24609,11.1588,1.958,13.471,334,5,
74.4121,2.24487,11.1603,1.958,13.471,334,5,
74.4121,2.24518,11.1588,1.958,13.471,334,5,
74.4121,2.24518,11.1572,1.958,13.471,334,5,
74.4122,2.24945,11.1603,1.958,13.471,334,5,
74.4122,2.25037,11.1664,1.958,13.471,334,5,
74.4122,2.25006,11.171,1.958,13.471,334,5,
74.4123,2.25006,11.171,1.958,13.471,334,5,
74.4123,2.24976,11.1725,1.958,13.471,334,5,
74.4123,2.25189,11.1694,1.958,13.471,334,5,
74.4124,2.25464,11.1725,1.958,13.471,334,5,
74.4124,2.25494,11.1694,1.958,13.471,334,5,
74.4124,2.25525,11.171,1.958,13.471,334,5,
74.4125,2.25525,11.1725,1.958,13.471,334,5,
74.4125,2.25708,11.1725,1.958,13.471,334,5,
74.4125,2.25983,11.171,1.958,13.471,334,5,
74.4126,2.25983,11.1725,1.958,13.471,334,5,
74.4126,2.25952,11.171,1.958,13.471,334,5,
74.4126,2.25983,11.1679,1.958,13.471,334,5,
74.4127,2.26318,11.1694,1.958,13.471,334,5,
74.4127,2.26501,11.171,1.958,13.471,334,5,
74.4127,2.2644,11.171,1.958,13.471,334,5,
74.4128,2.2644,11.171,1.958,13.471,334,5,
74.4128,2.2641,11.1679,1.958,13.471,334,5,
74.4128,2.26898,11.1679,1.958,13.471,334,5,
74.4129,2.26898,11.1694,1.958,13.471,334,5,
74.4129,2.26959,11.1694,1.958,13.471,334,5,
74.4129,2.26929,11.1694,1.958,13.471,334,5,
74.413,2.27142,11.1725,1.958,13.471,334,5,
74.413,2.27448,11.1725,1.958,13.471,334,5,
74.413,2.27448,11.171,1.958,13.471,334,5,
74.4131,2.27478,11.171,1.958,13.471,334,5,
74.4131,2.27417,11.171,1.958,13.471,334,5,
74.4131,2.27966,11.1832,1.958,13.471,334,5,
74.4132,2.27936,11.1847,1.958,13.471,334,5,
74.4132,2.27936,11.1862,1.958,13.471,334,5,
74.4132,2.27966,11.1847,1.958,13.471,334,5,
74.4133,2.28271,11.1832,1.958,13.471,334,5,
74.4133,2.28424,11.1786,1.958,13.471,334,5,
74.4133,2.28394,11.1847,1.958,13.471,334,5,
74.4134,2.28424,11.1847,1.958,13.471,334,5,
74.4134,2.28638,11.1816,1.958,13.471,334,5,
74.4134,2.28882,11.1832,1.958,13.471,334,5,
74.4135,2.28912,11.1847,1.958,13.471,334,5,
74.4135,2.28882,11.1832,1.958,13.471,334,5,
74.4135,2.29065,11.1832,1.958,13.471,334,5,
74.4136,2.2937,11.1816,1.958,13.471,334,5,
74.4136,2.29401,11.1847,1.958,13.471,334,5,
74.4136,2.29401,11.1816,1.958,13.471,334,5,
74.4137,2.29614,11.1832,1.958,13.471,334,5,
74.4137,2.29919,11.1816,1.958,13.471,334,5,
74.4137,2.29919,11.1847,1.958,13.471,334,5,
74.4138,2.29889,11.1847,1.958,13.471,334,5,
74.4138,2.30103,11.1816,1.958,13.471,334,5,
74.4138,2.30408,11.1832,1.958,13.471,334,5,
74.4139,2.30347,11.1801,1.958,13.471,334,5,
74.4139,2.30286,11.1862,1.958,13.471,334,5,
74.4139,2.30591,11.1816,1.958,13.471,334,5,
74.414,2.30896,11.1816,1.958,13.471,334,5,
74.414,2.30896,11.1847,1.958,13.471,334,5,
74.414,2.30865,11.1801,1.958,13.471,334,5,
74.4141,2.31262,11.1832,1.958,13.471,334,5,
74.4141,2.31384,11.1832,1.958,13.471,334,5,
74.4141,2.31323,11.1923,1.958,13.471,334,5,
74.4142,2.31384,11.1938,1.958,13.471,334,5,
74.4142,2.31812,11.1923,1.958,13.471,334,5,
74.4142,2.31781,11.1938,1.958,13.471,334,5,
74.4143,2.31842,11.1954,1.958,13.471,334,5,
74.4143,2.31903,11.1923,1.958,13.471,334,5,
74.4143,2.3233,11.1954,1.958,13.471,334,5,
74.4144,2.32361,11.1954,1.958,13.471,334,5,
74.4144,2.32422,11.1923,1.958,13.471,334,5,
74.4144,2.32727,11.1938,1.958,13.471,334,5,
74.4145,2.32758,11.1954,1.958,13.471,334,5,
74.4145,2.32849,11.1954,1.958,13.471,334,5,
74.4145,2.32819,11.1984,1.958,13.471,334,5,
74.4146,2.33337,11.1969,1.958,13.471,334,5,
74.4146,2.33368,11.1984,1.958,13.471,334,5,
74.4146,2.33337,11.1938,1.958,13.471,334,5,
74.4147,2.33795,11.1938,1.958,13.471,334,5,
74.4147,2.33856,11.1969,1.958,13.471,334,5,
74.4147,2.33887,11.1969,1.958,13.471,334,5,
74.4148,2.33887,11.1954,1.958,13.471,334,5,
74.4148,2.34406,11.2,1.958,13.471,334,5,
74.4148,2.34406,11.1984,1.958,13.471,334,5,
74.4149,2.34406,11.1969,1.958,13.471,334,5,
74.4149,2.34802,11.1923,1.958,13.471,334,5,
74.4149,2.34924,11.1938,1.958,13.471,334,5,
74.415,2.34894,11.1954,1.958,13.471,334,5,
74.415,2.35352,11.1969,1.958,13.471,334,5,
74.415,2.35352,11.1954,1.958,13.471,334,5,
74.4151,2.35352,11.1984,1.958,13.471,334,5,
74.4151,2.35321,11.1908,1.958,13.471,334,5,
74.4151,2.35809,11.2045,1.958,13.471,334,5,
74.4152,2.35809,11.2045,1.958,13.471,334,5,
74.4152,2.35809,11.2091,1.958,13.471,334,5,
74.4152,2.36237,11.2076,1.958,13.471,334,5,
74.4153,2.36298,11.2061,1.958,13.471,334,5,
74.4153,2.36237,11.2106,1.958,13.471,334,5,
74.4153,2.36725,11.2091,1.958,13.471,334,5,
74.4154,2.36725,11.2076,1.958,13.471,334,5,
74.4154,2.36694,11.2106,1.958,13.471,334,5,
74.4154,2.37,11.2076,1.958,13.471,334,5,
74.4155,2.37183,11.2106,1.958,13.471,334,5,
74.4155,2.37244,11.2061,1.958,13.471,334,5,
74.4155,2.37152,11.2091,1.958,13.471,334,5,
74.4156,2.37671,11.2076,1.958,13.471,334,5,
74.4156,2.37701,11.2076,1.958,13.471,334,5,
74.4156,2.37701,11.2076,1.958,13.471,334,5,
74.4157,2.38129,11.203,1.958,13.471,334,5,
74.4157,2.3822,11.2076,1.958,13.471,334,5,
74.4157,2.3819,11.2076,1.958,13.471,334,5,
74.4158,2.38647,11.2076,1.958,13.471,334,5,
74.4158,2.38678,11.2061,1.958,13.471,334,5,
74.4158,2.38678,11.2122,1.958,13.471,334,5,
74.4159,2.39044,11.2045,1.958,13.471,334,5,
74.4159,2.39166,11.2061,1.958,13.471,334,5,
74.4159,2.39197,11.2091,1.958,13.471,334,5,
74.416,2.3938,11.2061,1.958,13.471,334,5,
74.416,2.39655,11.2076,1.958,13.471,334,5,
74.416,2.39655,11.2076,1.958,13.471,334,5,
74.4161,2.39838,11.2091,1.958,13.471,334,5,
74.4161,2.40143,11.2091,1.958,13.471,334,5,
74.4161,2.40143,11.2061,1.958,13.471,334,5,
74.4162,2.40387,11.2198,1.958,13.471,334,5,
74.4162,2.40631,11.2213,1.958,13.471,334,5,
74.4162,2.40692,11.2198,1.958,13.471,334,5,
74.4163,2.40631,11.2198,1.958,13.471,334,5,
74.4163,2.4115,11.2228,1.958,13.471,334,5,
74.4163,2.4115,11.2198,1.958,13.471,334,5,
74.4164,2.41058,11.2183,1.958,13.471,334,5,
74.4164,2.41608,11.2198,1.958,13.471,334,5,
74.4164,2.41699,11.2213,1.958,13.471,334,5,
74.4165,2.41608,11.2228,1.958,13.471,334,5,
74.4165,2.42188,11.2213,1.958,13.471,334,5,
74.4165,2.42157,11.2228,1.958,13.471,334,5,
74.4166,2.42065,11.2228,1.958,13.471,334,5,
74.4166,2.42523,11.2228,1.958,13.471,334,5,
74.4166,2.42676,11.2183,1.958,13.471,334,5,
74.4167,2.42767,11.2213,1.958,13.471,334,5,
74.4167,2.43103,11.2213,1.958,13.471,334,5,
74.4167,2.43073,11.2183,1.958,13.471,334,5,
74.4168,2.43256,11.2167,1.958,13.471,334,5,
74.4168,2.43652,11.2213,1.958,13.471,334,5,
74.4168,2.43622,11.2198,1.958,13.471,334,5,
74.4169,2.44049,11.2198,1.958,13.471,334,5,
74.4169,2.4411,11.2228,1.958,13.471,334,5,
74.4169,2.4411,11.2183,1.958,13.471,334,5,
74.417,2.44568,11.2198,1.958,13.471,334,5,
74.417,2.44537,11.2183,1.958,13.471,334,5,
74.417,2.44537,11.2213,1.958,13.471,334,5,
74.4171,2.45056,11.2198,1.958,13.471,334,5,
74.4171,2.45117,11.2198,1.958,13.471,334,5,
74.4171,2.45056,11.2213,1.958,13.471,334,5,
74.4172,2.45575,11.2183,1.958,13.471,334,5,
74.4172,2.45575,11.2335,1.958,13.471,334,5,
74.4172,2.45941,11.232,1.958,13.471,334,5,
74.4173,2.46063,11.235,1.958,13.471,334,5,
74.4173,2.46033,11.232,1.958,13.471,334,5,
74.4173,2.4649,11.232,1.958,13.471,334,5,
74.4174,2.4649,11.2305,1.958,13.471,334,5,
74.4174,2.46552,11.232,1.958,13.471,334,5,
74.4174,2.47009,11.2305,1.958,13.471,334,5,
74.4175,2.47009,11.2335,1.958,13.471,334,5,
74.4175,2.47284,11.2305,1.958,13.471,334,5,
74.4175,2.47559,11.2335,1.958,13.471,334,5,
74.4176,2.47467,11.232,1.958,13.471,334,5,
74.4176,2.47986,11.232,1.958,13.471,334,5,
74.4176,2.47986,11.2305,1.958,13.471,334,5,
74.4177,2.47955,11.232,1.958,13.471,334,5,
74.4177,2.48535,11.2335,1.958,13.471,334,5,
74.4177,2.48474,11.232,1.958,13.471,334,5,
74.4178,2.48718,11.2366,1.958,13.471,334,5,
74.4178,2.49023,11.2335,1.958,13.471,334,5,
74.4178,2.48993,11.2305,1.958,13.471,334,5,
74.4179,2.49451,11.2335,1.958,13.471,334,5,
74.4179,2.49451,11.2335,1.958,13.471,334,5,
74.4179,2.49512,11.2335,1.958,13.471,334,5,
74.418,2.49969,11.2335,1.958,13.471,334,5,
74.418,2.5,11.2335,1.958,13.471,334,5,
74.418,2.50214,11.2335,1.958,13.471,334,5,
74.4181,2.50488,11.232,1.958,13.471,334,5,
74.4181,2.50458,11.235,1.958,13.471,334,5,
74.4181,2.50854,11.235,1.958,13.471,334,5,
74.4182,2.50946,11.232,1.958,13.471,334,5,
74.4182,2.50977,11.2335,1.958,13.471,334,5,
74.4182,2.51465,11.2366,1.958,13.471,334,5,
74.4183,2.51404,11.2412,1.958,13.471,334,5,
74.4183,2.51617,11.2442,1.958,13.471,334,5,
74.4183,2.51892,11.2427,1.958,13.471,334,5,
74.4184,2.51984,11.2427,1.958,13.471,334,5,
74.4184,2.5235,11.2457,1.958,13.471,334,5,
74.4184,2.52441,11.2442,1.958,13.471,334,5,
74.4185,2.52441,11.2427,1.958,13.471,334,5,
74.4185,2.52899,11.2427,1.958,13.471,334,5,
74.4185,2.52899,11.2457,1.958,13.471,334,5,
74.4186,2.5293,11.2457,1.958,13.471,334,5,
74.4186,2.53387,11.2442,1.958,13.471,334,5,
74.4186,2.53418,11.2457,1.958,13.471,334,5,
74.4187,2.53601,11.2442,1.958,13.471,334,5,
74.4187,2.53937,11.2442,1.958,13.471,334,5,
74.4187,2.53845,11.2457,1.958,13.471,334,5,
74.4188,2.54272,11.2442,1.958,13.471,334,5,
74.4188,2.54333,11.2427,1.958,13.471,334,5,
74.4188,2.54456,11.2427,1.958,13.471,334,5,
74.4189,2.54761,11.2442,1.958,13.471,334,5,
74.4189,2.54913,11.2442,1.958,13.471,334,5,
74.4189,2.54883,11.2442,1.958,13.471,334,5,
74.419,2.55432,11.2442,1.958,13.471,334,5,
74.419,2.55432,11.2442,1.958,13.471,334,5,
74.419,2.55402,11.2457,1.958,13.471,334,5,
74.4191,2.55859,11.2457,1.958,13.471,334,5,
74.4191,2.55859,11.2473,1.958,13.471,334,5,
74.4191,2.55859,11.2427,1.958,13.471,334,5,
74.4192,2.56348,11.2595,1.958,13.471,334,5,
74.4192,2.56256,11.2579,1.958,13.471,334,5,
74.4192,2.56348,11.2564,1.958,13.471,334,5,
74.4193,2.56775,11.2564,1.958,13.471,334,5,
74.4193,2.56836,11.2579,1.958,13.471,334,5,
74.4193,2.5705,11.2534,1.958,13.471,334,5,
74.4194,2.57355,11.2579,1.958,13.471,334,5,
74.4194,2.57324,11.2564,1.958,13.471,334,5,
74.4194,2.57507,11.2579,1.958,13.471,334,5,
74.4195,2.57843,11.2549,1.958,13.471,334,5,
74.4195,2.57874,11.2564,1.958,13.471,334,5,
74.4195,2.57965,11.2579,1.958,13.471,334,5,
74.4196,2.58331,11.2579,1.958,13.471,334,5,
74.4196,2.5827,11.2549,1.958,13.471,334,5,
74.4196,2.5827,11.261,1.958,13.471,334,5,
74.4197,2.58789,11.2549,1.958,13.471,334,5,
74.4197,2.5882,11.2579,1.958,13.471,334,5,
74.4197,2.58759,11.2579,1.958,13.471,334,5,
74.4198,2.59277,11.2579,1.958,13.471,334,5,
74.4198,2.59247,11.2534,1.958,13.471,334,5,
74.4198,2.59308,11.261,1.958,13.471,334,5,
74.4199,2.59796,11.2549,1.958,13.471,334,5,
74.4199,2.59796,11.2564,1.958,13.471,334,5,
74.4199,2.59796,11.2671,1.958,13.471,334,5,
74.42,2.60223,11.2686,1.958,13.471,334,5,
74.42,2.60254,11.2701,1.958,13.471,334,5,
74.42,2.60284,11.2701,1.958,13.471,334,5,
74.4201,2.60468,11.2701,1.958,13.471,334,5,
74.4201,2.60742,11.2717,1.958,13.471,334,5,
74.4201,2.60651,11.2671,1.958,13.471,334,5,
74.4202,2.60742,11.2686,1.958,13.471,334,5,
74.4202,2.61261,11.2656,1.958,13.471,334,5,
74.4202,2.61292,11.2671,1.958,13.471,334,5,
74.4203,2.61261,11.2671,1.958,13.471,334,5,
74.4203,2.61719,11.2656,1.958,13.471,334,5,
74.4203,2.61719,11.2701,1.958,13.471,334,5,
74.4204,2.61719,11.2686,1.958,13.471,334,5,
74.4204,2.61932,11.2671,1.958,13.471,334,5,
74.4204,2.62207,11.2686,1.958,13.471,334,5,
74.4205,2.62238,11.2701,1.958,13.471,334,5,
74.4205,2.62268,11.2717,1.958,13.471,334,5,
74.4205,2.62634,11.2701,1.958,13.471,334,5,
74.4206,2.62726,11.2701,1.958,13.471,334,5,
74.4206,2.62695,11.2686,1.958,13.471,334,5,
74.4206,2.62878,11.2671,1.958,13.471,334,5,
74.4207,2.63245,11.2686,1.958,13.471,334,5,
74.4207,2.63245,11.2701,1.958,13.471,334,5,
74.4207,2.63245,11.2656,1.958,13.471,334,5,
74.4208,2.63672,11.2671,1.958,13.471,334,5,
74.4208,2.63672,11.2778,1.958,13.471,334,5,
74.4208,2.63641,11.2854,1.958,13.471,334,5,
74.4209,2.63733,11.2839,1.958,13.471,334,5,
74.4209,2.64191,11.2808,1.958,13.471,334,5,
74.4209,2.64191,11.2808,1.958,13.471,334,5,
74.421,2.64191,11.2823,1.958,13.471,334,5,
74.421,2.64343,11.2823,1.958,13.471,334,5,
74.421,2.6474,11.2808,1.958,13.471,334,5,
74.4211,2.64709,11.2823,1.958,13.471,334,5,
74.4211,2.64679,11.2762,1.958,13.471,334,5,
74.4211,2.65198,11.2823,1.958,13.471,334,5,
74.4212,2.65137,11.2823,1.958,13.471,334,5,
74.4212,2.65167,11.2808,1.958,13.471,334,5,
74.4212,2.65137,11.2823,1.958,13.471,334,5,
74.4213,2.65686,11.2839,1.958,13.471,334,5,
74.4213,2.65686,11.2793,1.958,13.471,334,5,
74.4213,2.65625,11.2823,1.958,13.471,334,5,
74.4214,2.65686,11.2823,1.958,13.471,334,5,
74.4214,2.66174,11.2808,1.958,13.471,334,5,
74.4214,2.66144,11.2839,1.958,13.471,334,5,
74.4215,2.66205,11.2823,1.958,13.471,334,5,
74.4215,2.66113,11.2793,1.958,13.471,334,5,
74.4215,2.66632,11.2808,1.958,13.471,334,5,
74.4216,2.66602,11.2808,1.958,13.471,334,5,
74.4216,2.66693,11.2778,1.958,13.471,334,5,
74.4216,2.66632,11.2823,1.958,13.471,334,5,
74.4217,2.67151,11.2839,1.958,13.471,334,5,
74.4217,2.67181,11.2793,1.958,13.471,334,5,
74.4217,2.67151,11.2808,1.958,13.471,334,5,
74.4218,2.6712,11.2823,1.958,13.471,334,5,
74.4218,2.67578,11.2823,1.958,13.471,334,5,
74.4218,2.67609,11.2808,1.958,13.471,334,5,
74.4219,2.67578,11.2808,1.958,13.471,334,5,
74.4219,2.67609,11.2808,1.958,13.471,334,5,
74.4219,2.67914,11.2823,1.958,13.471,334,5,
74.422,2.68097,11.293,1.958,13.471,334,5,
74.422,2.68097,11.2946,1.958,13.471,334,5,
74.422,2.68127,11.2961,1.958,13.471,334,5,
74.4221,2.6828,11.2946,1.958,13.471,334,5,
74.4221,2.68524,11.2946,1.958,13.471,334,5,
74.4221,2.68555,11.2961,1.958,13.471,334,5,
74.4222,2.68585,11.2946,1.958,13.471,334,5,
74.4222,2.68555,11.2946,1.958,13.471,334,5,
74.4222,2.69073,11.2915,1.958,13.471,334,5,
74.4223,2.69104,11.293,1.958,13.471,334,5,
74.4223,2.69073,11.2915,1.958,13.471,334,5,
74.4223,2.69073,11.2946,1.958,13.471,334,5,
74.4224,2.69104,11.2946,1.958,13.471,334,5,
74.4224,2.69592,11.293,1.958,13.471,334,5,
74.4224,2.69531,11.2946,1.958,13.471,334,5,
74.4225,2.69562,11.2961,1.958,13.471,334,5,
74.4225,2.69531,11.2915,1.958,13.471,334,5,
74.4225,2.69775,11.2946,1.958,13.471,334,5,
74.4226,2.7005,11.2961,1.958,13.471,334,5,
74.4226,2.70081,11.2915,1.958,13.471,334,5,
74.4226,2.7005,11.2915,1.958,13.471,334,5,
74.4227,2.7002,11.293,1.958,13.471,334,5,
74.4227,2.70264,11.2976,1.958,13.471,334,5,
74.4227,2.70569,11.2961,1.958,13.471,334,5,
74.4228,2.70569,11.2946,1.958,13.471,334,5,
74.4228,2.70508,11.293,1.958,13.471,334,5,
74.4228,2.70569,11.2946,1.958,13.471,334,5,
74.4229,2.70752,11.2946,1.958,13.471,334,5,
74.4229,2.71088,11.2961,1.958,13.471,334,5,
74.4229,2.71118,11.2946,1.958,13.471,334,5,
74.423,2.71057,11.2976,1.958,13.471,334,5,
74.423,2.71027,11.2961,1.958,13.471,334,5,
74.423,2.71057,11.293,1.958,13.471,334,5,
74.4231,2.71545,11.29,1.958,13.471,334,5,
74.4231,2.71576,11.293,1.958,13.471,334,5,
74.4231,2.71545,11.2946,1.958,13.471,334,5,
74.4232,2.71515,11.293,1.958,13.471,334,5,
74.4232,2.71606,11.2915,1.958,13.471,334,5,
74.4232,2.71545,11.293,1.958,13.471,334,5,
74.4233,2.72034,11.2961,1.958,13.471,334,5,
74.4233,2.72064,11.2961,1.958,13.471,334,5,
74.4233,2.72064,11.2976,1.958,13.471,334,5,
74.4234,2.72064,11.2946,1.958,13.471,334,5,
74.4234,2.72064,11.2915,1.958,13.471,334,5,
74.4234,2.72095,11.2915,1.958,13.471,334,5,
74.4235,2.72522,11.2915,1.958,13.471,334,5,
74.4235,2.72614,11.2915,1.958,13.471,334,5,
74.4235,2.72522,11.293,1.958,13.471,334,5,
74.4236,2.72583,11.29,1.958,13.471,334,5,
74.4236,2.72522,11.2885,1.958,13.471,334,5,
74.4236,2.72522,11.293,1.958,13.471,334,5,
74.4237,2.72675,11.2946,0.438,13.471,334,5,
74.4237,2.7301,11.3037,0.438,13.471,334,5,
74.4237,2.7301,11.3068,0.438,13.471,334,5,
74.4238,2.73041,11.3037,0.438,13.471,334,5,
74.4238,2.7298,11.3052,0.438,13.471,334,5,
74.4238,2.7298,11.3022,0.438,13.471,334,5,
74.4239,2.7301,11.3068,0.438,13.471,334,5,
74.4239,2.73102,11.3068,0.438,13.471,334,5,
74.4239,2.73468,11.3037,0.438,13.471,334,5,
74.424,2.73468,11.3052,0.438,13.471,334,5,
74.424,2.73468,11.3083,0.438,13.471,334,5,
74.424,2.73468,11.3052,0.438,13.471,334,5,
74.4241,2.73468,11.3022,0.438,13.471,334,5,
74.4241,2.73438,11.3037,0.438,13.471,334,5,
74.4241,2.73529,11.3068,0.438,13.471,334,5,
74.4242,2.73468,11.3098,0.438,13.471,334,5,
74.4242,2.73987,11.3052,0.438,13.471,334,5,
74.4242,2.73956,11.3083,0.438,13.471,334,5,
74.4243,2.73926,11.3068,0.438,13.471,334,5,
74.4243,2.73987,11.3068,0.438,13.471,334,5,
74.4243,2.73987,11.3068,0.438,13.471,334,5,
74.4244,2.73987,11.3052,0.438,13.471,334,5,
74.4244,2.73956,11.3083,0.438,13.471,334,5,
74.4244,2.73956,11.3052,0.438,13.471,334,5,
74.4245,2.73926,11.3083,0.438,13.471,334,5,
74.4245,2.74231,11.3037,0.438,13.471,334,5,
74.4245,2.74506,11.3052,0.438,13.471,334,5,
74.4246,2.74475,11.3052,0.438,13.471,334,5,
74.4246,2.74506,11.3052,0.438,13.471,334,5,
74.4246,2.74536,11.3037,0.438,13.471,334,5,
74.4247,2.74475,11.3052,0.438,13.471,334,5,
74.4247,2.74445,11.3083,0.438,13.471,334,5,
74.4247,2.74536,11.3037,0.438,13.471,334,5,
74.4248,2.74506,11.3068,0.438,13.471,334,5,
74.4248,2.74506,11.3083,0.438,13.471,334,5,
74.4248,2.74384,11.3068,0.438,13.471,334,5,
74.4249,2.74445,11.3052,0.438,13.471,334,5,
74.4249,2.74902,11.3083,0.438,13.471,334,5,
74.4249,2.74933,11.3068,0.438,13.471,334,5,
74.425,2.74963,11.3052,0.438,13.471,334,5,
74.425,2.74933,11.3037,0.438,13.471,334,5,
74.425,2.74933,11.3068,0.438,13.471,334,5,
74.4251,2.74963,11.3083,0.438,13.471,334,5,
74.4251,2.74872,11.3037,0.438,13.471,334,5,
74.4251,2.74963,11.3052,0.438,13.471,334,5,
74.4252,2.74963,11.3083,0.438,13.471,334,5,
74.4252,2.75024,11.3052,0.438,13.471,334,5,
74.4252,2.74994,11.3052,0.438,13.471,334,5,
74.4253,2.74994,11.3007,0.438,13.471,334,5,
74.4253,2.74994,11.3068,0.438,13.471,334,5,
74.4253,2.75085,11.3052,0.438,13.471,334,5,
74.4254,2.75085,11.3068,0.438,13.471,334,5,
74.4254,2.75055,11.3083,0.438,13.471,334,5,
74.4254,2.75055,11.3068,0.438,13.471,334,5,
74.4255,2.75452,11.3052,0.438,13.471,334,5,
74.4255,2.75574,11.3068,0.438,13.471,334,5,
74.4255,2.75513,11.3083,0.438,13.471,334,5,
74.4256,2.75543,11.3052,0.438,13.471,334,5,
74.4256,2.75574,11.3068,0.438,13.471,334,5,
74.4256,2.75513,11.3037,0.438,13.471,334,5,
74.4257,2.75574,11.3083,0.438,13.471,334,5,
74.4257,2.75513,11.3052,0.438,13.471,334,5,
74.4257,2.75421,11.3068,0.438,13.471,334,5,
74.4258,2.75513,11.3052,0.438,13.471,334,5,
74.4258,2.75513,11.3083,0.438,13.471,334,5,
74.4258,2.75452,11.3083,0.438,13.471,334,5,
74.4259,2.75421,11.3022,0.438,13.471,334,5,
74.4259,2.75391,11.3068,0.438,13.471,334,5,
74.4259,2.75421,11.3068,0.438,13.471,334,5,
74.426,2.75452,11.3083,0.438,13.471,334,5,
74.426,2.75421,11.3068,0.438,13.471,334,5,
74.426,2.75421,11.3068,0.438,13.471,334,5,
74.4261,2.7536,11.3098,0.438,13.471,334,5,
74.4261,2.75421,11.3083,0.438,13.471,334,5,
74.4261,2.7536,11.3068,0.438,13.471,334,5,
74.4262,2.75421,11.3052,0.438,13.471,334,5,
74.4262,2.75421,11.3083,0.438,13.471,334,5,
74.4262,2.75391,11.3144,0.438,13.471,334,5,
74.4263,2.75391,11.3174,0.438,13.471,334,5,
74.4263,2.75452,11.319,0.438,13.471,334,5,
74.4263,2.75391,11.3174,0.438,13.471,334,5,
74.4264,2.75421,11.3205,0.438,13.471,334,5,
74.4264,2.75482,11.3205,0.438,13.471,334,5,
74.4264,2.7536,11.3159,0.438,13.471,334,5,
74.4265,2.75452,11.3159,0.438,13.471,334,5,
74.4265,2.75421,11.319,0.438,13.471,334,5,
74.4265,2.75391,11.3174,0.438,13.471,334,5,
74.4266,2.75421,11.3174,0.438,13.471,334,5,
74.4266,2.75421,11.319,0.438,13.471,334,5,
74.4266,2.7536,11.319,0.438,13.471,334,5,
74.4267,2.75421,11.322,0.438,13.471,334,5,
74.4267,2.75421,11.319,0.438,13.471,334,5,
74.4267,2.75391,11.3159,0.438,13.471,334,5,
74.4268,2.75452,11.3159,0.438,13.471,334,5,
74.4268,2.75452,11.3113,0.438,13.471,334,5,
74.4268,2.75452,11.3174,0.438,13.471,334,5,
74.4269,2.75391,11.319,0.438,13.471,334,5,
74.4269,2.75391,11.3144,0.438,13.471,334,5,
74.4269,2.75421,11.319,0.438,13.471,334,5,
74.427,2.7533,11.3174,0.438,13.471,334,5,
74.427,2.7533,11.319,0.438,13.471,334,5,
74.427,2.75391,11.319,0.438,13.471,334,5,
74.4271,2.75482,11.3144,0.438,13.471,334,5,
74.4271,2.7536,11.319,0.438,13.471,334,5,
74.4271,2.75452,11.3174,0.438,13.471,334,5,
74.4272,2.75452,11.319,0.438,13.471,334,5,
74.4272,2.75482,11.3174,0.438,13.471,334,5,
74.4272,2.75421,11.319,0.438,13.471,334,5,
74.4273,2.7533,11.3174,0.438,13.471,334,5,
74.4273,2.75421,11.3174,0.438,13.471,334,5,
74.4273,2.75452,11.3205,0.438,13.471,334,5,
74.4274,2.75421,11.319,0.438,13.471,334,5,
74.4274,2.75024,11.3174,0.438,13.471,334,5,
74.4274,2.74902,11.3174,0.438,13.471,334,5,
74.4275,2.74963,11.3174,0.438,13.471,334,5,
74.4275,2.74963,11.319,0.438,13.471,334,5,
74.4275,2.74963,11.3174,0.438,13.471,334,5,
74.4276,2.74963,11.3174,0.438,13.471,334,5,
74.4276,2.74902,11.3174,0.438,13.471,334,5,
74.4276,2.74902,11.3205,0.438,13.471,334,5,
74.4277,2.74963,11.3174,0.438,13.471,334,5,
74.4277,2.74963,11.3205,0.438,13.471,334,5,
74.4277,2.74933,11.319,0.438,13.471,334,5,
74.4278,2.74933,11.3159,0.438,13.471,334,5,
74.4278,2.74963,11.319,0.438,13.471,334,5,
74.4278,2.74994,11.3159,0.438,13.471,334,5,
74.4279,2.75024,11.3144,0.438,13.471,334,5,
74.4279,2.74963,11.319,0.438,13.471,334,5,
74.4279,2.74902,11.3205,0.438,13.471,334,5,
74.428,2.74872,11.3174,0.438,13.471,334,5,
74.428,2.74567,11.3205,0.438,13.471,334,5,
74.428,2.74445,11.319,0.438,13.471,334,5,
74.4281,2.74445,11.3174,0.438,13.471,334,5,
74.4281,2.74475,11.3235,0.438,13.471,334,5,
74.4281,2.74506,11.3174,0.438,13.471,334,5,
74.4282,2.74506,11.3159,0.438,13.471,334,5,
74.4282,2.74475,11.3205,0.438,13.471,334,5,
74.4282,2.74475,11.322,0.438,13.471,334,5,
74.4283,2.74536,11.3235,0.438,13.471,334,5,
74.4283,2.74536,11.3174,0.438,13.471,334,5,
74.4283,2.74536,11.319,0.438,13.471,334,5,
74.4284,2.74536,11.319,0.438,13.471,334,5,
74.4284,2.74414,11.3174,0.438,13.471,334,5,
74.4284,2.73987,11.319,0.438,13.471,334,5,
74.4285,2.73865,11.319,0.438,13.471,334,5,
74.4285,2.73987,11.3159,0.438,13.471,334,5,
74.4285,2.73956,11.3174,0.438,13.471,334,5,
74.4286,2.73987,11.319,0.438,13.471,334,5,
74.4286,2.73956,11.3159,0.438,13.471,334,5,
74.4286,2.74017,11.3159,0.438,13.471,334,5,
74.4287,2.74017,11.3205,0.438,13.471,334,5,
74.4287,2.73956,11.319,0.438,13.471,334,5,
74.4287,2.73956,11.3159,0.438,13.471,334,5,
74.4288,2.73743,11.3159,0.438,13.471,334,5,
74.4288,2.73468,11.3205,0.438,13.471,334,5,
74.4288,2.73468,11.3174,0.438,13.471,334,5,
74.4289,2.73529,11.3159,0.438,13.471,334,5,
74.4289,2.73438,11.3174,0.438,13.471,334,5,
74.4289,2.73499,11.3174,0.438,13.471,334,5,
74.429,2.73529,11.319,0.438,13.471,334,5,
74.429,2.73468,11.3159,0.438,13.471,334,5,
74.429,2.73499,11.3205,0.438,13.471,334,5,
74.4291,2.73315,11.3205,0.438,13.471,334,5,
74.4291,2.72949,11.3174,0.438,13.471,334,5,
74.4291,2.7301,11.319,0.438,13.471,334,5,
74.4292,2.7301,11.319,0.438,13.471,334,5,
74.4292,2.7298,11.319,0.438,13.471,334,5,
74.4292,2.7298,11.319,0.438,13.471,334,5,
74.4293,2.7301,11.3174,0.438,13.471,334,5,
74.4293,2.72949,11.3174,0.438,13.471,334,5,
74.4293,2.72858,11.3159,0.438,13.471,334,5,
74.4294,2.72522,11.319,0.438,13.471,334,5,
74.4294,2.72552,11.3205,0.438,13.471,334,5,
74.4294,2.72552,11.3159,0.438,13.471,334,5,
74.4295,2.72522,11.3144,0.438,13.471,334,5,
74.4295,2.72491,11.3174,0.438,13.471,334,5,
74.4295,2.72461,11.3174,0.438,13.471,334,5,
74.4296,2.72522,11.3144,0.438,13.471,334,5,
74.4296,2.72003,11.319,0.438,13.471,334,5,
74.4296,2.72003,11.319,0.438,13.471,334,5,
74.4297,2.72064,11.3205,0.438,13.471,334,5,
74.4297,2.72003,11.3205,0.438,13.471,334,5,
74.4297,2.72003,11.3174,0.438,13.471,334,5,
74.4298,2.72003,11.3159,0.438,13.471,334,5,
74.4298,2.7179,11.3174,0.438,13.471,334,5,
74.4298,2.71545,11.3205,0.438,13.471,334,5,
74.4299,2.71484,11.319,0.438,13.471,334,5,
74.4299,2.71515,11.3174,0.438,13.471,334,5,
74.4299,2.71515,11.3174,0.438,13.471,334,5,
74.43,2.71484,11.3159,0.438,13.471,334,5,
74.43,2.71515,11.3205,0.438,13.471,334,5,
74.43,2.71057,11.319,0.438,13.471,334,5,
74.4301,2.71057,11.3205,0.438,13.471,334,5,
74.4301,2.71057,11.3174,0.438,13.471,334,5,
74.4301,2.71027,11.319,0.438,13.471,334,5,
74.4302,2.71027,11.3159,0.438,13.471,334,5,
74.4302,2.70844,11.3159,0.438,13.471,334,5,
74.4302,2.70508,11.3174,0.438,13.471,334,5,
74.4303,2.70569,11.3159,0.438,13.471,334,5,
74.4303,2.70538,11.3159,0.438,13.471,334,5,
74.4303,2.70538,11.3159,0.438,13.471,334,5,
74.4304,2.70538,11.3159,0.438,13.471,334,5,
74.4304,2.70111,11.3174,0.438,13.471,334,5,
74.4304,2.7005,11.3159,0.438,13.471,334,5,
74.4305,2.7005,11.3113,0.438,13.471,334,5,
74.4305,2.70081,11.3205,0.438,13.471,334,5,
74.4305,2.7002,11.319,0.438,13.471,334,5,
74.4306,2.69592,11.3174,0.438,13.471,334,5,
74.4306,2.69531,11.3159,0.438,13.471,334,5,
74.4306,2.69562,11.3174,0.438,13.471,334,5,
74.4307,2.69592,11.3174,0.438,13.471,334,5,
74.4307,2.69592,11.3144,0.438,13.471,334,5,
74.4307,2.69104,11.319,0.438,13.471,334,5,
74.4308,2.69043,11.3174,0.438,13.471,334,5,
74.4308,2.69104,11.319,0.438,13.471,334,5,
74.4308,2.69104,11.319,0.438,13.471,334,5,
74.4309,2.68738,11.3174,0.438,13.471,334,5,
74.4309,2.68494,11.3159,0.438,13.471,334,5,
74.4309,2.68585,11.319,0.438,13.471,334,5,
74.431,2.68646,11.3159,0.438,13.471,334,5,
74.431,2.68616,11.3174,0.438,13.471,334,5,
74.431,2.68127,11.319,0.438,13.471,334,5,
74.4311,2.68097,11.319,0.438,13.471,334,5,
74.4311,2.68066,11.319,0.438,13.471,334,5,
74.4311,2.68097,11.3174,0.438,13.471,334,5,
74.4312,2.6767,11.319,0.438,13.471,334,5,
74.4312,2.6767,11.319,0.438,13.471,334,5,
74.4312,2.67639,11.3174,0.438,13.471,334,5,
74.4313,2.6767,11.319,0.438,13.471,334,5,
74.4313,2.67303,11.319,0.438,13.471,334,5,
74.4313,2.6709,11.3205,0.438,13.471,334,5,
74.4314,2.67181,11.3174,0.438,13.471,334,5,
74.4314,2.67151,11.3159,0.438,13.471,334,5,
74.4314,2.66937,11.3174,0.438,13.471,334,5,
74.4315,2.66602,11.3174,0.438,13.471,334,5,
74.4315,2.66663,11.3174,0.438,13.471,334,5,
74.4315,2.66602,11.3174,0.438,13.471,334,5,
74.4316,2.66449,11.3174,0.438,13.471,334,5,
74.4316,2.66113,11.3174,0.438,13.471,334,5,
74.4316,2.66083,11.3174,0.438,13.471,334,5,
74.4317,2.66144,11.319,0.438,13.471,334,5,
74.4317,2.6593,11.3174,0.438,13.471,334,5,
74.4317,2.65656,11.319,0.438,13.471,334,5,
74.4318,2.65686,11.3174,0.438,13.471,334,5,
74.4318,2.65625,11.3174,0.438,13.471,334,5,
74.4318,2.6535,11.319,0.438,13.471,334,5,
74.4319,2.65137,11.3174,0.438,13.471,334,5,
74.4319,2.65167,11.3144,0.438,13.471,334,5,
74.4319,2.65198,11.322,0.438,13.471,334,5,
74.432,2.64801,11.3174,0.438,13.471,334,5,
74.432,2.64709,11.3159,0.438,13.471,334,5,
74.432,2.64648,11.319,0.438,13.471,334,5,
74.4321,2.64679,11.3159,0.438,13.471,334,5,
74.4321,2.6416,11.322,0.438,13.471,334,5,
74.4321,2.6413,11.319,0.438,13.471,334,5,
74.4322,2.64191,11.319,0.438,13.471,334,5,
74.4322,2.6416,11.3159,0.438,13.471,334,5,
74.4322,2.63763,11.3159,0.438,13.471,334,5,
74.4323,2.63672,11.3174,0.438,13.471,334,5,
74.4323,2.63672,11.3174,0.438,13.471,334,5,
74.4323,2.63672,11.3174,0.438,13.471,334,5,
74.4324,2.63184,11.3174,0.438,13.471,334,5,
74.4324,2.63214,11.319,0.438,13.471,334,5,
74.4324,2.63245,11.3159,0.438,13.471,334,5,
74.4325,2.63031,11.319,0.438,13.471,334,5,
74.4325,2.62756,11.3174,0.438,13.471,334,5,
74.4325,2.62726,11.3174,0.438,13.471,334,5,
74.4326,2.62787,11.3174,0.438,13.471,334,5,
74.4326,2.62238,11.319,0.438,13.471,334,5,
74.4326,2.62268,11.3174,0.438,13.471,334,5,
74.4327,2.62207,11.3174,0.438,13.471,334,5,
74.4327,2.62146,11.3174,0.438,13.471,334,5,
74.4327,2.61841,11.3174,0.438,13.471,334,5,
74.4328,2.61719,11.319,0.438,13.471,334,5,
74.4328,2.61749,11.3174,0.438,13.471,334,5,
74.4328,2.61719,11.3174,0.438,13.471,334,5,
74.4329,2.61261,11.3174,0.438,13.471,334,5,
74.4329,2.61261,11.3174,0.438,13.471,334,5,
74.4329,2.61261,11.3174,0.438,13.471,334,5,
74.433,2.61292,11.319,0.438,13.471,334,5,
74.433,2.60742,11.3174,0.438,13.471,334,5,
74.433,2.60742,11.3068,0.438,13.471,334,5,
74.4331,2.60773,11.3052,0.438,13.471,334,5,
74.4331,2.60742,11.3052,0.438,13.471,334,5,
74.4331,2.60284,11.3037,0.438,13.471,334,5,
74.4332,2.60284,11.3052,0.438,13.471,334,5,
74.4332,2.60284,11.3068,0.438,13.471,334,5,
74.4332,2.60254,11.3068,0.438,13.471,334,5,
74.4333,2.59766,11.3052,0.438,13.471,334,5,
74.4333,2.59705,11.3052,0.438,13.471,334,5,
74.4333,2.59796,11.3037,0.438,13.471,334,5,
74.4334,2.59552,11.3052,0.438,13.471,334,5,
74.4334,2.59277,11.3052,0.438,13.471,334,5,
74.4334,2.59247,11.3037,0.438,13.471,334,5,
74.4335,2.59277,11.3068,0.438,13.471,334,5,
74.4335,2.59094,11.3068,0.438,13.471,334,5,
74.4335,2.58789,11.3068,0.438,13.471,334,5,
74.4336,2.58789,11.3052,0.438,13.471,334,5,
74.4336,2.5885,11.3052,0.438,13.471,334,5,
74.4336,2.58728,11.3037,0.438,13.471,334,5,
74.4337,2.5827,11.3068,0.438,13.471,334,5,
74.4337,2.58362,11.3037,0.438,13.471,334,5,
74.4337,2.58362,11.3083,0.438,13.471,334,5,
74.4338,2.58301,11.3037,0.438,13.471,334,5,
74.4338,2.57843,11.3068,0.438,13.471,334,5,
74.4338,2.57935,11.3052,0.438,13.471,334,5,
74.4339,2.57874,11.3037,0.438,13.471,334,5,
74.4339,2.57874,11.3022,0.438,13.471,334,5,
74.4339,2.57446,11.3052,0.438,13.471,334,5,
74.434,2.57263,11.3052,0.438,13.471,334,5,
74.434,2.57385,11.3098,0.438,13.471,334,5,
74.434,2.57385,11.3052,0.438,13.471,334,5,
74.4341,2.56958,11.3052,0.438,13.471,334,5,
74.4341,2.56836,11.3037,0.438,13.471,334,5,
74.4341,2.56897,11.3052,0.438,13.471,334,5,
74.4342,2.56866,11.3068,0.438,13.471,334,5,
74.4342,2.56683,11.3068,0.438,13.471,334,5,
74.4342,2.56409,11.3052,0.438,13.471,334,5,
74.4343,2.56409,11.3052,0.438,13.471,334,5,
74.4343,2.56348,11.3052,0.438,13.471,334,5,
74.4343,2.56378,11.3068,0.438,13.471,334,5,
74.4344,2.5589,11.3037,0.438,13.471,334,5,
74.4344,2.5589,11.3083,0.438,13.471,334,5,
74.4344,2.5589,11.3052,0.438,13.471,334,5,
74.4345,2.55798,11.3022,0.438,13.471,334,5,
74.4345,2.55707,11.3037,0.438,13.471,334,5,
74.4345,2.55371,11.3037,0.438,13.471,334,5,
74.4346,2.55402,11.3037,0.438,13.471,334,5,
74.4346,2.55432,11.3037,0.438,13.471,334,5,
74.4346,2.55371,11.3068,0.438,13.471,334,5,
74.4347,2.54974,11.3068,0.438,13.471,334,5,
74.4347,2.54883,11.3068,0.438,13.471,334,5,
74.4347,2.54883,11.3083,0.438,13.471,334,5,
74.4348,2.54944,11.3068,0.438,13.471,334,5,
74.4348,2.54883,11.3068,0.438,13.471,334,5,
74.4348,2.54395,11.3037,0.438,13.471,334,5,
74.4349,2.54333,11.3052,0.438,13.471,334,5,
74.4349,2.54425,11.3052,0.438,13.471,334,5,
74.4349,2.54395,11.3052,0.438,13.471,334,5,
74.435,2.54425,11.3037,0.438,13.471,334,5,
74.435,2.53876,11.3068,0.438,13.471,334,5,
74.435,2.53937,11.3052,0.438,13.471,334,5,
74.4351,2.53876,11.3052,0.438,13.471,334,5,
74.4351,2.53998,11.3068,0.438,13.471,334,5,
74.4351,2.53815,11.3052,0.438,13.471,334,5,
74.4352,2.53418,11.3037,0.438,13.471,334,5,
74.4352,2.53357,11.3068,0.438,13.471,334,5,
74.4352,2.53357,11.3052,0.438,13.471,334,5,
74.4353,2.53448,11.3052,0.438,13.471,334,5,
74.4353,2.53418,11.3052,0.438,13.471,334,5,
74.4353,2.53235,11.3037,0.438,13.471,334,5,
74.4354,2.5296,11.3098,0.438,13.471,334,5,
74.4354,2.5293,11.3037,0.438,13.471,334,5,
74.4354,2.5293,11.3052,0.438,13.471,334,5,
74.4355,2.52899,11.3068,0.438,13.471,334,5,
74.4355,2.5293,11.3068,0.438,13.471,334,5,
74.4355,2.52441,11.3037,0.438,13.471,334,5,
74.4356,2.52472,11.3068,0.438,13.471,334,5,
74.4356,2.52472,11.3052,0.438,13.471,334,5,
74.4356,2.52411,11.3068,0.438,13.471,334,5,
74.4357,2.52411,11.3052,0.438,13.471,334,5,
74.4357,2.5238,11.3083,0.438,13.471,334,5,
74.4357,2.51892,11.293,0.438,13.471,334,5,
74.4358,2.51892,11.29,0.438,13.471,334,5,
74.4358,2.51984,11.2946,0.438,13.471,334,5,
74.4358,2.51953,11.2961,0.438,13.471,334,5,
74.4359,2.51984,11.293,0.438,13.471,334,5,
74.4359,2.51984,11.293,0.438,13.471,334,5,
74.4359,2.51495,11.2961,0.438,13.471,334,5,
74.436,2.51404,11.2915,0.438,13.471,334,5,
74.436,2.51465,11.293,0.438,13.471,334,5,
74.436,2.51495,11.2915,0.438,13.471,334,5,
74.4361,2.51495,11.2946,0.438,13.471,334,5,
74.4361,2.51526,11.293,0.438,13.471,334,5,
74.4361,2.51068,11.2946,0.438,13.471,334,5,
74.4362,2.51038,11.293,0.438,13.471,334,5,
74.4362,2.51038,11.2915,0.438,13.471,334,5,
74.4362,2.50977,11.293,0.438,13.471,334,5,
74.4363,2.51038,11.2961,0.438,13.471,334,5,
74.4363,2.51038,11.29,0.438,13.471,334,5,
74.4363,2.50641,11.293,0.438,13.471,334,5,
74.4364,2.50519,11.2946,0.438,13.471,334,5,
74.4364,2.50641,11.293,0.438,13.471,334,5,
74.4364,2.50519,11.2915,0.438,13.471,334,5,
74.4365,2.50519,11.2946,0.438,13.471,334,5,
74.4365,2.50519,11.2915,0.438,13.471,334,5,
74.4365,2.50519,11.2946,0.438,13.471,334,5,
74.4366,2.50061,11.293,0.438,13.471,334,5,
74.4366,2.50092,11.2915,0.438,13.471,334,5,
74.4366,2.49969,11.293,0.438,13.471,334,5,
74.4367,2.5,11.2946,0.438,13.471,334,5,
74.4367,2.5,11.2946,0.438,13.471,334,5,
74.4367,2.50031,11.2915,0.438,13.471,334,5,
74.4368,2.49481,11.2915,0.438,13.471,334,5,
74.4368,2.49512,11.2915,0.438,13.471,334,5,
74.4368,2.49481,11.29,0.438,13.471,334,5,
74.4369,2.49481,11.293,0.438,13.471,334,5,
74.4369,2.49481,11.29,0.438,13.471,334,5,
74.4369,2.4939,11.293,0.438,13.471,334,5,
74.437,2.49023,11.2961,0.438,13.471,334,5,
74.437,2.49054,11.293,0.438,13.471,334,5,
74.437,2.48993,11.2915,0.438,13.471,334,5,
74.4371,2.48962,11.293,0.438,13.471,334,5,
74.4371,2.48962,11.293,0.438,13.471,334,5,
74.4371,2.48993,11.293,0.438,13.471,334,5,
74.4372,2.49023,11.2961,0.438,13.471,334,5,
74.4372,2.48474,11.2946,0.438,13.471,334,5,
74.4372,2.48444,11.29,0.438,13.471,334,5,
74.4373,2.48535,11.2946,0.438,13.471,334,5,
74.4373,2.48474,11.2961,0.438,13.471,334,5,
74.4373,2.48474,11.293,0.438,13.471,334,5,
74.4374,2.48474,11.2946,0.438,13.471,334,5,
74.4374,2.48169,11.293,0.438,13.471,334,5,
74.4374,2.48047,11.2946,0.438,13.471,334,5,
74.4375,2.48047,11.293,0.438,13.471,334,5,
74.4375,2.47986,11.2885,0.438,13.471,334,5,
74.4375,2.47955,11.2839,0.438,13.471,334,5,
74.4376,2.48047,11.2823,0.438,13.471,334,5,
74.4376,2.47955,11.2793,0.438,13.471,334,5,
74.4376,2.47467,11.2823,0.438,13.471,334,5,
74.4377,2.47559,11.2808,0.438,13.471,334,5,
74.4377,2.47559,11.2808,0.438,13.471,334,5,
74.4377,2.47559,11.2808,0.438,13.471,334,5,
74.4378,2.47498,11.2793,0.438,13.471,334,5,
74.4378,2.47467,11.2823,0.438,13.471,334,5,
74.4378,2.47131,11.2808,0.438,13.471,334,5,
74.4379,2.4704,11.2839,0.438,13.471,334,5,
74.4379,2.46948,11.2823,0.438,13.471,334,5,
74.4379,2.47009,11.2854,0.438,13.471,334,5,
74.438,2.4707,11.2808,0.438,13.471,334,5,
74.438,2.46979,11.2823,0.438,13.471,334,5,
