6300-SECPT.acq
2 msec/sample
6 channels
RSP, X, RSPEC-R
Volts
EDA, Y, PPGED-R
microsiemens
ECG R-R
Seconds
Respiration Rate
BPM
C7 - EDR
Peaks
C14 - Control
Volts
min,CH1,CH14,CH40,CH42,CH47,CH54,
,90517,90517,90517,90517,90517,90517,
2.8595,4.06982,9.58405,1.326,5.57414,17,5,
2.85953,4.06738,9.58252,1.326,5.57414,17,5,
2.85957,4.06738,9.58405,1.326,5.57414,17,5,
2.8596,4.06769,9.58252,1.326,5.57414,17,5,
2.85963,4.06494,9.5932,1.326,5.57414,17,5,
2.85967,4.0625,9.59473,1.326,5.57414,17,5,
2.8597,4.06281,9.59778,1.326,5.57414,17,5,
2.85973,4.06281,9.59473,1.326,5.57414,17,5,
2.85977,4.05914,9.59625,1.326,5.57414,17,5,
2.8598,4.05731,9.60999,1.326,5.57414,17,5,
2.85983,4.05762,9.60846,1.326,5.57414,17,5,
2.85987,4.05792,9.60846,1.326,5.57414,17,5,
2.8599,4.05457,9.60541,1.326,5.57414,17,5,
2.85993,4.05273,9.61456,1.326,5.57414,17,5,
2.85997,4.05273,9.61762,1.326,5.57414,17,5,
2.86,4.05304,9.62067,1.326,5.57414,17,5,
2.86003,4.05334,9.62067,1.326,5.57414,17,5,
2.86007,4.04755,9.61914,1.326,5.57414,17,5,
2.8601,4.04755,9.62982,1.326,5.57414,17,5,
2.86013,4.04816,9.63287,1.326,5.57414,17,5,
2.86017,4.04785,9.63135,1.326,5.57414,17,5,
2.8602,4.04327,9.63287,1.326,5.57414,17,5,
2.86023,4.04266,9.63593,1.326,5.57414,17,5,
2.86027,4.04297,9.63593,1.326,5.57414,17,5,
2.8603,4.04297,9.64508,1.326,5.57414,17,5,
2.86033,4.03992,9.64813,1.326,5.57414,17,5,
2.86037,4.03839,9.64813,1.326,5.57414,17,5,
2.8604,4.03778,9.64203,1.326,5.57414,17,5,
2.86043,4.0387,9.64508,1.326,5.57414,17,5,
2.86047,4.03809,9.64508,1.326,5.57414,17,5,
2.8605,4.0332,9.65576,1.326,5.57414,17,5,
2.86053,4.0332,9.65729,1.326,5.57414,17,5,
2.86057,4.0329,9.65881,1.326,5.57414,17,5,
2.8606,4.0329,9.65576,1.326,5.57414,17,5,
2.86063,4.03259,9.66644,1.326,5.57414,17,5,
2.86067,4.02863,9.66797,1.326,5.57414,17,5,
2.8607,4.02863,9.6695,1.326,5.57414,17,5,
2.86073,4.02832,9.6695,1.326,5.57414,17,5,
2.86077,4.02832,9.68018,1.326,5.57414,17,5,
2.8608,4.02527,9.68323,1.326,5.57414,17,5,
2.86083,4.02374,9.68018,1.326,5.57414,17,5,
2.86087,4.02344,9.68323,1.326,5.57414,17,5,
2.8609,4.02344,9.69696,1.326,5.57414,17,5,
2.86093,4.02344,9.68933,1.326,5.57414,17,5,
2.86097,4.02039,9.69544,1.326,5.57414,17,5,
2.861,4.01855,9.70764,1.326,5.57414,17,5,
2.86103,4.01886,9.70459,1.326,5.57414,17,5,
2.86107,4.01855,9.70764,1.326,5.57414,17,5,
2.8611,4.01855,9.71527,1.326,5.57414,17,5,
2.86113,4.01886,9.71985,1.326,5.57414,17,5,
2.86117,4.01367,9.7168,1.326,5.57414,17,5,
2.8612,4.01367,9.71985,1.326,5.57414,17,5,
2.86123,4.01398,9.73053,1.326,5.57414,17,5,
2.86127,4.01306,9.72748,1.326,5.57414,17,5,
2.8613,4.01367,9.73053,1.326,5.57414,17,5,
2.86133,4.00879,9.73969,1.326,5.57414,17,5,
2.86137,4.00848,9.74426,1.326,5.57414,17,5,
2.8614,4.00818,9.74121,1.326,5.57414,17,5,
2.86143,4.00848,9.74121,1.326,5.57414,17,5,
2.86147,4.00787,9.75342,1.326,5.57414,17,5,
2.8615,4.00848,9.75342,1.326,5.57414,17,5,
2.86153,4.0033,9.75342,1.326,5.57414,17,5,
2.86157,4.00421,9.75647,1.326,5.57414,17,5,
2.8616,4.00391,9.77173,1.326,5.57414,17,5,
2.86163,4.00391,9.76715,1.326,5.57414,17,5,
2.86167,4.0036,9.76868,1.326,5.57414,17,5,
2.8617,4.0033,9.7702,1.326,5.57414,17,5,
2.86173,3.99933,9.78241,1.326,5.57414,17,5,
2.86177,3.99841,9.77631,1.326,5.57414,17,5,
2.8618,3.99841,9.78088,1.326,5.57414,17,5,
2.86183,3.99872,9.78241,1.326,5.57414,17,5,
2.86187,3.99872,9.79309,1.326,5.57414,17,5,
2.8619,3.99872,9.79157,1.326,5.57414,17,5,
2.86193,3.99292,9.79614,1.326,5.57414,17,5,
2.86197,3.99445,9.7992,1.326,5.57414,17,5,
2.862,3.99384,9.80377,1.326,5.57414,17,5,
2.86203,3.99414,9.8053,1.326,5.57414,17,5,
2.86207,3.99414,9.80225,1.326,5.57414,17,5,
2.8621,3.99353,9.80377,1.326,5.57414,17,5,
2.86213,3.98895,9.81293,1.326,5.57414,17,5,
2.86217,3.98865,9.81445,1.326,5.57414,17,5,
2.8622,3.98926,9.81293,1.326,5.57414,17,5,
2.86223,3.98926,9.81751,1.326,5.57414,17,5,
2.86227,3.98865,9.82819,1.326,5.57414,17,5,
2.8623,3.98865,9.82819,1.326,5.57414,17,5,
2.86233,3.9859,9.82971,1.326,5.57414,17,5,
2.86237,3.98346,9.82666,1.326,5.57414,17,5,
2.8624,3.98376,9.82971,1.326,5.57414,17,5,
2.86243,3.98407,9.83582,1.326,5.57414,17,5,
2.86247,3.98438,9.84192,1.326,5.57414,17,5,
2.8625,3.98407,9.83734,1.326,5.57414,17,5,
2.86253,3.98376,9.84192,1.326,5.57414,17,5,
2.86257,3.98102,9.83887,1.326,5.57414,17,5,
2.8626,3.97949,9.83887,1.326,5.57414,17,5,
2.86263,3.97949,9.85565,1.326,5.57414,17,5,
2.86267,3.97888,9.8526,1.326,5.57414,17,5,
2.8627,3.97949,9.85718,1.326,5.57414,17,5,
2.86273,3.97949,9.85108,1.326,5.57414,17,5,
2.86277,3.97949,9.85413,1.326,5.57414,17,5,
2.8628,3.97614,9.85108,1.326,5.57414,17,5,
2.86283,3.97461,9.85413,1.326,5.57414,17,5,
2.86287,3.97369,9.86328,1.326,5.57414,17,5,
2.8629,3.97461,9.86633,1.326,5.57414,17,5,
2.86293,3.9743,9.86328,1.326,5.57414,17,5,
2.86297,3.97369,9.86481,1.326,5.57414,17,5,
2.863,3.9743,9.86481,1.326,5.57414,17,5,
2.86303,3.97461,9.86481,1.326,5.57414,17,5,
2.86307,3.96942,9.86328,1.326,5.57414,17,5,
2.8631,3.96973,9.86481,1.326,5.57414,17,5,
2.86313,3.96912,9.87396,1.326,5.57414,17,5,
2.86317,3.96942,9.87701,1.326,5.57414,17,5,
2.8632,3.96942,9.88007,1.326,5.57414,17,5,
2.86323,3.96973,9.87701,1.326,5.57414,17,5,
2.86327,3.96881,9.87701,1.326,5.57414,17,5,
2.8633,3.96881,9.87701,1.326,5.57414,17,5,
2.86333,3.96484,9.87701,1.326,5.57414,17,5,
2.86337,3.96393,9.87854,1.326,5.57414,17,5,
2.8634,3.96393,9.87701,1.326,5.57414,17,5,
2.86343,3.96454,9.87854,1.326,5.57414,17,5,
2.86347,3.96454,9.87701,1.326,5.57414,17,5,
2.8635,3.96484,9.88007,1.326,5.57414,17,5,
2.86353,3.96515,9.88922,1.326,5.57414,17,5,
2.86357,3.96179,9.88922,1.326,5.57414,17,5,
2.8636,3.96027,9.8938,1.326,5.57414,17,5,
2.86363,3.96057,9.88922,1.326,5.57414,17,5,
2.86367,3.96027,9.88922,1.326,5.57414,17,5,
2.8637,3.95966,9.89075,1.326,5.57414,17,5,
2.86373,3.96027,9.88617,1.326,5.57414,17,5,
2.86377,3.95996,9.8938,1.326,5.57414,17,5,
2.8638,3.95996,9.88922,1.326,5.57414,17,5,
2.86383,3.95935,9.88922,1.326,5.57414,17,5,
2.86387,3.95477,9.88922,1.326,5.57414,17,5,
2.8639,3.95508,9.8938,1.326,5.57414,17,5,
2.86393,3.95477,9.88922,1.326,5.57414,17,5,
2.86397,3.95447,9.88922,1.326,5.57414,17,5,
2.864,3.95508,9.88922,1.326,5.57414,17,5,
2.86403,3.95447,9.89075,1.326,5.57414,17,5,
2.86407,3.95477,9.89075,1.326,5.57414,17,5,
2.8641,3.95508,9.88922,1.326,5.57414,17,5,
2.86413,3.95172,9.88617,1.326,5.57414,17,5,
2.86417,3.9505,9.89227,1.326,5.57414,17,5,
2.8642,3.94989,9.8999,1.326,5.57414,17,5,
2.86423,3.9502,9.90143,1.326,5.57414,17,5,
2.86427,3.9502,9.8999,1.326,5.57414,17,5,
2.8643,3.94989,9.90295,1.326,5.57414,17,5,
2.86433,3.9502,9.90295,1.326,5.57414,17,5,
2.86437,3.9502,9.90143,1.326,5.57414,17,5,
2.8644,3.9502,9.90143,1.326,5.57414,17,5,
2.86443,3.94958,9.90143,1.326,5.57414,17,5,
2.86447,3.9447,9.8999,1.326,5.57414,17,5,
2.8645,3.94531,9.90295,1.326,5.57414,17,5,
2.86453,3.9447,9.90143,1.326,5.57414,17,5,
2.86457,3.9444,9.89227,1.326,5.57414,17,5,
2.8646,3.94501,9.89227,1.326,5.57414,17,5,
2.86463,3.94531,9.89075,1.326,5.57414,17,5,
2.86467,3.94531,9.89227,1.326,5.57414,17,5,
2.8647,3.9447,9.87854,1.326,5.57414,17,5,
2.86473,3.94531,9.87396,1.326,5.57414,17,5,
2.86477,3.94531,9.86786,1.326,5.57414,17,5,
2.8648,3.94043,9.86176,1.326,5.57414,17,5,
2.86483,3.94012,9.8526,1.326,5.57414,17,5,
2.86487,3.94012,9.84039,1.326,5.57414,17,5,
2.8649,3.94012,9.82666,1.326,5.57414,17,5,
2.86493,3.94073,9.81751,1.326,5.57414,17,5,
2.86497,3.93982,9.80225,1.326,5.57414,17,5,
2.865,3.93982,9.78088,1.326,5.57414,17,5,
2.86503,3.93951,9.76715,1.326,5.57414,17,5,
2.86507,3.93982,9.75647,1.326,5.57414,17,5,
2.8651,3.94012,9.73511,1.326,5.57414,17,5,
2.86513,3.93982,9.70917,1.326,5.57414,17,5,
2.86517,3.93982,9.69544,1.326,5.57414,17,5,
2.8652,3.93555,9.6695,1.326,5.57414,17,5,
2.86523,3.93555,9.64356,1.326,5.57414,17,5,
2.86527,3.93524,9.61762,1.326,5.57414,17,5,
2.8653,3.93494,9.5871,1.326,5.57414,17,5,
2.86533,3.93494,9.56116,1.326,5.57414,17,5,
2.86537,3.93494,9.52759,1.326,5.57414,17,5,
2.8654,3.93494,9.50012,1.326,5.57414,17,5,
2.86543,3.93463,9.45892,1.326,5.57414,17,5,
2.86547,3.93585,9.42535,1.326,5.57414,17,5,
2.8655,3.93494,9.38721,1.326,5.57414,17,5,
2.86553,3.93555,9.34448,1.326,5.57414,17,5,
2.86557,3.93555,9.30786,1.326,5.57414,17,5,
2.8656,3.93555,9.26666,1.326,5.57414,17,5,
2.86563,3.93066,9.22546,1.326,5.57414,17,5,
2.86567,3.93066,9.18274,1.326,5.57414,17,5,
2.8657,3.93005,9.14002,1.326,5.57414,17,5,
2.86573,3.93005,9.09424,1.326,5.57414,17,5,
2.86577,3.93036,9.0622,1.326,5.57414,17,5,
2.8658,3.93066,9.01032,1.326,5.57414,17,5,
2.86583,3.93005,8.97522,1.326,5.57414,17,5,
2.86587,3.93005,8.9386,1.326,5.57414,17,5,
2.8659,3.93005,8.88977,1.326,5.57414,17,5,
2.86593,3.93036,8.8562,1.326,5.57414,17,5,
2.86597,3.93066,8.81348,1.326,5.57414,17,5,
2.866,3.93097,8.77838,1.326,5.57414,17,5,
2.86603,3.93066,8.74176,1.326,5.57414,17,5,
2.86607,3.93066,8.70667,1.326,5.57414,17,5,
2.8661,3.93066,8.67615,1.326,5.57414,17,5,
2.86613,3.92822,8.6441,1.326,5.57414,17,5,
2.86617,3.92578,8.60901,1.326,5.57414,17,5,
2.8662,3.92609,8.57849,1.326,5.57414,17,5,
2.86623,3.92639,8.54645,1.326,5.57414,17,5,
2.86627,3.92578,8.52203,1.326,5.57414,17,5,
2.8663,3.92517,8.49457,1.326,5.57414,17,5,
2.86633,3.92578,8.46863,1.326,5.57414,17,5,
2.86637,3.92609,8.44574,1.326,5.57414,17,5,
2.8664,3.92517,8.42438,1.326,5.57414,17,5,
2.86643,3.92517,8.39844,1.326,5.57414,17,5,
2.86647,3.92548,8.38471,1.326,5.57414,17,5,
2.8665,3.92548,8.36639,1.326,5.57414,17,5,
2.86653,3.92487,8.34656,1.326,5.57414,17,5,
2.86657,3.92487,8.33435,1.326,5.57414,17,5,
2.8666,3.92578,8.32062,1.326,5.57414,17,5,
2.86663,3.92487,8.30841,1.326,5.57414,17,5,
2.86667,3.92517,8.2962,1.326,5.57414,17,5,
2.8667,3.9212,8.28552,1.326,5.57414,17,5,
2.86673,3.91998,8.27332,1.326,5.57414,17,5,
2.86677,3.91998,8.26111,1.326,5.57414,17,5,
2.8668,3.91998,8.25195,1.326,5.57414,17,5,
2.86683,3.92029,8.24127,1.326,5.57414,17,5,
2.86687,3.92029,8.23822,1.326,5.57414,17,5,
2.8669,3.91998,8.22449,1.326,5.57414,17,5,
2.86693,3.92029,8.21686,1.326,5.57414,17,5,
2.86697,3.92029,8.21381,1.326,5.57414,17,5,
2.867,3.9212,8.20007,1.326,5.57414,17,5,
2.86703,3.9209,8.18939,1.326,5.57414,17,5,
2.86707,3.92029,8.17413,1.326,5.57414,17,5,
2.8671,3.9209,8.17566,1.326,5.57414,17,5,
2.86713,3.9209,8.16803,1.326,5.57414,17,5,
2.86717,3.91998,8.1543,1.326,5.57414,17,5,
2.8672,3.91968,8.14362,1.326,5.57414,17,5,
2.86723,3.91998,8.14056,1.326,5.57414,17,5,
2.86727,3.91815,8.12531,1.326,5.57414,17,5,
2.8673,3.9151,8.12836,1.326,5.57414,17,5,
2.86733,3.91602,8.11005,1.326,5.57414,17,5,
2.86737,3.9151,8.11615,1.326,5.57414,17,5,
2.8674,3.91571,8.10242,1.326,5.57414,17,5,
2.86743,3.91541,8.10394,1.326,5.57414,17,5,
2.86747,3.91541,8.09937,1.326,5.57414,17,5,
2.8675,3.91571,8.09326,1.326,5.57414,17,5,
2.86753,3.91602,8.09021,1.326,5.57414,17,5,
2.86757,3.91541,8.09021,1.326,5.57414,18,5,
2.8676,3.9151,8.09021,1.326,5.57414,18,5,
2.86763,3.91541,8.09021,1.326,5.57414,18,5,
2.86767,3.91541,8.09174,1.326,5.57414,18,5,
2.8677,3.91602,8.08868,1.326,5.57414,18,5,
2.86773,3.91602,8.09021,1.326,5.57414,18,5,
2.86777,3.91571,8.08411,1.326,5.57414,18,5,
2.8678,3.91602,8.07343,1.326,5.57414,18,5,
2.86783,3.91296,8.08106,1.326,5.57414,18,5,
2.86787,3.91052,8.078,1.326,5.57414,18,5,
2.8679,3.91022,8.07648,1.326,5.57414,18,5,
2.86793,3.91083,8.078,1.326,5.57414,18,5,
2.86797,3.91113,8.07953,1.326,5.57414,18,5,
2.868,3.91022,8.06885,1.326,5.57414,18,5,
2.86803,3.91052,8.06885,1.326,5.57414,18,5,
2.86807,3.91052,8.06122,1.326,5.57414,18,5,
2.8681,3.91052,8.05512,1.326,5.57414,18,5,
2.86813,3.91022,8.05359,1.326,5.57414,18,5,
2.86817,3.91083,8.05512,1.326,5.57414,18,5,
2.8682,3.91083,8.05206,1.326,5.57414,18,5,
2.86823,3.91113,8.04138,1.326,5.57414,18,5,
2.86827,3.91083,8.04138,1.326,5.57414,18,5,
2.8683,3.91022,8.04138,1.326,5.57414,18,5,
2.86833,3.91083,8.03986,1.326,5.57414,18,5,
2.86837,3.91113,8.04291,1.326,5.57414,18,5,
2.8684,3.91052,8.04138,1.326,5.57414,18,5,
2.86843,3.90533,8.04138,1.326,5.57414,18,5,
2.86847,3.90625,8.04291,1.326,5.57414,18,5,
2.8685,3.90594,8.05359,1.326,5.57414,18,5,
2.86853,3.90564,8.05206,1.326,5.57414,18,5,
2.86857,3.90564,8.05359,1.326,5.57414,18,5,
2.8686,3.90625,8.06427,1.326,5.57414,18,5,
2.86863,3.90564,8.06427,1.326,5.57414,18,5,
2.86867,3.90533,8.078,1.326,5.57414,18,5,
2.8687,3.90656,8.078,1.326,5.57414,18,5,
2.86873,3.90533,8.08563,1.326,5.57414,18,5,
2.86877,3.90564,8.09174,1.326,5.57414,18,5,
2.8688,3.90564,8.09021,1.326,5.57414,18,5,
2.86883,3.90533,8.08868,1.326,5.57414,18,5,
2.86887,3.90533,8.09021,1.326,5.57414,18,5,
2.8689,3.90564,8.08868,1.326,5.57414,18,5,
2.86893,3.90625,8.09174,1.326,5.57414,18,5,
2.86897,3.90137,8.09021,1.326,5.57414,18,5,
2.869,3.90137,8.09021,1.326,5.57414,18,5,
2.86903,3.90137,8.09021,1.326,5.57414,18,5,
2.86907,3.90167,8.09021,1.326,5.57414,18,5,
2.8691,3.90106,8.078,1.326,5.57414,18,5,
2.86913,3.90137,8.07343,1.326,5.57414,18,5,
2.86917,3.90137,8.08258,1.326,5.57414,18,5,
2.8692,3.90076,8.07953,1.326,5.57414,18,5,
2.86923,3.90167,8.08258,1.326,5.57414,18,5,
2.86927,3.90198,8.09479,1.326,5.57414,18,5,
2.8693,3.90137,8.08716,1.326,5.57414,18,5,
2.86933,3.90137,8.09174,1.326,5.57414,18,5,
2.86937,3.90076,8.10547,1.326,5.57414,18,5,
2.8694,3.90076,8.10394,1.326,5.57414,18,5,
2.86943,3.90137,8.10394,1.326,5.57414,18,5,
2.86947,3.89679,8.1131,1.326,5.57414,18,5,
2.8695,3.89587,8.11768,1.326,5.57414,18,5,
2.86953,3.89618,8.12836,1.326,5.57414,18,5,
2.86957,3.89618,8.12683,1.326,5.57414,18,5,
2.8696,3.89587,8.13904,1.326,5.57414,18,5,
2.86963,3.89648,8.13904,1.326,5.57414,18,5,
2.86967,3.89679,8.14972,1.326,5.57414,18,5,
2.8697,3.89618,8.15125,1.326,5.57414,18,5,
2.86973,3.89587,8.16498,1.326,5.57414,18,5,
2.86977,3.89648,8.16345,1.326,5.57414,18,5,
2.8698,3.89679,8.17413,1.326,5.57414,18,5,
2.86983,3.89648,8.17566,1.326,5.57414,18,5,
2.86987,3.89587,8.17719,1.326,5.57414,18,5,
2.8699,3.89587,8.17719,1.326,5.57414,18,5,
2.86993,3.89343,8.18939,1.326,5.57414,18,5,
2.86997,3.8916,8.19244,1.326,5.57414,18,5,
2.87,3.8913,8.19397,1.326,5.57414,18,5,
2.87003,3.89069,8.18939,1.326,5.57414,18,5,
2.87007,3.89099,8.18939,1.326,5.57414,18,5,
2.8701,3.8916,8.17413,1.326,5.57414,18,5,
2.87013,3.89099,8.17719,1.326,5.57414,18,5,
2.87017,3.8916,8.16345,1.326,5.57414,18,5,
2.8702,3.89099,8.16193,1.326,5.57414,18,5,
2.87023,3.89099,8.15277,1.326,5.57414,18,5,
2.87027,3.89069,8.13751,1.326,5.57414,18,5,
2.8703,3.8913,8.12836,1.326,5.57414,18,5,
2.87033,3.8913,8.11462,1.326,5.57414,18,5,
2.87037,3.8913,8.10394,1.326,5.57414,18,5,
2.8704,3.89099,8.08106,1.326,5.57414,18,5,
2.87043,3.88672,8.06732,1.326,5.57414,18,5,
2.87047,3.88611,8.04596,1.326,5.57414,18,5,
2.8705,3.88672,8.02918,1.326,5.57414,18,5,
2.87053,3.8858,8.01087,1.326,5.57414,18,5,
2.87057,3.88641,7.99408,1.326,5.57414,18,5,
2.8706,3.8855,7.96814,1.326,5.57414,18,5,
2.87063,3.88672,7.95288,1.326,5.57414,18,5,
2.87067,3.88672,7.93152,1.326,5.57414,18,5,
2.8707,3.88702,7.90863,1.326,5.57414,18,5,
2.87073,3.88611,7.89337,1.326,5.57414,18,5,
2.87077,3.88641,7.87048,1.326,5.57414,18,5,
2.8708,3.88611,7.84607,1.326,5.57414,18,5,
2.87083,3.88672,7.83539,1.326,5.57414,18,5,
2.87087,3.8858,7.80945,1.326,5.57414,18,5,
2.8709,3.8855,7.79572,1.326,5.57414,18,5,
2.87093,3.88367,7.77588,1.326,5.57414,18,5,
2.87097,3.88184,7.76062,1.326,5.57414,18,5,
2.871,3.88123,7.74841,1.326,5.57414,18,5,
2.87103,3.88123,7.73468,1.326,5.57414,18,5,
2.87107,3.88214,7.724,1.326,5.57414,18,5,
2.8711,3.88184,7.71484,1.326,5.57414,18,5,
2.87113,3.88062,7.70874,1.326,5.57414,18,5,
2.87117,3.88123,7.71027,1.326,5.57414,18,5,
2.8712,3.88184,7.71027,1.326,5.57414,18,5,
2.87123,3.88123,7.71179,1.326,5.57414,18,5,
2.87127,3.88123,7.71332,1.326,5.57414,18,5,
2.8713,3.88123,7.724,1.326,5.57414,18,5,
2.87133,3.88123,7.73468,1.326,5.57414,18,5,
2.87137,3.88153,7.74536,1.326,5.57414,18,5,
2.8714,3.88092,7.76215,1.326,5.57414,18,5,
2.87143,3.88153,7.78198,1.326,5.57414,18,5,
2.87147,3.88092,7.79877,1.326,5.57414,18,5,
2.8715,3.87665,7.82318,1.326,5.57414,18,5,
2.87153,3.87634,7.84607,1.326,5.57414,18,5,
2.87157,3.87634,7.86896,1.326,5.57414,18,5,
2.8716,3.87604,7.90558,1.326,5.57414,18,5,
2.87163,3.87634,7.92847,1.326,5.57414,18,5,
2.87167,3.87665,7.95899,1.326,5.57414,18,5,
2.8717,3.87604,7.98798,1.326,5.57414,18,5,
2.87173,3.87634,8.0246,1.326,5.57414,18,5,
2.87177,3.87634,8.06122,1.326,5.57414,18,5,
2.8718,3.87665,8.10089,1.326,5.57414,18,5,
2.87183,3.87634,8.12683,1.326,5.57414,18,5,
2.87187,3.87634,8.1665,1.326,5.57414,18,5,
2.8719,3.87695,8.20313,1.326,5.57414,18,5,
2.87193,3.87665,8.24585,1.326,5.57414,18,5,
2.87197,3.87695,8.28095,1.326,5.57414,18,5,
2.872,3.87604,8.31604,1.326,5.57414,18,5,
2.87203,3.87604,8.35724,1.326,5.57414,18,5,
2.87207,3.87604,8.39081,1.326,5.57414,18,5,
2.8721,3.87665,8.43048,1.326,5.57414,18,5,
2.87213,3.87634,8.46558,1.326,5.57414,18,5,
2.87217,3.87115,8.5022,1.326,5.57414,18,5,
2.8722,3.87146,8.54797,1.326,5.57414,18,5,
2.87223,3.87146,8.57849,1.326,5.57414,18,5,
2.87227,3.87146,8.61969,1.326,5.57414,18,5,
2.8723,3.87115,8.65173,1.326,5.57414,18,5,
2.87233,3.87207,8.68988,1.326,5.57414,18,5,
2.87237,3.87238,8.72345,1.326,5.57414,18,5,
2.8724,3.87115,8.76007,1.326,5.57414,18,5,
2.87243,3.87238,8.79059,1.326,5.57414,18,5,
2.87247,3.87207,8.83179,1.326,5.57414,18,5,
2.8725,3.87146,8.85925,1.326,5.57414,18,5,
2.87253,3.87115,8.89587,1.326,5.57414,18,5,
2.87257,3.87085,8.92181,1.326,5.57414,18,5,
2.8726,3.87115,8.95538,1.326,5.57414,18,5,
2.87263,3.87207,8.98438,1.326,5.57414,18,5,
2.87267,3.87146,9.00879,1.326,5.57414,18,5,
2.8727,3.87146,9.04083,1.326,5.57414,18,5,
2.87273,3.87115,9.06677,1.326,5.57414,18,5,
2.87277,3.87115,9.09119,1.326,5.57414,18,5,
2.8728,3.87146,9.11255,1.326,5.57414,18,5,
2.87283,3.87177,9.13544,1.326,5.57414,18,5,
2.87287,3.87146,9.15527,1.326,5.57414,18,5,
2.8729,3.87146,9.17969,1.326,5.57414,18,5,
2.87293,3.87177,9.2041,1.326,5.57414,18,5,
2.87297,3.87085,9.22699,1.326,5.57414,18,5,
2.873,3.87177,9.24225,1.326,5.57414,18,5,
2.87303,3.87146,9.26056,1.326,5.57414,18,5,
2.87307,3.87146,9.27887,1.326,5.57414,18,5,
2.8731,3.87146,9.30176,1.326,5.57414,18,5,
2.87313,3.8681,9.31549,1.326,5.57414,18,5,
2.87317,3.86658,9.33533,1.326,5.57414,18,5,
2.8732,3.86597,9.35059,1.326,5.57414,18,5,
2.87323,3.86627,9.37042,1.326,5.57414,18,5,
2.87327,3.86688,9.38721,1.326,5.57414,18,5,
2.8733,3.86658,9.39941,1.326,5.57414,18,5,
2.87333,3.86597,9.42383,1.326,5.57414,18,5,
2.87337,3.86627,9.43298,1.326,5.57414,18,5,
2.8734,3.86658,9.44824,1.326,5.57414,18,5,
2.87343,3.86627,9.4635,1.326,5.57414,18,5,
2.87347,3.86719,9.47266,1.326,5.57414,18,5,
2.8735,3.86597,9.49249,1.326,5.57414,18,5,
2.87353,3.86597,9.50623,1.326,5.57414,18,5,
2.87357,3.86658,9.51843,1.326,5.57414,18,5,
2.8736,3.86658,9.53522,1.326,5.57414,18,5,
2.87363,3.86627,9.5459,1.326,5.57414,18,5,
2.87367,3.86627,9.55811,1.326,5.57414,18,5,
2.8737,3.86627,9.57337,1.326,5.57414,18,5,
2.87373,3.86597,9.59015,1.326,5.57414,18,5,
2.87377,3.86688,9.60388,1.326,5.57414,18,5,
2.8738,3.86658,9.61609,1.326,5.57414,18,5,
2.87383,3.86658,9.62677,1.326,5.57414,18,5,
2.87387,3.86627,9.64508,1.326,5.57414,18,5,
2.8739,3.86658,9.65424,1.326,5.57414,18,5,
2.87393,3.86719,9.67255,1.326,5.57414,18,5,
2.87397,3.86749,9.68018,1.326,5.57414,18,5,
2.874,3.86627,9.69086,1.326,5.57414,18,5,
2.87403,3.86627,9.70306,1.326,5.57414,18,5,
2.87407,3.86627,9.71375,1.326,5.57414,18,5,
2.8741,3.86658,9.7168,1.326,5.57414,18,5,
2.87413,3.86627,9.73053,1.326,5.57414,18,5,
2.87417,3.86597,9.74121,1.326,5.57414,18,5,
2.8742,3.86658,9.75494,1.326,5.57414,18,5,
2.87423,3.86627,9.75952,1.326,5.57414,18,5,
2.87427,3.86658,9.7702,1.326,5.57414,18,5,
2.8743,3.86658,9.77631,1.326,5.57414,18,5,
2.87433,3.86627,9.77936,1.326,5.57414,18,5,
2.87437,3.86658,9.79157,1.326,5.57414,18,5,
2.8744,3.86627,9.79004,1.326,5.57414,18,5,
2.87443,3.86597,9.79309,1.326,5.57414,18,5,
2.87447,3.86749,9.80072,1.326,5.57414,18,5,
2.8745,3.87238,9.80377,1.326,5.57414,18,5,
2.87453,3.87115,9.8053,1.326,5.57414,18,5,
2.87457,3.87146,9.80225,1.326,5.57414,18,5,
2.8746,3.87146,9.80377,1.326,5.57414,18,5,
2.87463,3.87207,9.8053,1.326,5.57414,18,5,
2.87467,3.87238,9.80377,1.326,5.57414,18,5,
2.8747,3.87115,9.79004,1.326,5.57414,18,5,
2.87473,3.87146,9.78699,1.326,5.57414,18,5,
2.87477,3.87085,9.78088,1.326,5.57414,18,5,
2.8748,3.87115,9.76715,1.326,5.57414,18,5,
2.87483,3.87177,9.76257,1.326,5.57414,18,5,
2.87487,3.87115,9.74732,1.326,5.57414,18,5,
2.8749,3.87146,9.73358,1.326,5.57414,18,5,
2.87493,3.87115,9.72138,1.326,5.57414,18,5,
2.87497,3.87085,9.70306,1.326,5.57414,18,5,
2.875,3.87085,9.68475,1.326,5.57414,18,5,
2.87503,3.87115,9.66797,1.326,5.57414,18,5,
2.87507,3.87085,9.64966,1.326,5.57414,18,5,
2.8751,3.87085,9.63135,1.326,5.57414,18,5,
2.87513,3.87085,9.60846,1.326,5.57414,18,5,
2.87517,3.87146,9.58557,1.326,5.57414,18,5,
2.8752,3.87115,9.57031,1.326,5.57414,18,5,
2.87523,3.87177,9.55048,1.326,5.57414,18,5,
2.87527,3.87207,9.52911,1.326,5.57414,18,5,
2.8753,3.87146,9.51233,1.326,5.57414,18,5,
2.87533,3.87146,9.48944,1.326,5.57414,18,5,
2.87537,3.87115,9.47113,1.326,5.57414,18,5,
2.8754,3.87207,9.46045,1.326,5.57414,18,5,
2.87543,3.87085,9.43756,1.326,5.57414,18,5,
2.87547,3.87573,9.4223,1.326,5.57414,18,5,
2.8755,3.87634,9.41467,1.326,5.57414,18,5,
2.87553,3.87695,9.40094,1.326,5.57414,18,5,
2.87557,3.87634,9.38721,1.326,5.57414,18,5,
2.8756,3.87634,9.3811,1.326,5.57414,18,5,
2.87563,3.87695,9.37653,1.326,5.57414,18,5,
2.87567,3.87695,9.35974,1.326,5.57414,18,5,
2.8757,3.87604,9.35516,1.326,5.57414,18,5,
2.87573,3.87604,9.35059,1.326,5.57414,18,5,
2.87577,3.87604,9.34906,1.326,5.57414,18,5,
2.8758,3.87604,9.35059,1.326,5.57414,18,5,
2.87583,3.87695,9.33991,1.326,5.57414,18,5,
2.87587,3.87726,9.33838,1.326,5.57414,18,5,
2.8759,3.87634,9.33838,1.326,5.57414,18,5,
2.87593,3.87665,9.33838,1.326,5.57414,18,5,
2.87597,3.87695,9.35059,1.326,5.57414,18,5,
2.876,3.87665,9.34754,1.326,5.57414,18,5,
2.87603,3.87695,9.35211,1.326,5.57414,18,5,
2.87607,3.87634,9.34906,1.326,5.57414,18,5,
2.8761,3.87634,9.36737,1.326,5.57414,18,5,
2.87613,3.88153,9.36585,1.326,5.57414,18,5,
2.87617,3.88153,9.36432,1.326,5.57414,18,5,
2.8762,3.88184,9.37653,1.326,5.57414,18,5,
2.87623,3.88092,9.37347,1.326,5.57414,18,5,
2.87627,3.88153,9.38721,1.326,5.57414,18,5,
2.8763,3.88092,9.39026,1.326,5.57414,18,5,
2.87633,3.88123,9.39636,1.326,5.57414,18,5,
2.87637,3.88214,9.39941,1.326,5.57414,18,5,
2.8764,3.88153,9.40094,1.326,5.57414,18,5,
2.87643,3.88123,9.41315,1.326,5.57414,18,5,
2.87647,3.88123,9.41162,1.326,5.57414,18,5,
2.8765,3.88123,9.42535,1.326,5.57414,18,5,
2.87653,3.88123,9.4223,1.326,5.57414,18,5,
2.87657,3.88123,9.42535,1.326,5.57414,18,5,
2.8766,3.88092,9.44061,1.326,5.57414,18,5,
2.87663,3.88641,9.43604,1.326,5.57414,18,5,
2.87667,3.88672,9.44519,1.326,5.57414,18,5,
2.8767,3.88611,9.44824,1.326,5.57414,18,5,
2.87673,3.88611,9.44824,1.326,5.57414,18,5,
2.87677,3.88702,9.45587,1.326,5.57414,18,5,
2.8768,3.88672,9.46045,1.326,5.57414,18,5,
2.87683,3.88672,9.4574,1.326,5.57414,18,5,
2.87687,3.88672,9.47113,1.326,5.57414,18,5,
2.8769,3.88672,9.47266,1.326,5.57414,18,5,
2.87693,3.88611,9.47571,1.326,5.57414,18,5,
2.87697,3.88611,9.48486,1.326,5.57414,18,5,
2.877,3.88611,9.48792,1.326,5.57414,18,5,
2.87703,3.88672,9.49555,1.326,5.57414,18,5,
2.87707,3.89008,9.49555,1.326,5.57414,18,5,
2.8771,3.8913,9.50775,1.326,5.57414,18,5,
2.87713,3.8913,9.50775,1.326,5.57414,18,5,
2.87717,3.8916,9.51996,1.326,5.57414,18,5,
2.8772,3.89099,9.52149,1.326,5.57414,18,5,
2.87723,3.89099,9.53369,1.326,5.57414,18,5,
2.87727,3.89069,9.52911,1.326,5.57414,18,5,
2.8773,3.89099,9.54437,1.326,5.57414,18,5,
2.87733,3.89099,9.55505,1.326,5.57414,18,5,
2.87737,3.89099,9.55505,1.326,5.57414,18,5,
2.8774,3.89069,9.56879,1.326,5.57414,18,5,
2.87743,3.89587,9.57642,1.326,5.57414,18,5,
2.87747,3.89526,9.58405,1.326,5.57414,18,5,
2.8775,3.89587,9.59625,1.326,5.57414,18,5,
2.87753,3.89557,9.59473,1.326,5.57414,18,5,
2.87757,3.89587,9.60693,1.326,5.57414,18,5,
2.8776,3.89648,9.61609,1.326,5.57414,18,5,
2.87763,3.89557,9.62067,1.326,5.57414,18,5,
2.87767,3.89587,9.63287,1.326,5.57414,18,5,
2.8777,3.89587,9.63287,1.326,5.57414,18,5,
2.87773,3.89648,9.64661,1.326,5.57414,18,5,
2.87777,3.90137,9.64508,1.326,5.57414,18,5,
2.8778,3.90106,9.65729,1.326,5.57414,18,5,
2.87783,3.89984,9.65729,1.326,5.57414,18,5,
2.87787,3.90137,9.66797,1.326,5.57414,18,5,
2.8779,3.90106,9.6695,1.326,5.57414,18,5,
2.87793,3.90106,9.6695,1.326,5.57414,18,5,
2.87797,3.90106,9.66797,1.326,5.57414,18,5,
2.878,3.90076,9.6695,1.326,5.57414,18,5,
2.87803,3.90167,9.6695,1.326,5.57414,18,5,
2.87807,3.90533,9.6695,1.326,5.57414,18,5,
2.8781,3.90503,9.66034,1.326,5.57414,18,5,
2.87813,3.90594,9.65576,1.326,5.57414,18,5,
2.87817,3.90656,9.65118,1.326,5.57414,18,5,
2.8782,3.90564,9.64508,1.326,5.57414,18,5,
2.87823,3.90594,9.63287,1.326,5.57414,18,5,
2.87827,3.90625,9.62982,1.326,5.57414,18,5,
2.8783,3.90656,9.61762,1.326,5.57414,18,5,
2.87833,3.90869,9.61456,1.326,5.57414,18,5,
2.87837,3.91022,9.60846,1.326,5.57414,18,5,
2.8784,3.91083,9.5932,1.326,5.57414,18,5,
2.87843,3.91113,9.59473,1.326,5.57414,18,5,
2.87847,3.91052,9.57947,1.326,5.57414,18,5,
2.8785,3.91052,9.57794,1.326,5.57414,18,5,
2.87853,3.91052,9.57031,1.326,5.57414,18,5,
2.87857,3.91113,9.56116,1.326,5.57414,18,5,
2.8786,3.91052,9.55963,1.326,5.57414,18,5,
2.87863,3.91541,9.55658,1.326,5.57414,18,5,
2.87867,3.91602,9.552,1.326,5.57414,18,5,
2.8787,3.91602,9.54437,1.326,5.57414,18,5,
2.87873,3.91541,9.5459,1.326,5.57414,18,5,
2.87877,3.91541,9.54743,1.326,5.57414,18,5,
2.8788,3.91602,9.54895,1.326,5.57414,18,5,
2.87883,3.91602,9.5459,1.326,5.57414,18,5,
2.87887,3.91541,9.5459,1.326,5.57414,18,5,
2.8789,3.92029,9.54285,1.326,5.57414,18,5,
2.87893,3.9209,9.5459,1.326,5.57414,18,5,
2.87897,3.92151,9.54285,1.326,5.57414,18,5,
2.879,3.9212,9.55963,1.326,5.57414,18,5,
2.87903,3.9209,9.55963,1.326,5.57414,18,5,
2.87907,3.9212,9.55963,1.326,5.57414,18,5,
2.8791,3.9212,9.57031,1.326,5.57414,18,5,
2.87913,3.92151,9.57184,1.326,5.57414,18,5,
2.87917,3.92639,9.57642,1.326,5.57414,18,5,
2.8792,3.92578,9.58405,1.326,5.57414,18,5,
2.87923,3.92609,9.59168,1.326,5.57414,18,5,
2.87927,3.92578,9.59778,1.326,5.57414,18,5,
2.8793,3.92548,9.60693,1.326,5.57414,18,5,
2.87933,3.92578,9.61151,1.326,5.57414,18,5,
2.87937,3.92517,9.62219,1.326,5.57414,18,5,
2.8794,3.92853,9.6283,1.326,5.57414,18,5,
2.87943,3.92975,9.63745,1.326,5.57414,18,5,
2.87947,3.93005,9.64661,1.326,5.57414,18,5,
2.8795,3.93005,9.65424,1.326,5.57414,18,5,
2.87953,3.93005,9.66034,1.326,5.57414,18,5,
2.87957,3.92975,9.66644,1.326,5.57414,18,5,
2.8796,3.93036,9.68323,1.326,5.57414,18,5,
2.87963,3.93066,9.68781,1.326,5.57414,18,5,
2.87967,3.93555,9.69544,1.326,5.57414,18,5,
2.8797,3.93494,9.70612,1.326,5.57414,18,5,
2.87973,3.93494,9.71832,1.326,5.57414,18,5,
2.87977,3.93555,9.72748,1.326,5.57414,18,5,
2.8798,3.93463,9.72748,1.326,5.57414,18,5,
2.87983,3.93555,9.74274,1.326,5.57414,18,5,
2.87987,3.93585,9.75342,1.326,5.57414,18,5,
2.8799,3.93982,9.76257,1.326,5.57414,18,5,
2.87993,3.93982,9.76715,1.326,5.57414,18,5,
2.87997,3.94012,9.77936,1.326,5.57414,18,5,
2.88,3.94043,9.79157,1.326,5.57414,18,5,
2.88003,3.94012,9.7992,1.326,5.57414,18,5,
2.88007,3.94043,9.80225,1.326,5.57414,18,5,
2.8801,3.94043,9.81445,1.326,5.57414,18,5,
2.88013,3.9444,9.82361,1.326,5.57414,18,5,
2.88017,3.9447,9.82514,1.326,5.57414,18,5,
2.8802,3.94501,9.84039,1.326,5.57414,18,5,
2.88023,3.94562,9.84955,1.326,5.57414,18,5,
2.88027,3.9447,9.85413,1.326,5.57414,18,5,
2.8803,3.94531,9.86939,1.326,5.57414,18,5,
2.88033,3.94531,9.87091,1.326,5.57414,18,5,
2.88037,3.94958,9.87854,1.326,5.57414,18,5,
2.8804,3.94897,9.88617,1.326,5.57414,18,5,
2.88043,3.9505,9.8938,1.326,5.57414,18,5,
2.88047,3.9505,9.90143,1.326,5.57414,18,5,
2.8805,3.94958,9.91058,1.326,5.57414,18,5,
2.88053,3.9502,9.91516,1.326,5.57414,18,5,
2.88057,3.94989,9.91974,1.326,5.57414,18,5,
2.8806,3.95416,9.92889,1.326,5.57414,18,5,
2.88063,3.95508,9.93805,1.326,5.57414,18,5,
2.88067,3.95447,9.93958,1.326,5.57414,18,5,
2.8807,3.95477,9.94721,1.326,5.57414,18,5,
2.88073,3.95447,9.95026,1.326,5.57414,18,5,
2.88077,3.95447,9.95331,1.326,5.57414,18,5,
2.8808,3.95508,9.96704,1.326,5.57414,18,5,
2.88083,3.95966,9.96399,1.326,5.57414,18,5,
2.88087,3.96057,9.97772,1.326,5.57414,18,5,
2.8809,3.96027,9.9762,1.326,5.57414,18,5,
2.88093,3.95935,9.9762,1.326,5.57414,18,5,
2.88097,3.95905,9.9884,1.326,5.57414,18,5,
2.881,3.96027,9.98688,1.326,5.57414,18,5,
2.88103,3.96301,9.9884,1.326,5.57414,18,5,
2.88107,3.96423,9.99909,1.326,5.57414,18,5,
2.8811,3.96484,9.99909,1.326,5.57414,18,5,
2.88113,3.96515,10.0021,1.326,5.57414,18,5,
2.88117,3.96515,10.0067,1.326,5.57414,18,5,
2.8812,3.96484,10.0113,1.326,5.57414,18,5,
2.88123,3.96454,10.0128,1.326,5.57414,18,5,
2.88127,3.96973,10.0128,1.326,5.57414,18,5,
2.8813,3.97003,10.0235,1.326,5.57414,18,5,
2.88133,3.96942,10.0235,1.326,5.57414,18,5,
2.88137,3.96973,10.0235,1.326,5.57414,18,5,
2.8814,3.96973,10.0235,1.326,5.57414,18,5,
2.88143,3.96881,10.0266,1.326,5.57414,18,5,
2.88147,3.97339,10.0388,1.326,5.57414,18,5,
2.8815,3.97491,10.0342,1.326,5.57414,18,5,
2.88153,3.97461,10.0357,1.326,5.57414,18,5,
2.88157,3.974,10.0372,1.326,5.57414,18,5,
2.8816,3.97491,10.0342,1.326,5.57414,18,5,
2.88163,3.97461,10.0342,1.326,5.57414,18,5,
2.88167,3.97736,10.0372,1.326,5.57414,18,5,
2.8817,3.97949,10.0372,1.326,5.57414,18,5,
2.88173,3.97919,10.0372,1.326,5.57414,18,5,
2.88177,3.97858,10.0388,1.326,5.57414,18,5,
2.8818,3.97949,10.0327,1.326,5.57414,18,5,
2.88183,3.97858,10.022,1.326,5.57414,18,5,
2.88187,3.9801,10.0266,1.326,5.57414,18,5,
2.8819,3.98376,10.0281,1.326,5.57414,18,5,
2.88193,3.98438,10.0159,1.326,5.57414,18,5,
2.88197,3.98407,10.0159,1.326,5.57414,18,5,
2.882,3.98407,10.0098,1.326,5.57414,18,5,
2.88203,3.98407,10.0021,1.326,5.57414,18,5,
2.88207,3.98438,9.99909,1.326,5.57414,18,5,
2.8821,3.98865,9.9884,1.326,5.57414,18,5,
2.88213,3.98926,9.9884,1.326,5.57414,18,5,
2.88217,3.98895,9.97772,1.326,5.57414,18,5,
2.8822,3.98987,9.97467,1.326,5.57414,18,5,
2.88223,3.98865,9.96552,1.326,5.57414,18,5,
2.88227,3.98926,9.96246,1.326,5.57414,18,5,
2.8823,3.99414,9.95178,1.326,5.57414,18,5,
2.88233,3.99384,9.94873,1.326,5.57414,18,5,
2.88237,3.99414,9.93652,1.326,5.57414,18,5,
2.8824,3.99384,9.93652,1.326,5.57414,18,5,
2.88243,3.99445,9.92889,1.326,5.57414,18,5,
2.88247,3.99445,9.92584,1.326,5.57414,18,5,
2.8825,3.99963,9.91516,1.326,5.57414,18,5,
2.88253,3.99933,9.91364,1.326,5.57414,18,5,
2.88257,3.99902,9.91364,1.326,5.57414,18,5,
2.8826,3.99902,9.90295,1.326,5.57414,18,5,
2.88263,3.99902,9.90448,1.326,5.57414,18,5,
2.88267,3.99872,9.90295,1.326,5.57414,18,5,
2.8827,4.00391,9.89227,1.326,5.57414,18,5,
2.88273,4.00391,9.8877,1.326,5.57414,18,5,
2.88277,4.00391,9.89075,1.326,5.57414,18,5,
2.8828,4.00421,9.89075,1.326,5.57414,18,5,
2.88283,4.00452,9.87396,1.326,5.57414,18,5,
2.88287,4.00452,9.88159,1.326,5.57414,18,5,
2.8829,4.00818,9.87701,1.326,5.57414,18,5,
2.88293,4.00879,9.87701,1.326,5.57414,18,5,
2.88297,4.00879,9.87701,1.326,5.57414,18,5,
2.883,4.00879,9.86481,1.326,5.57414,18,5,
2.88303,4.00787,9.86023,1.326,5.57414,18,5,
2.88307,4.0094,9.86633,1.326,5.57414,18,5,
2.8831,4.01337,9.86633,1.326,5.57414,18,5,
2.88313,4.01398,9.86481,1.326,5.57414,18,5,
2.88317,4.01367,9.85413,1.326,5.57414,18,5,
2.8832,4.01428,9.85413,1.326,5.57414,18,5,
2.88323,4.01367,9.85413,1.326,5.57414,18,5,
2.88327,4.01337,9.8526,1.326,5.57414,18,5,
2.8833,4.01733,9.84192,1.326,5.57414,18,5,
2.88333,4.01794,9.84345,1.326,5.57414,18,5,
2.88337,4.01886,9.84345,1.326,5.57414,18,5,
2.8834,4.01886,9.83124,1.326,5.57414,18,5,
2.88343,4.01825,9.82819,1.326,5.57414,18,5,
2.88347,4.01886,9.82971,1.326,5.57414,18,5,
2.8835,4.01855,9.82208,1.326,5.57414,18,5,
2.88353,4.02313,9.81445,1.326,5.57414,18,5,
2.88357,4.02435,9.81445,1.326,5.57414,18,5,
2.8836,4.02466,9.80988,1.326,5.57414,18,5,
2.88363,4.02344,9.80377,1.326,5.57414,18,5,
2.88367,4.02344,9.80377,1.326,5.57414,18,5,
2.8837,4.02405,9.80225,1.326,5.57414,18,5,
2.88373,4.0274,9.79767,1.326,5.57414,18,5,
2.88377,4.02863,9.79157,1.326,5.57414,18,5,
2.8838,4.02802,9.79157,1.326,5.57414,18,5,
2.88383,4.02832,9.79462,1.326,5.57414,18,5,
2.88387,4.02832,9.79004,1.326,5.57414,18,5,
2.8839,4.02893,9.79157,1.326,5.57414,18,5,
2.88393,4.02924,9.79309,1.326,5.57414,18,5,
2.88397,4.0332,9.79309,1.326,5.57414,18,5,
2.884,4.0332,9.79157,1.326,5.57414,18,5,
2.88403,4.0332,9.79157,1.326,5.57414,18,5,
2.88407,4.03259,9.79309,1.326,5.57414,18,5,
2.8841,4.03351,9.79157,1.326,5.57414,18,5,
2.88413,4.03351,9.8053,1.326,5.57414,18,5,
2.88417,4.0332,9.80682,1.326,5.57414,18,5,
2.8842,4.039,9.80225,1.326,5.57414,18,5,
2.88423,4.03809,9.8053,1.326,5.57414,18,5,
2.88427,4.03778,9.81293,1.326,5.57414,18,5,
2.8843,4.03839,9.81751,1.326,5.57414,18,5,
2.88433,4.03839,9.81751,1.326,5.57414,18,5,
2.88437,4.03809,9.81598,1.326,5.57414,18,5,
2.8844,4.039,9.82666,1.326,5.57414,18,5,
2.88443,4.04236,9.82514,1.326,5.57414,18,5,
2.88447,4.04327,9.82819,1.326,5.57414,18,5,
2.8845,4.04358,9.82971,1.326,5.57414,18,5,
2.88453,4.04358,9.82819,1.326,5.57414,18,5,
2.88457,4.04297,9.82361,1.326,5.57414,18,5,
2.8846,4.04358,9.82514,1.326,5.57414,18,5,
2.88463,4.04297,9.82666,1.326,5.57414,18,5,
2.88467,4.04327,9.82666,1.326,5.57414,18,5,
2.8847,4.04755,9.82666,1.326,5.57414,18,5,
2.88473,4.04755,9.82819,1.326,5.57414,18,5,
2.88477,4.04785,9.83124,1.326,5.57414,18,5,
2.8848,4.04755,9.81751,1.326,5.57414,18,5,
2.88483,4.04785,9.81751,0,5.57414,18,5,
2.88487,4.04816,9.81598,0,5.57414,18,5,
2.8849,4.04785,9.80377,2.25,5.57414,18,5,
2.88493,4.04785,9.80377,2.25,5.57414,18,5,
2.88497,4.05304,9.80225,2.25,5.57414,18,5,
2.885,4.05273,9.79157,2.25,5.57414,18,5,
2.88503,4.05273,9.79309,2.25,5.57414,18,5,
2.88507,4.05273,9.78394,2.25,5.57414,18,5,
2.8851,4.05334,9.77936,2.25,5.57414,18,5,
2.88513,4.05304,9.77478,2.25,5.57414,18,5,
2.88517,4.05334,9.76715,2.25,5.57414,18,5,
2.8852,4.05304,9.76563,2.25,5.57414,18,5,
2.88523,4.05579,9.758,2.25,5.57414,18,5,
2.88527,4.05792,9.75647,2.25,5.57414,18,5,
2.8853,4.05792,9.75342,2.25,5.57414,18,5,
2.88533,4.05792,9.75494,2.25,5.57414,18,5,
2.88537,4.05823,9.74579,2.25,5.57414,18,5,
2.8854,4.05823,9.74426,2.25,5.57414,18,5,
2.88543,4.05792,9.74732,2.25,5.57414,18,5,
2.88547,4.05762,9.74121,2.25,5.57414,18,5,
2.8855,4.05762,9.74121,2.25,5.57414,18,5,
2.88553,4.06067,9.73358,2.25,5.57414,18,5,
2.88557,4.0625,9.729,2.25,5.57414,18,5,
2.8856,4.0625,9.73206,2.25,5.57414,18,5,
2.88563,4.06219,9.73053,2.25,5.57414,18,5,
2.88567,4.06311,9.73206,2.25,5.57414,18,5,
2.8857,4.06281,9.729,2.25,5.57414,18,5,
2.88573,4.06219,9.71832,2.25,5.57414,18,5,
2.88577,4.06219,9.71832,2.25,5.57414,18,5,
2.8858,4.06281,9.71985,2.25,5.57414,18,5,
2.88583,4.06158,9.72138,2.25,5.57414,18,5,
2.88587,4.06525,9.71069,2.25,5.57414,18,5,
2.8859,4.06769,9.70459,2.25,5.57414,18,5,
2.88593,4.06738,9.70764,2.25,5.57414,18,5,
2.88597,4.06708,9.70306,2.25,5.57414,18,5,
2.886,4.06769,9.69391,2.25,5.57414,18,5,
2.88603,4.06738,9.69238,2.25,5.57414,18,5,
2.88607,4.06738,9.69086,2.25,5.57414,18,5,
2.8861,4.06738,9.6817,2.25,5.57414,18,5,
2.88613,4.06769,9.68018,2.25,5.57414,18,5,
2.88617,4.06769,9.68475,2.25,5.57414,18,5,
2.8862,4.06738,9.6817,2.25,5.57414,18,5,
2.88623,4.07196,9.67102,2.25,5.57414,18,5,
2.88627,4.07227,9.66797,2.25,5.57414,18,5,
2.8863,4.07227,9.66644,2.25,5.57414,18,5,
2.88633,4.07257,9.6695,2.25,5.57414,18,5,
2.88637,4.07227,9.6695,2.25,5.57414,18,5,
2.8864,4.07227,9.66644,2.25,5.57414,18,5,
2.88643,4.07227,9.6695,2.25,5.57414,18,5,
2.88647,4.07227,9.6695,2.25,5.57414,18,5,
2.8865,4.07227,9.67255,2.25,5.57414,18,5,
2.88653,4.07318,9.67102,2.25,5.57414,18,5,
2.88657,4.07166,9.66797,2.25,5.57414,18,5,
2.8866,4.07227,9.6695,2.25,5.57414,18,5,
2.88663,4.07684,9.67102,2.25,5.57414,18,5,
2.88667,4.07715,9.68018,2.25,5.57414,18,5,
2.8867,4.07745,9.68323,2.25,5.57414,18,5,
2.88673,4.07654,9.68323,2.25,5.57414,18,5,
2.88677,4.07776,9.68323,2.25,5.57414,18,5,
2.8868,4.07684,9.69391,2.25,5.57414,18,5,
2.88683,4.07745,9.69391,2.25,5.57414,18,5,
2.88687,4.07745,9.69391,2.25,5.57414,18,5,
2.8869,4.07745,9.69391,2.25,5.57414,18,5,
2.88693,4.07776,9.70306,2.25,5.57414,18,5,
2.88697,4.07745,9.70459,2.25,5.57414,18,5,
2.887,4.07715,9.70459,2.25,5.57414,18,5,
2.88703,4.07776,9.70459,2.25,5.57414,18,5,
2.88707,4.07684,9.70306,2.25,5.57414,18,5,
2.8871,4.08051,9.70612,2.25,5.57414,18,5,
2.88713,4.08203,9.70459,2.25,5.57414,18,5,
2.88717,4.08203,9.70459,2.25,5.57414,18,5,
2.8872,4.08203,9.70612,2.25,5.57414,18,5,
2.88723,4.08234,9.70459,2.25,5.57414,18,5,
2.88727,4.08264,9.70612,2.25,5.57414,18,5,
2.8873,4.08234,9.70459,2.25,5.57414,18,5,
2.88733,4.08173,9.69391,2.25,5.57414,18,5,
2.88737,4.08264,9.69391,2.25,5.57414,18,5,
2.8874,4.08234,9.69238,2.25,5.57414,18,5,
2.88743,4.08203,9.69544,2.25,5.57414,18,5,
2.88747,4.08203,9.68475,2.25,5.57414,18,5,
2.8875,4.08264,9.68018,2.25,5.57414,18,5,
2.88753,4.08234,9.68323,2.25,5.57414,18,5,
2.88757,4.08234,9.68323,2.25,5.57414,18,5,
2.8876,4.08234,9.68018,2.25,5.57414,18,5,
2.88763,4.08234,9.67102,2.25,5.57414,18,5,
2.88767,4.08203,9.66797,2.25,5.57414,18,5,
2.8877,4.08264,9.66797,2.25,5.57414,18,5,
2.88773,4.08264,9.66797,2.25,5.57414,18,5,
2.88777,4.08752,9.67407,2.25,5.57414,18,5,
2.8878,4.08691,9.6695,2.25,5.57414,18,5,
2.88783,4.08661,9.67102,2.25,5.57414,18,5,
2.88787,4.08783,9.66644,2.25,5.57414,18,5,
2.8879,4.08661,9.67102,2.25,5.57414,18,5,
2.88793,4.0863,9.67255,2.25,5.57414,18,5,
2.88797,4.08722,9.6695,2.25,5.57414,18,5,
2.888,4.08722,9.67102,2.25,5.57414,18,5,
2.88803,4.08752,9.66644,2.25,5.57414,18,5,
2.88807,4.08752,9.67102,2.25,5.57414,18,5,
2.8881,4.08691,9.6695,2.25,5.57414,18,5,
2.88813,4.08752,9.6817,2.25,5.57414,18,5,
2.88817,4.08783,9.68323,2.25,5.57414,18,5,
2.8882,4.08661,9.68323,2.25,5.57414,18,5,
2.88823,4.08691,9.6817,2.25,5.57414,18,5,
2.88827,4.08722,9.69238,2.25,5.57414,18,5,
2.8883,4.08691,9.69238,2.25,5.57414,18,5,
2.88833,4.08752,9.69544,2.25,5.57414,18,5,
2.88837,4.0863,9.70306,2.25,5.57414,18,5,
2.8884,4.08752,9.70306,2.25,5.57414,18,5,
2.88843,4.08691,9.70612,2.25,5.57414,18,5,
2.88847,4.08691,9.71375,2.25,5.57414,18,5,
2.8885,4.08691,9.71527,2.25,5.57414,18,5,
2.88853,4.08722,9.71832,2.25,5.57414,18,5,
2.88857,4.08783,9.73053,2.25,5.57414,18,5,
2.8886,4.08722,9.73053,2.25,5.57414,18,5,
2.88863,4.08752,9.73358,2.25,5.57414,18,5,
2.88867,4.08722,9.74274,2.25,5.57414,18,5,
2.8887,4.08661,9.74274,2.25,5.57414,18,5,
2.88873,4.08752,9.75494,2.25,5.57414,18,5,
2.88877,4.08783,9.75494,2.25,5.57414,18,5,
2.8888,4.08722,9.758,2.25,5.57414,18,5,
2.88883,4.08783,9.76715,2.25,5.57414,18,5,
2.88887,4.08752,9.76868,2.25,5.57414,18,5,
2.8889,4.08661,9.78088,2.25,5.57414,18,5,
2.88893,4.08783,9.77936,2.25,5.57414,18,5,
2.88897,4.08691,9.78394,2.25,5.57414,18,5,
2.889,4.08722,9.79004,2.25,5.57414,18,5,
2.88903,4.08752,9.79462,2.25,5.57414,18,5,
2.88907,4.08722,9.8053,2.25,5.57414,18,5,
2.8891,4.08752,9.80682,2.25,5.57414,18,5,
2.88913,4.08691,9.81598,2.25,5.57414,18,5,
2.88917,4.08752,9.81751,2.25,5.57414,18,5,
2.8892,4.08752,9.81751,2.25,5.57414,18,5,
2.88923,4.08722,9.82514,2.25,5.57414,18,5,
2.88927,4.08722,9.82971,2.25,5.57414,18,5,
2.8893,4.08752,9.83276,2.25,5.57414,18,5,
2.88933,4.08783,9.84039,2.25,5.57414,18,5,
2.88937,4.0863,9.83887,2.25,5.57414,18,5,
2.8894,4.08691,9.8526,2.25,5.57414,18,5,
2.88943,4.08722,9.8526,2.25,5.57414,18,5,
2.88947,4.08783,9.8526,2.25,5.57414,18,5,
2.8895,4.08661,9.86176,2.25,5.57414,18,5,
2.88953,4.08691,9.86481,2.25,5.57414,18,5,
2.88957,4.08691,9.86481,2.25,5.57414,18,5,
2.8896,4.08722,9.87396,2.25,5.57414,18,5,
2.88963,4.08752,9.87701,2.25,5.57414,18,5,
2.88967,4.08722,9.87701,2.25,5.57414,18,5,
2.8897,4.08722,9.87701,2.25,5.57414,18,5,
2.88973,4.08722,9.88922,2.25,5.57414,18,5,
2.88977,4.08661,9.89075,2.25,5.57414,18,5,
2.8898,4.08722,9.88922,2.25,5.57414,18,5,
2.88983,4.08722,9.8999,2.25,5.57414,18,5,
2.88987,4.08691,9.90295,2.25,5.57414,18,5,
2.8899,4.08783,9.90295,2.25,5.57414,18,5,
2.88993,4.08691,9.8999,2.25,5.57414,18,5,
2.88997,4.08722,9.90753,2.25,5.57414,18,5,
2.89,4.08722,9.91058,2.25,5.57414,18,5,
2.89003,4.08722,9.91364,2.25,5.57414,18,5,
2.89007,4.08691,9.91516,2.25,5.57414,18,5,
2.8901,4.08691,9.91821,2.25,5.57414,18,5,
2.89013,4.08752,9.92584,2.25,5.57414,18,5,
2.89017,4.08752,9.92737,2.25,5.57414,18,5,
2.8902,4.08752,9.92584,2.25,5.57414,18,5,
2.89023,4.08783,9.92737,2.25,5.57414,18,5,
2.89027,4.08691,9.92889,2.25,5.57414,18,5,
2.8903,4.08722,9.93958,2.25,5.57414,18,5,
2.89033,4.08722,9.94415,2.25,5.57414,18,5,
2.89037,4.08722,9.935,2.25,5.57414,18,5,
2.8904,4.08722,9.93805,2.25,5.57414,18,5,
2.89043,4.08691,9.93652,2.25,5.57414,18,5,
2.89047,4.08722,9.93652,2.25,5.57414,18,5,
2.8905,4.08752,9.94415,2.25,5.57414,18,5,
2.89053,4.08691,9.95483,2.25,5.57414,18,5,
2.89057,4.08691,9.95026,2.25,5.57414,18,5,
2.8906,4.08691,9.95178,2.25,5.57414,18,5,
2.89063,4.08752,9.94873,2.25,5.57414,18,5,
2.89067,4.08783,9.95026,2.25,5.57414,18,5,
2.8907,4.08722,9.95178,2.25,5.57414,18,5,
2.89073,4.08722,9.95026,2.25,5.57414,18,5,
2.89077,4.08752,9.95636,2.25,5.57414,18,5,
2.8908,4.08691,9.95026,2.25,5.57414,18,5,
2.89083,4.08661,9.95483,2.25,5.57414,18,5,
2.89087,4.08752,9.95178,2.25,5.57414,18,5,
2.8909,4.08722,9.94873,2.25,5.57414,18,5,
2.89093,4.08722,9.95178,2.25,5.57414,18,5,
2.89097,4.08752,9.95331,2.25,5.57414,18,5,
2.891,4.08691,9.95026,2.25,5.57414,18,5,
2.89103,4.08691,9.95178,2.25,5.57414,18,5,
2.89107,4.08661,9.95178,2.25,5.57414,18,5,
2.8911,4.08752,9.94873,2.25,5.57414,18,5,
2.89113,4.08752,9.95026,2.25,5.57414,18,5,
2.89117,4.08722,9.95178,2.25,5.57414,18,5,
2.8912,4.08752,9.94873,2.25,5.57414,18,5,
2.89123,4.08691,9.95178,2.25,5.57414,18,5,
2.89127,4.08752,9.95026,2.25,5.57414,18,5,
2.8913,4.08356,9.95026,2.25,5.57414,18,5,
2.89133,4.08234,9.95026,2.25,5.57414,18,5,
2.89137,4.08295,9.95178,2.25,5.57414,18,5,
2.8914,4.08234,9.95178,2.25,5.57414,18,5,
2.89143,4.08234,9.94721,2.25,5.57414,18,5,
2.89147,4.08264,9.95178,2.25,5.57414,18,5,
2.8915,4.08234,9.95026,2.25,5.57414,18,5,
2.89153,4.08264,9.94721,2.25,5.57414,18,5,
2.89157,4.08295,9.95026,2.25,5.57414,18,5,
2.8916,4.08234,9.95178,2.25,5.57414,18,5,
2.89163,4.08295,9.93805,2.25,5.57414,18,5,
2.89167,4.08295,9.93805,2.25,5.57414,18,5,
2.8917,4.08295,9.93958,2.25,5.57414,18,5,
2.89173,4.08203,9.93805,2.25,5.57414,18,5,
2.89177,4.08234,9.93805,2.25,5.57414,18,5,
2.8918,4.08234,9.93652,2.25,5.57414,18,5,
2.89183,4.08264,9.92432,2.25,5.57414,18,5,
2.89187,4.08295,9.92889,2.25,5.57414,18,5,
2.8919,4.08203,9.92889,2.25,5.57414,18,5,
2.89193,4.08203,9.92584,2.25,5.57414,18,5,
2.89197,4.08295,9.91211,2.25,5.57414,18,5,
2.892,4.08203,9.91211,2.25,5.57414,18,5,
2.89203,4.08295,9.90753,2.25,5.57414,18,5,
2.89207,4.08234,9.90295,2.25,5.57414,18,5,
2.8921,4.08234,9.90143,2.25,5.57414,18,5,
2.89213,4.08264,9.89075,2.25,5.57414,18,5,
2.89217,4.08203,9.88922,2.25,5.57414,18,5,
2.8922,4.07806,9.88464,2.25,5.57414,18,5,
2.89223,4.07715,9.87549,2.25,5.57414,18,5,
2.89227,4.07745,9.87549,2.25,5.57414,18,5,
2.8923,4.07715,9.86481,2.25,5.57414,18,5,
2.89233,4.07745,9.8587,2.25,5.57414,18,5,
2.89237,4.07745,9.85108,2.25,5.57414,18,5,
2.8924,4.07715,9.8526,2.25,5.57414,18,5,
2.89243,4.07654,9.84039,2.25,5.57414,18,5,
2.89247,4.07715,9.84192,2.25,5.57414,18,5,
2.8925,4.07745,9.82819,2.25,5.57414,18,5,
2.89253,4.07715,9.82819,2.25,5.57414,18,5,
2.89257,4.07715,9.81903,2.25,5.57414,18,5,
2.8926,4.07745,9.81751,2.25,5.57414,18,5,
2.89263,4.07776,9.80377,2.25,5.57414,18,5,
2.89267,4.07684,9.80377,2.25,5.57414,18,5,
2.8927,4.07745,9.79157,2.25,5.57414,18,5,
2.89273,4.07745,9.79004,2.25,5.57414,18,5,
2.89277,4.07776,9.78088,2.25,5.57414,18,5,
2.8928,4.07715,9.77783,2.25,5.57414,18,5,
2.89283,4.07745,9.7702,2.25,5.57414,18,5,
2.89287,4.07745,9.7641,2.25,5.57414,18,5,
2.8929,4.07227,9.75647,2.25,5.57414,18,5,
2.89293,4.07166,9.74274,2.25,5.57414,18,5,
2.89297,4.07227,9.73358,2.25,5.57414,18,5,
2.893,4.07288,9.73358,2.25,5.57414,18,5,
2.89303,4.07257,9.71985,2.25,5.57414,18,5,
2.89307,4.07257,9.7168,2.25,5.57414,18,5,
2.8931,4.07227,9.70306,2.25,5.57414,18,5,
2.89313,4.07318,9.70001,2.25,5.57414,18,5,
2.89317,4.07288,9.69391,2.25,5.57414,18,5,
2.8932,4.07227,9.67865,2.25,5.57414,18,5,
2.89323,4.07166,9.68323,2.25,5.57414,18,5,
2.89327,4.07288,9.6695,2.25,5.57414,18,5,
2.8933,4.07196,9.65881,2.25,5.57414,18,5,
2.89333,4.07257,9.65576,2.25,5.57414,18,5,
2.89337,4.07227,9.64966,2.25,5.57414,18,5,
2.8934,4.07257,9.64813,2.25,5.57414,18,5,
2.89343,4.07227,9.63898,2.25,5.57414,18,5,
2.89347,4.06799,9.63135,2.25,5.57414,18,5,
2.8935,4.06738,9.62524,2.25,5.57414,18,5,
2.89353,4.06769,9.62067,2.25,5.57414,18,5,
2.89357,4.06708,9.61304,2.25,5.57414,18,5,
2.8936,4.06769,9.60541,2.25,5.57414,18,5,
2.89363,4.06769,9.59778,2.25,5.57414,18,5,
2.89367,4.06708,9.59778,2.25,5.57414,18,5,
2.8937,4.06738,9.59473,2.25,5.57414,18,5,
2.89373,4.06799,9.58405,2.25,5.57414,18,5,
2.89377,4.0686,9.58252,2.25,5.57414,18,5,
2.8938,4.06799,9.57184,2.25,5.57414,18,5,
2.89383,4.06799,9.56879,2.25,5.57414,18,5,
2.89387,4.06738,9.55811,2.25,5.57414,18,5,
2.8939,4.06769,9.55811,2.25,5.57414,18,5,
2.89393,4.06738,9.5459,2.25,5.57414,18,5,
2.89397,4.06799,9.54285,2.25,5.57414,18,5,
2.894,4.06342,9.53369,2.25,5.57414,18,5,
2.89403,4.06311,9.53522,2.25,5.57414,18,5,
2.89407,4.06281,9.52301,2.25,5.57414,18,5,
2.8941,4.06219,9.52301,2.25,5.57414,18,5,
2.89413,4.0625,9.52149,2.25,5.57414,18,5,
2.89417,4.0625,9.51386,2.25,5.57414,18,5,
2.8942,4.0625,9.50928,2.25,5.57414,18,5,
2.89423,4.06311,9.50775,2.25,5.57414,18,5,
2.89427,4.06311,9.49707,2.25,5.57414,18,5,
2.8943,4.06281,9.49707,2.25,5.57414,18,5,
2.89433,4.0625,9.4986,2.25,5.57414,18,5,
2.89437,4.06281,9.49555,2.25,5.57414,18,5,
2.8944,4.06342,9.49555,2.25,5.57414,18,5,
2.89443,4.0625,9.49707,2.25,5.57414,18,5,
2.89447,4.06281,9.4986,2.25,5.57414,18,5,
2.8945,4.06372,9.49707,2.25,5.57414,18,5,
2.89453,4.06006,9.49707,2.25,5.57414,18,5,
2.89457,4.05762,9.48639,2.25,5.57414,18,5,
2.8946,4.05762,9.48334,2.25,5.57414,18,5,
2.89463,4.05853,9.48639,2.25,5.57414,18,5,
2.89467,4.05762,9.48486,2.25,5.57414,18,5,
2.8947,4.05762,9.48792,2.25,5.57414,18,5,
2.89473,4.05792,9.46961,2.25,5.57414,18,5,
2.89477,4.05792,9.47418,2.25,5.57414,18,5,
2.8948,4.05792,9.47418,2.25,5.57414,18,5,
2.89483,4.05823,9.46503,2.25,5.57414,18,5,
2.89487,4.05792,9.45892,2.25,5.57414,18,5,
2.8949,4.05823,9.44672,2.25,5.57414,18,5,
2.89493,4.05762,9.44214,2.25,5.57414,18,5,
2.89497,4.05762,9.43451,2.25,5.57414,18,5,
2.895,4.05792,9.42383,2.25,5.57414,18,5,
2.89503,4.05518,9.41315,2.25,5.57414,18,5,
2.89507,4.05334,9.39941,2.25,5.57414,18,5,
2.8951,4.05304,9.38721,2.25,5.57414,18,5,
2.89513,4.05304,9.36737,2.25,5.57414,18,5,
2.89517,4.05273,9.35059,2.25,5.57414,18,5,
2.8952,4.05304,9.32617,2.25,5.57414,18,5,
2.89523,4.05273,9.30939,2.25,5.57414,18,5,
2.89527,4.05334,9.28192,2.25,5.57414,18,5,
2.8953,4.05334,9.25598,2.25,5.57414,18,5,
2.89533,4.05334,9.23004,2.25,5.57414,18,5,
2.89537,4.05304,9.198,2.25,5.57414,18,5,
2.8954,4.05304,9.17206,2.25,5.57414,18,5,
2.89543,4.05304,9.14307,2.25,5.57414,18,5,
2.89547,4.05273,9.1095,2.25,5.57414,18,5,
2.8955,4.04785,9.08051,2.25,5.57414,18,5,
2.89553,4.04755,9.04999,2.25,5.57414,18,5,
2.89557,4.04816,9.01337,2.25,5.57414,18,5,
2.8956,4.04785,8.98743,2.25,5.57414,18,5,
2.89563,4.04816,8.95691,2.25,5.57414,18,5,
2.89567,4.04724,8.92639,2.25,5.57414,18,5,
2.8957,4.04785,8.89893,2.25,5.57414,18,5,
2.89573,4.04846,8.86383,2.25,5.57414,18,5,
2.89577,4.04755,8.83789,2.25,5.57414,18,5,
2.8958,4.04785,8.81043,2.25,5.57414,18,5,
2.89583,4.04755,8.78449,2.25,5.57414,18,5,
2.89587,4.04785,8.75549,2.25,5.57414,18,5,
2.8959,4.04266,8.72955,2.25,5.57414,18,5,
2.89593,4.04236,8.70667,2.25,5.57414,18,5,
2.89597,4.04266,8.67462,2.25,5.57414,18,5,
2.896,4.04297,8.65631,2.25,5.57414,18,5,
2.89603,4.04297,8.62732,2.25,5.57414,18,5,
2.89607,4.04266,8.60443,2.25,5.57414,18,5,
2.8961,4.04297,8.57697,2.25,5.57414,18,5,
2.89613,4.04266,8.55255,2.25,5.57414,18,5,
2.89617,4.04327,8.53729,2.25,5.57414,18,5,
2.8962,4.04327,8.50983,2.25,5.57414,18,5,
2.89623,4.04266,8.49457,2.25,5.57414,18,5,
2.89627,4.04297,8.47015,2.25,5.57414,18,5,
2.8963,4.03778,8.44727,2.25,5.57414,18,5,
2.89633,4.03778,8.43353,2.25,5.57414,18,5,
2.89637,4.03809,8.41522,2.25,5.57414,18,5,
2.8964,4.03839,8.39233,2.25,5.57414,18,5,
2.89643,4.03778,8.38165,2.25,5.57414,18,5,
2.89647,4.03809,8.3725,2.25,5.57414,18,5,
2.8965,4.03748,8.34961,2.25,5.57414,18,5,
2.89653,4.03839,8.34503,2.25,5.57414,18,5,
2.89657,4.03839,8.3313,2.25,5.57414,18,5,
2.8966,4.03748,8.32214,2.25,5.57414,18,5,
2.89663,4.03839,8.30994,2.25,5.57414,18,5,
2.89667,4.0332,8.30841,2.25,5.57414,18,5,
2.8967,4.0332,8.30078,2.25,5.57414,18,5,
2.89673,4.03351,8.29773,2.25,5.57414,18,5,
2.89677,4.0332,8.28552,2.25,5.57414,18,5,
2.8968,4.0329,8.28552,2.25,5.57414,18,5,
2.89683,4.0332,8.28705,2.25,5.57414,18,5,
2.89687,4.03351,8.28705,2.25,5.57414,18,5,
2.8969,4.0332,8.27179,2.25,5.57414,18,5,
2.89693,4.03351,8.27332,2.25,5.57414,18,5,
2.89697,4.03351,8.27332,2.25,5.57414,18,5,
2.897,4.02802,8.27179,2.25,5.57414,18,5,
2.89703,4.02893,8.27332,2.25,5.57414,18,5,
2.89707,4.02863,8.28552,2.25,5.57414,18,5,
2.8971,4.02863,8.28858,2.25,5.57414,18,5,
2.89713,4.02832,8.28705,2.25,5.57414,18,5,
2.89717,4.02863,8.284,2.25,5.57414,18,5,
2.8972,4.02893,8.29773,2.25,5.57414,18,5,
2.89723,4.02832,8.30078,2.25,5.57414,18,5,
2.89727,4.02863,8.31146,2.25,5.57414,18,5,
2.8973,4.02832,8.31909,2.25,5.57414,18,5,
2.89733,4.02344,8.32367,2.25,5.57414,18,5,
2.89737,4.02374,8.33435,2.25,5.57414,18,5,
2.8974,4.02344,8.34503,2.25,5.57414,18,5,
2.89743,4.02374,8.36334,2.25,5.57414,19,5,
2.89747,4.02374,8.37402,2.25,5.57414,19,5,
2.8975,4.02344,8.38471,2.25,5.57414,19,5,
2.89753,4.02374,8.40302,2.25,5.57414,19,5,
2.89757,4.02313,8.41827,2.25,5.57414,19,5,
2.8976,4.02344,8.43964,2.25,5.57414,19,5,
2.89763,4.02405,8.45795,2.25,5.57414,19,5,
2.89767,4.02252,8.47626,2.25,5.57414,19,5,
2.8977,4.01855,8.49457,2.25,5.57414,19,5,
2.89773,4.01855,8.51746,2.25,5.57414,19,5,
2.89777,4.01825,8.53882,2.25,5.57414,19,5,
2.8978,4.01794,8.55866,2.25,5.57414,19,5,
2.89783,4.01855,8.58612,2.25,5.57414,19,5,
2.89787,4.01855,8.60748,2.25,5.57414,19,5,
2.8979,4.01855,8.62732,2.25,5.57414,19,5,
2.89793,4.01855,8.65479,2.25,5.57414,19,5,
2.89797,4.01794,8.67615,2.25,5.57414,19,5,
2.898,4.01855,8.70209,2.25,5.57414,19,5,
2.89803,4.01459,8.72498,2.25,5.57414,19,5,
2.89807,4.01398,8.76007,2.25,5.57414,19,5,
2.8981,4.01398,8.78143,2.25,5.57414,19,5,
2.89813,4.01398,8.80737,2.25,5.57414,19,5,
2.89817,4.01337,8.83026,2.25,5.57414,19,5,
2.8982,4.01398,8.86383,2.25,5.57414,19,5,
2.89823,4.01367,8.88825,2.25,5.57414,19,5,
2.89827,4.01428,8.91266,2.25,5.57414,19,5,
2.8983,4.01337,8.94013,2.25,5.57414,19,5,
2.89833,4.01428,8.96912,2.25,5.57414,19,5,
2.89837,4.00848,8.99353,2.25,5.57414,19,5,
2.8984,4.00879,9.021,2.25,5.57414,19,5,
2.89843,4.00757,9.04389,2.25,5.57414,19,5,
2.89847,4.00879,9.07593,2.25,5.57414,19,5,
2.8985,4.00848,9.10187,2.25,5.57414,19,5,
2.89853,4.0094,9.12933,2.25,5.57414,19,5,
2.89857,4.00879,9.15527,2.25,5.57414,19,5,
2.8986,4.00879,9.17969,2.25,5.57414,19,5,
2.89863,4.00879,9.20258,2.25,5.57414,19,5,
2.89867,4.00848,9.23767,2.25,5.57414,19,5,
2.8987,4.00574,9.26209,2.25,5.57414,19,5,
2.89873,4.00391,9.2865,2.25,5.57414,19,5,
2.89877,4.0036,9.31091,2.25,5.57414,19,5,
2.8988,4.00391,9.33228,2.25,5.57414,19,5,
2.89883,4.0036,9.36432,2.25,5.57414,19,5,
2.89887,4.00391,9.38721,2.25,5.57414,19,5,
2.8989,4.00391,9.41467,2.25,5.57414,19,5,
2.89893,4.00391,9.43451,2.25,5.57414,19,5,
2.89897,4.0036,9.46198,2.25,5.57414,19,5,
2.899,4.0036,9.48181,2.25,5.57414,19,5,
2.89903,4.0033,9.50623,2.25,5.57414,19,5,
2.89907,3.99811,9.53217,2.25,5.57414,19,5,
2.8991,3.99902,9.55505,2.25,5.57414,19,5,
2.89913,3.99933,9.56879,2.25,5.57414,19,5,
2.89917,3.99933,9.59625,2.25,5.57414,19,5,
2.8992,3.99933,9.61762,2.25,5.57414,19,5,
2.89923,3.99902,9.63287,2.25,5.57414,19,5,
2.89927,3.99902,9.65881,2.25,5.57414,19,5,
2.8993,3.99933,9.68018,2.25,5.57414,19,5,
2.89933,3.99902,9.69086,2.25,5.57414,19,5,
2.89937,3.99872,9.71375,2.25,5.57414,19,5,
2.8994,3.99414,9.73053,2.25,5.57414,19,5,
2.89943,3.99384,9.74274,2.25,5.57414,19,5,
2.89947,3.99414,9.76257,2.25,5.57414,19,5,
2.8995,3.99414,9.77783,2.25,5.57414,19,5,
2.89953,3.99384,9.79309,2.25,5.57414,19,5,
2.89957,3.99445,9.8053,2.25,5.57414,19,5,
2.8996,3.99353,9.82514,2.25,5.57414,19,5,
2.89963,3.99414,9.83734,2.25,5.57414,19,5,
2.89967,3.99414,9.8526,2.25,5.57414,19,5,
2.8997,3.99414,9.86328,2.25,5.57414,19,5,
2.89973,3.99078,9.87701,2.25,5.57414,19,5,
2.89977,3.98865,9.89075,2.25,5.57414,19,5,
2.8998,3.98895,9.8938,2.25,5.57414,19,5,
2.89983,3.98895,9.91211,2.25,5.57414,19,5,
2.89987,3.98926,9.91669,2.25,5.57414,19,5,
2.8999,3.98895,9.92737,2.25,5.57414,19,5,
2.89993,3.98956,9.93958,2.25,5.57414,19,5,
2.89997,3.98926,9.94415,2.25,5.57414,19,5,
2.9,3.98956,9.95026,2.25,5.57414,19,5,
2.90003,3.98865,9.96399,2.25,5.57414,19,5,
2.90007,3.98926,9.97009,2.25,5.57414,19,5,
2.9001,3.98407,9.9762,2.25,5.57414,19,5,
2.90013,3.98468,9.98688,2.25,5.57414,19,5,
2.90017,3.98438,9.98688,2.25,5.57414,19,5,
2.9002,3.98346,9.99909,2.25,5.57414,19,5,
2.90023,3.98438,9.99909,2.25,5.57414,19,5,
2.90027,3.98438,10.0113,2.25,5.57414,19,5,
2.9003,3.98376,10.0113,2.25,5.57414,19,5,
2.90033,3.98438,10.022,2.25,5.57414,19,5,
2.90037,3.98468,10.0235,2.25,5.57414,19,5,
2.9004,3.98376,10.025,2.25,5.57414,19,5,
2.90043,3.9798,10.0372,2.25,5.57414,19,5,
2.90047,3.97949,10.0357,2.25,5.57414,19,5,
2.9005,3.97949,10.0342,2.25,5.57414,19,5,
2.90053,3.97919,10.0494,2.25,5.57414,19,5,
2.90057,3.97919,10.0494,2.25,5.57414,19,5,
2.9006,3.97858,10.0494,2.25,5.57414,19,5,
2.90063,3.97949,10.051,2.25,5.57414,19,5,
2.90067,3.97888,10.0555,2.25,5.57414,19,5,
2.9007,3.97888,10.0586,2.25,5.57414,19,5,
2.90073,3.9798,10.0601,2.25,5.57414,19,5,
2.90077,3.97919,10.0601,2.25,5.57414,19,5,
2.9008,3.9743,10.0616,2.25,5.57414,19,5,
2.90083,3.97461,10.0662,2.25,5.57414,19,5,
2.90087,3.97369,10.0616,2.25,5.57414,19,5,
2.9009,3.9743,10.0632,2.25,5.57414,19,5,
2.90093,3.97339,10.0739,2.25,5.57414,19,5,
2.90097,3.97369,10.0739,2.25,5.57414,19,5,
2.901,3.974,10.0723,2.25,5.57414,19,5,
2.90103,3.974,10.0769,2.25,5.57414,19,5,
2.90107,3.97339,10.0739,2.25,5.57414,19,5,
2.9011,3.97461,10.0754,2.25,5.57414,19,5,
2.90113,3.96973,10.0708,2.25,5.57414,19,5,
2.90117,3.96973,10.0739,2.25,5.57414,19,5,
2.9012,3.96912,10.0739,2.25,5.57414,19,5,
2.90123,3.96942,10.0708,2.25,5.57414,19,5,
2.90127,3.96912,10.0739,2.25,5.57414,19,5,
2.9013,3.96973,10.0739,2.25,5.57414,19,5,
2.90133,3.96973,10.0739,2.25,5.57414,19,5,
2.90137,3.96973,10.0708,2.25,5.57414,19,5,
2.9014,3.96942,10.0723,2.25,5.57414,19,5,
2.90143,3.96912,10.0616,2.25,5.57414,19,5,
2.90147,3.96515,10.0632,2.25,5.57414,19,5,
2.9015,3.96423,10.0616,2.25,5.57414,19,5,
2.90153,3.96423,10.0601,2.25,5.57414,19,5,
2.90157,3.96454,10.0601,2.25,5.57414,19,5,
2.9016,3.96484,10.0632,2.25,5.57414,19,5,
2.90163,3.96423,10.054,2.25,5.57414,19,5,
2.90167,3.96484,10.0479,2.25,5.57414,19,5,
2.9017,3.96484,10.0479,2.25,5.57414,19,5,
2.90173,3.96454,10.0494,2.25,5.57414,19,5,
2.90177,3.96423,10.0479,2.25,5.57414,19,5,
2.9018,3.95966,10.0342,2.25,5.57414,19,5,
2.90183,3.96027,10.0342,2.25,5.57414,19,5,
2.90187,3.95966,10.0342,2.25,5.57414,19,5,
2.9019,3.95966,10.0342,2.25,5.57414,19,5,
2.90193,3.95935,10.025,2.25,5.57414,19,5,
2.90197,3.95966,10.0235,2.25,5.57414,19,5,
2.902,3.95935,10.0266,2.25,5.57414,19,5,
2.90203,3.95966,10.0235,2.25,5.57414,19,5,
2.90207,3.95996,10.0113,2.25,5.57414,19,5,
2.9021,3.95447,10.0098,2.25,5.57414,19,5,
2.90213,3.95508,10.0098,2.25,5.57414,19,5,
2.90217,3.95447,10.0098,2.25,5.57414,19,5,
2.9022,3.95508,10.0037,2.25,5.57414,19,5,
2.90223,3.95447,9.99909,2.25,5.57414,19,5,
2.90227,3.95538,9.99756,2.25,5.57414,19,5,
2.9023,3.95508,9.99451,2.25,5.57414,19,5,
2.90233,3.95508,9.99756,2.25,5.57414,19,5,
2.90237,3.95569,9.99909,2.25,5.57414,19,5,
2.9024,3.9502,9.98688,2.25,5.57414,19,5,
2.90243,3.95081,9.9884,2.25,5.57414,19,5,
2.90247,3.94928,9.98535,2.25,5.57414,19,5,
2.9025,3.94958,9.9884,2.25,5.57414,19,5,
2.90253,3.9505,9.98688,2.25,5.57414,19,5,
2.90257,3.9502,9.98688,2.25,5.57414,19,5,
2.9026,3.94989,9.98688,2.25,5.57414,19,5,
2.90263,3.9502,9.98688,2.25,5.57414,19,5,
2.90267,3.94958,9.98688,2.25,5.57414,19,5,
2.9027,3.94531,9.98535,2.25,5.57414,19,5,
2.90273,3.94562,9.9884,2.25,5.57414,19,5,
2.90277,3.94531,9.98993,2.25,5.57414,19,5,
2.9028,3.94592,9.98688,2.25,5.57414,19,5,
2.90283,3.94592,9.98383,2.25,5.57414,19,5,
2.90287,3.9447,9.98688,2.25,5.57414,19,5,
2.9029,3.94531,9.9884,2.25,5.57414,19,5,
2.90293,3.94592,9.98688,2.25,5.57414,19,5,
2.90297,3.94501,9.99146,2.25,5.57414,19,5,
2.903,3.94012,9.9884,2.25,5.57414,19,5,
2.90303,3.94073,9.98535,2.25,5.57414,19,5,
2.90307,3.94043,9.9884,2.25,5.57414,19,5,
2.9031,3.93982,9.98383,2.25,5.57414,19,5,
2.90313,3.94043,9.98535,2.25,5.57414,19,5,
2.90317,3.94012,10.0006,2.25,5.57414,19,5,
2.9032,3.93982,9.99909,2.25,5.57414,19,5,
2.90323,3.94043,10.0021,2.25,5.57414,19,5,
2.90327,3.94012,10.0006,2.25,5.57414,19,5,
2.9033,3.93555,10.0006,2.25,5.57414,19,5,
2.90333,3.93463,9.99909,2.25,5.57414,19,5,
2.90337,3.93555,9.99909,2.25,5.57414,19,5,
2.9034,3.93494,10.0006,2.25,5.57414,19,5,
2.90343,3.93494,10.0082,2.25,5.57414,19,5,
2.90347,3.93555,10.0113,2.25,5.57414,19,5,
2.9035,3.93524,10.0113,2.25,5.57414,19,5,
2.90353,3.93524,10.0082,2.25,5.57414,19,5,
2.90357,3.93219,10.0113,2.25,5.57414,19,5,
2.9036,3.93036,10.0128,2.25,5.57414,19,5,
2.90363,3.93066,10.0098,2.25,5.57414,19,5,
2.90367,3.93005,10.0128,2.25,5.57414,19,5,
2.9037,3.93005,10.0113,2.25,5.57414,19,5,
2.90373,3.93066,10.0204,2.25,5.57414,19,5,
2.90377,3.93097,10.0266,2.25,5.57414,19,5,
2.9038,3.93036,10.025,2.25,5.57414,19,5,
2.90383,3.93036,10.025,2.25,5.57414,19,5,
2.90387,3.927,10.025,2.25,5.57414,19,5,
2.9039,3.92487,10.022,2.25,5.57414,19,5,
2.90393,3.92639,10.025,2.25,5.57414,19,5,
2.90397,3.92609,10.025,2.25,5.57414,19,5,
2.904,3.92487,10.0235,2.25,5.57414,19,5,
2.90403,3.92517,10.0235,2.25,5.57414,19,5,
2.90407,3.92578,10.0235,2.25,5.57414,19,5,
2.9041,3.92487,10.0235,2.25,5.57414,19,5,
2.90413,3.92517,10.0235,2.25,5.57414,19,5,
2.90417,3.9209,10.0403,2.25,5.57414,19,5,
2.9042,3.91998,10.0372,2.25,5.57414,19,5,
2.90423,3.91998,10.0357,2.25,5.57414,19,5,
2.90427,3.92059,10.0357,2.25,5.57414,19,5,
2.9043,3.91998,10.0403,2.25,5.57414,19,5,
2.90433,3.9212,10.0372,2.25,5.57414,19,5,
2.90437,3.9209,10.0342,2.25,5.57414,19,5,
2.9044,3.9209,10.0357,2.25,5.57414,19,5,
2.90443,3.91968,10.0357,2.25,5.57414,19,5,
2.90447,3.91602,10.0342,2.25,5.57414,19,5,
2.9045,3.91571,10.0357,2.25,5.57414,19,5,
2.90453,3.91571,10.0357,2.25,5.57414,19,5,
2.90457,3.91541,10.0342,2.25,5.57414,19,5,
2.9046,3.9151,10.0342,2.25,5.57414,19,5,
2.90463,3.91541,10.0372,2.25,5.57414,19,5,
2.90467,3.91632,10.0388,2.25,5.57414,19,5,
2.9047,3.91632,10.0357,2.25,5.57414,19,5,
2.90473,3.91602,10.0372,2.25,5.57414,19,5,
2.90477,3.91052,10.0281,2.25,5.57414,19,5,
2.9048,3.91113,10.022,2.25,5.57414,19,5,
2.90483,3.91083,10.0266,2.25,5.57414,19,5,
2.90487,3.91083,10.0266,2.25,5.57414,19,5,
2.9049,3.91052,10.0281,2.25,5.57414,19,5,
2.90493,3.91113,10.0266,2.25,5.57414,19,5,
2.90497,3.91144,10.025,2.25,5.57414,19,5,
2.905,3.91083,10.025,2.25,5.57414,19,5,
2.90503,3.91113,10.025,2.25,5.57414,19,5,
2.90507,3.90625,10.0235,2.25,5.57414,19,5,
2.9051,3.90594,10.0235,2.25,5.57414,19,5,
2.90513,3.90656,10.0235,2.25,5.57414,19,5,
2.90517,3.90625,10.0281,2.25,5.57414,19,5,
2.9052,3.90594,10.0235,2.25,5.57414,19,5,
2.90523,3.90656,10.0082,2.25,5.57414,19,5,
2.90527,3.90686,10.0128,2.25,5.57414,19,5,
2.9053,3.90625,10.0082,2.25,5.57414,19,5,
2.90533,3.90106,10.0113,2.25,5.57414,19,5,
2.90537,3.90167,10.0128,2.25,5.57414,19,5,
2.9054,3.90137,10.0143,2.25,5.57414,19,5,
2.90543,3.90076,10.0098,2.25,5.57414,19,5,
2.90547,3.90045,10.0113,2.25,5.57414,19,5,
2.9055,3.90076,10.0098,2.25,5.57414,19,5,
2.90553,3.90045,10.0082,2.25,5.57414,19,5,
2.90557,3.89648,10.0082,2.25,5.57414,19,5,
2.9056,3.89587,10.0113,2.25,5.57414,19,5,
2.90563,3.89587,10.0113,2.25,5.57414,19,5,
2.90567,3.89648,10.0113,2.25,5.57414,19,5,
2.9057,3.89557,10.0113,2.25,5.57414,19,5,
2.90573,3.89557,10.0098,2.25,5.57414,19,5,
2.90577,3.8913,10.0113,2.25,5.57414,19,5,
2.9058,3.89099,10.0128,2.25,5.57414,19,5,
2.90583,3.8913,10.0143,2.25,5.57414,19,5,
2.90587,3.89099,10.0113,2.25,5.57414,19,5,
2.9059,3.89069,10.0143,2.25,5.57414,19,5,
2.90593,3.8913,10.0098,2.25,5.57414,19,5,
2.90597,3.88672,10.0113,2.25,5.57414,19,5,
2.906,3.88702,10.0082,2.25,5.57414,19,5,
2.90603,3.8855,10.0113,2.25,5.57414,19,5,
2.90607,3.8858,10.0098,2.25,5.57414,19,5,
2.9061,3.88641,10.0098,2.25,5.57414,19,5,
2.90613,3.88184,10.0113,2.25,5.57414,19,5,
2.90617,3.88123,10.0098,2.25,5.57414,19,5,
2.9062,3.88184,10.0113,2.25,5.57414,19,5,
2.90623,3.88123,10.0113,2.25,5.57414,19,5,
2.90627,3.88031,10.0128,2.25,5.57414,19,5,
2.9063,3.87695,10.0143,2.25,5.57414,19,5,
2.90633,3.87695,10.0113,2.25,5.57414,19,5,
2.90637,3.87695,10.0159,2.25,5.57414,19,5,
2.9064,3.87695,10.0113,2.25,5.57414,19,5,
2.90643,3.8736,10.0128,2.25,5.57414,19,5,
2.90647,3.87207,10.0128,2.25,5.57414,19,5,
2.9065,3.87115,10.0159,2.25,5.57414,19,5,
2.90653,3.87177,10.0128,2.25,5.57414,19,5,
2.90657,3.86902,10.0128,2.25,5.57414,19,5,
2.9066,3.86658,10.0159,2.25,5.57414,19,5,
2.90663,3.86658,10.0128,2.25,5.57414,19,5,
2.90667,3.86719,10.0113,2.25,5.57414,19,5,
2.9067,3.86261,10.0113,2.25,5.57414,19,5,
2.90673,3.86139,10.0235,2.25,5.57414,19,5,
2.90677,3.86169,10.0266,2.25,5.57414,19,5,
2.9068,3.86139,10.0235,2.25,5.57414,19,5,
2.90683,3.85651,10.0189,2.25,5.57414,19,5,
2.90687,3.85742,10.025,2.25,5.57414,19,5,
2.9069,3.85742,10.0204,2.25,5.57414,19,5,
2.90693,3.85193,10.0266,2.25,5.57414,19,5,
2.90697,3.85162,10.022,2.25,5.57414,19,5,
2.907,3.85193,10.0266,2.25,5.57414,19,5,
2.90703,3.84705,10.025,2.25,5.57414,19,5,
2.90707,3.84674,10.0189,2.25,5.57414,19,5,
2.9071,3.84705,10.025,2.25,5.57414,19,5,
2.90713,3.84247,10.0235,2.25,5.57414,19,5,
2.90717,3.84216,10.022,2.25,5.57414,19,5,
2.9072,3.84308,10.0266,2.25,5.57414,19,5,
2.90723,3.83728,10.022,2.25,5.57414,19,5,
2.90727,3.83698,10.025,2.25,5.57414,19,5,
2.9073,3.83667,10.022,2.25,5.57414,19,5,
2.90733,3.83179,10.0266,2.25,5.57414,19,5,
2.90737,3.83179,10.022,2.25,5.57414,19,5,
2.9074,3.82751,10.022,2.25,5.57414,19,5,
2.90743,3.8266,10.025,2.25,5.57414,19,5,
2.90747,3.82782,10.0357,2.25,5.57414,19,5,
2.9075,3.82233,10.0342,2.25,5.57414,19,5,
2.90753,3.82233,10.0372,2.25,5.57414,19,5,
2.90757,3.81805,10.0342,2.25,5.57414,19,5,
2.9076,3.81775,10.0372,2.25,5.57414,19,5,
2.90763,3.81317,10.0357,2.25,5.57414,19,5,
2.90767,3.81287,10.0357,2.25,5.57414,19,5,
2.9077,3.8092,10.0388,2.25,5.57414,19,5,
2.90773,3.80768,10.0357,2.25,5.57414,19,5,
2.90777,3.80737,10.0357,2.25,5.57414,19,5,
2.9078,3.8031,10.0372,2.25,5.57414,19,5,
2.90783,3.80219,10.0372,2.25,5.57414,19,5,
2.90787,3.79791,10.0357,2.25,5.57414,19,5,
2.9079,3.797,10.0357,2.25,5.57414,19,5,
2.90793,3.79272,10.0403,2.25,5.57414,19,5,
2.90797,3.79333,10.0357,2.25,5.57414,19,5,
2.908,3.78784,10.0372,2.25,5.57414,19,5,
2.90803,3.78723,10.0357,2.25,5.57414,19,5,
2.90807,3.78296,10.0342,2.25,5.57414,19,5,
2.9081,3.78326,10.0372,2.25,5.57414,19,5,
2.90813,3.77777,10.0342,2.25,5.57414,19,5,
2.90817,3.77502,10.051,2.25,5.57414,19,5,
2.9082,3.77319,10.0494,2.25,5.57414,19,5,
2.90823,3.76953,10.0494,2.25,5.57414,19,5,
2.90827,3.76831,10.0464,2.25,5.57414,19,5,
2.9083,3.76404,10.051,2.25,5.57414,19,5,
2.90833,3.76312,10.0464,2.25,5.57414,19,5,
2.90837,3.75885,10.0479,2.25,5.57414,19,5,
2.9084,3.75854,10.0464,2.25,5.57414,19,5,
2.90843,3.75336,10.0479,2.25,5.57414,19,5,
2.90847,3.74969,10.0479,2.25,5.57414,19,5,
2.9085,3.74969,10.051,2.25,5.57414,19,5,
2.90853,3.7439,10.0494,2.25,5.57414,19,5,
2.90857,3.7439,10.051,2.25,5.57414,19,5,
2.9086,3.73962,10.0479,2.25,5.57414,19,5,
2.90863,3.73505,10.0479,2.25,5.57414,19,5,
2.90867,3.73444,10.0464,2.25,5.57414,19,5,
2.9087,3.72925,10.0494,2.25,5.57414,19,5,
2.90873,3.72711,10.0479,2.25,5.57414,19,5,
2.90877,3.72437,10.0449,2.25,5.57414,19,5,
2.9088,3.7207,10.0479,2.25,5.57414,19,5,
2.90883,3.71979,10.0464,2.25,5.57414,19,5,
2.90887,3.71521,10.0494,2.25,5.57414,19,5,
2.9089,3.71185,10.0464,2.25,5.57414,19,5,
2.90893,3.71033,10.0494,2.25,5.57414,19,5,
2.90897,3.70544,10.0479,2.25,5.57414,19,5,
2.909,3.70209,10.0479,2.25,5.57414,19,5,
2.90903,3.69995,10.0494,2.25,5.57414,19,5,
2.90907,3.69537,10.0494,2.25,5.57414,19,5,
2.9091,3.69232,10.0372,2.25,5.57414,19,5,
2.90913,3.68988,10.0403,2.25,5.57414,19,5,
2.90917,3.685,10.0357,2.25,5.57414,19,5,
2.9092,3.6853,10.0357,2.25,5.57414,19,5,
2.90923,3.68164,10.0342,2.25,5.57414,19,5,
2.90927,3.67615,10.0357,2.25,5.57414,19,5,
2.9093,3.67554,10.0372,2.25,5.57414,19,5,
2.90933,3.67096,10.0342,2.25,5.57414,19,5,
2.90937,3.66638,10.0388,2.25,5.57414,19,5,
2.9094,3.66547,10.0342,2.25,5.57414,19,5,
2.90943,3.66058,10.0327,2.25,5.57414,19,5,
2.90947,3.6554,10.0327,2.25,5.57414,19,5,
2.9095,3.65326,10.0372,2.25,5.57414,19,5,
2.90953,3.65173,10.0372,2.25,5.57414,19,5,
2.90957,3.64594,10.0357,2.25,5.57414,19,5,
2.9096,3.64258,10.0372,2.25,5.57414,19,5,
2.90963,3.64075,10.0372,2.25,5.57414,19,5,
2.90967,3.63708,10.0372,2.25,5.57414,19,5,
2.9097,3.6322,10.0357,2.25,5.57414,19,5,
2.90973,3.63159,10.0357,2.25,5.57414,19,5,
2.90977,3.6261,10.0372,2.25,5.57414,19,5,
2.9098,3.62213,10.0372,2.25,5.57414,19,5,
2.90983,3.62152,10.0357,2.25,5.57414,19,5,
2.90987,3.61694,10.0388,2.25,5.57414,19,5,
2.9099,3.61237,10.0357,2.25,5.57414,19,5,
2.90993,3.61145,10.0388,2.25,5.57414,19,5,
2.90997,3.60687,10.0357,2.25,5.57414,19,5,
2.91,3.60168,10.0372,2.25,5.57414,19,5,
2.91003,3.59894,10.0342,2.25,5.57414,19,5,
2.91007,3.59741,10.025,2.25,5.57414,19,5,
2.9101,3.59192,10.0204,2.25,5.57414,19,5,
2.91013,3.58795,10.0204,2.25,5.57414,19,5,
2.91017,3.58704,10.025,2.25,5.57414,19,5,
2.9102,3.58276,10.0266,2.25,5.57414,19,5,
2.91023,3.57849,10.025,2.25,5.57414,19,5,
2.91027,3.57452,10.0204,2.25,5.57414,19,5,
2.9103,3.573,10.022,2.25,5.57414,19,5,
2.91033,3.56873,10.022,2.25,5.57414,19,5,
2.91037,3.56537,10.025,2.25,5.57414,19,5,
2.9104,3.56293,10.025,2.25,5.57414,19,5,
2.91043,3.55743,10.025,2.25,5.57414,19,5,
2.91047,3.55316,10.0235,2.25,5.57414,19,5,
2.9105,3.55286,10.0235,2.25,5.57414,19,5,
2.91053,3.54858,10.0235,2.25,5.57414,19,5,
2.91057,3.54309,10.0266,2.25,5.57414,19,5,
2.9106,3.54034,10.0204,2.25,5.57414,19,5,
2.91063,3.53821,10.022,2.25,5.57414,19,5,
2.91067,3.53363,10.0235,2.25,5.57414,19,5,
2.9107,3.52905,10.025,2.25,5.57414,19,5,
2.91073,3.52783,10.022,2.25,5.57414,19,5,
2.91077,3.52356,10.0235,2.25,5.57414,19,5,
2.9108,3.51898,10.025,2.25,5.57414,19,5,
2.91083,3.51593,10.0266,2.25,5.57414,19,5,
2.91087,3.5144,10.025,2.25,5.57414,19,5,
2.9109,3.50891,10.022,2.25,5.57414,19,5,
2.91093,3.50586,10.022,2.25,5.57414,19,5,
2.91097,3.50372,10.025,2.25,5.57414,19,5,
2.911,3.49884,10.0235,2.25,5.57414,19,5,
2.91103,3.49457,10.025,2.25,5.57414,19,5,
2.91107,3.49335,10.0235,2.25,5.57414,19,5,
2.9111,3.48969,10.025,2.25,5.57414,19,5,
2.91113,3.4848,10.025,2.25,5.57414,19,5,
2.91117,3.48145,10.025,2.25,5.57414,19,5,
2.9112,3.47931,10.025,2.25,5.57414,19,5,
2.91123,3.47473,10.0235,2.25,5.57414,19,5,
2.91127,3.47137,10.022,2.25,5.57414,19,5,
2.9113,3.47046,10.0235,2.25,5.57414,19,5,
2.91133,3.46527,10.0235,2.25,5.57414,19,5,
2.91137,3.4613,10.0235,2.25,5.57414,19,5,
2.9114,3.45856,10.0235,2.25,5.57414,19,5,
2.91143,3.45459,10.0266,2.25,5.57414,19,5,
2.91147,3.45032,10.0235,2.25,5.57414,19,5,
2.9115,3.4491,10.022,2.25,5.57414,19,5,
2.91153,3.44513,10.025,2.25,5.57414,19,5,
2.91157,3.44086,10.025,2.25,5.57414,19,5,
2.9116,3.43933,10.025,2.25,5.57414,19,5,
2.91163,3.43506,10.0266,2.25,5.57414,19,5,
2.91167,3.4317,10.0235,2.25,5.57414,19,5,
2.9117,3.43048,10.0235,2.25,5.57414,19,5,
2.91173,3.4259,10.025,2.25,5.57414,19,5,
2.91177,3.42163,10.0235,2.25,5.57414,19,5,
2.9118,3.42072,10.0235,2.25,5.57414,19,5,
2.91183,3.41614,10.0235,2.25,5.57414,19,5,
2.91187,3.41187,10.0204,2.25,5.57414,19,5,
2.9119,3.41064,10.0235,2.25,5.57414,19,5,
2.91193,3.40576,10.0235,2.25,5.57414,19,5,
2.91197,3.40179,10.0235,2.25,5.57414,19,5,
2.912,3.40118,10.0235,2.25,5.57414,19,5,
2.91203,3.39722,10.0266,2.25,5.57414,19,5,
2.91207,3.39355,10.0266,2.25,5.57414,19,5,
2.9121,3.39142,10.0235,2.25,5.57414,19,5,
2.91213,3.38684,10.0266,2.25,5.57414,19,5,
2.91217,3.38287,10.0266,2.25,5.57414,19,5,
2.9122,3.38196,10.025,2.25,5.57414,19,5,
2.91223,3.37646,10.0159,2.25,5.57414,19,5,
2.91227,3.37616,10.0113,2.25,5.57414,19,5,
2.9123,3.37189,10.0067,2.25,5.57414,19,5,
2.91233,3.36731,10.0128,2.25,5.57414,19,5,
2.91237,3.36609,10.0113,2.25,5.57414,19,5,
2.9124,3.36151,10.0082,2.25,5.57414,19,5,
2.91243,3.35846,10.0113,2.25,5.57414,19,5,
2.91247,3.35663,10.0128,2.25,5.57414,19,5,
2.9125,3.35205,10.0113,2.25,5.57414,19,5,
2.91253,3.35205,10.0113,2.25,5.57414,19,5,
2.91257,3.34717,10.0098,2.25,5.57414,19,5,
2.9126,3.34229,10.0143,2.25,5.57414,19,5,
2.91263,3.34259,10.0113,2.25,5.57414,19,5,
2.91267,3.3374,10.0098,2.25,5.57414,19,5,
2.9127,3.33771,10.0113,2.25,5.57414,19,5,
2.91273,3.33282,10.0113,2.25,5.57414,19,5,
2.91277,3.32916,10.0128,2.25,5.57414,19,5,
2.9128,3.32764,10.0098,2.25,5.57414,19,5,
2.91283,3.32245,10.0128,2.25,5.57414,19,5,
2.91287,3.32245,10.0098,2.25,5.57414,19,5,
2.9129,3.31726,10.0098,2.25,5.57414,19,5,
2.91293,3.31451,10.0128,2.25,5.57414,19,5,
2.91297,3.31238,10.0113,2.25,5.57414,19,5,
2.913,3.3078,10.0113,2.25,5.57414,19,5,
2.91303,3.3075,10.0128,2.25,5.57414,19,5,
2.91307,3.30292,10.0128,2.25,5.57414,19,5,
2.9131,3.30261,10.0143,2.25,5.57414,19,5,
2.91313,3.29834,10.0098,2.25,5.57414,19,5,
2.91317,3.2959,10.0082,2.25,5.57414,19,5,
2.9132,3.29315,10.0128,2.25,5.57414,19,5,
2.91323,3.28918,10.0113,2.25,5.57414,19,5,
2.91327,3.28766,10.0128,2.25,5.57414,19,5,
2.9133,3.28369,10.0159,2.25,5.57414,19,5,
2.91333,3.28369,10.0021,2.25,5.57414,19,5,
2.91337,3.2785,10.0021,2.25,5.57414,19,5,
2.9134,3.2785,10.0021,2.25,5.57414,19,5,
2.91343,3.27423,9.99909,2.25,5.57414,19,5,
2.91347,3.27393,9.99756,2.25,5.57414,19,5,
2.9135,3.26874,10.0006,2.25,5.57414,19,5,
2.91353,3.26599,9.99146,2.25,5.57414,19,5,
2.91357,3.26385,9.98993,2.25,5.57414,19,5,
2.9136,3.26019,9.98688,2.25,5.57414,19,5,
2.91363,3.25897,9.97467,2.25,5.57414,19,5,
2.91367,3.25623,9.9762,2.25,5.57414,19,5,
2.9137,3.25409,9.96552,2.25,5.57414,19,5,
2.91373,3.25134,9.96246,2.25,5.57414,19,5,
2.91377,3.24921,9.94873,2.25,5.57414,19,5,
2.9138,3.24615,9.9411,2.25,5.57414,19,5,
2.91383,3.24432,9.92737,2.25,5.57414,19,5,
2.91387,3.24219,9.91516,2.25,5.57414,19,5,
2.9139,3.23975,9.90448,2.25,5.57414,19,5,
2.91393,3.23914,9.88922,2.25,5.57414,19,5,
2.91397,3.23456,9.87091,2.25,5.57414,19,5,
2.914,3.23425,9.84955,2.25,5.57414,19,5,
2.91403,3.22968,9.83276,2.25,5.57414,19,5,
2.91407,3.22937,9.8053,2.25,5.57414,19,5,
2.9141,3.2254,9.79157,2.25,5.57414,19,5,
2.91413,3.22479,9.76715,2.25,5.57414,19,5,
2.91417,3.22052,9.73663,2.25,5.57414,19,5,
2.9142,3.2193,9.71069,2.25,5.57414,19,5,
2.91423,3.21594,9.6756,2.25,5.57414,19,5,
2.91427,3.21472,9.64203,2.25,5.57414,19,5,
2.9143,3.21472,9.60999,2.25,5.57414,19,5,
2.91433,3.20984,9.57184,2.25,5.57414,19,5,
2.91437,3.20892,9.53522,2.25,5.57414,19,5,
2.9144,3.20557,9.49097,2.25,5.57414,19,5,
2.91443,3.20526,9.45129,2.25,5.57414,19,5,
2.91447,3.2019,9.40552,2.25,5.57414,19,5,
2.9145,3.20068,9.35669,2.25,5.57414,19,5,
2.91453,3.20068,9.30939,2.25,5.57414,19,5,
2.91457,3.1955,9.25903,2.25,5.57414,19,5,
2.9146,3.1955,9.21021,2.25,5.57414,19,5,
2.91463,3.19336,9.14154,2.25,5.57414,19,5,
2.91467,3.19061,9.09729,2.25,5.57414,19,5,
2.9147,3.19092,9.04541,2.25,5.57414,19,5,
2.91473,3.18573,8.98438,2.25,5.57414,19,5,
2.91477,3.18604,8.9386,2.25,5.57414,19,5,
2.9148,3.18512,8.87756,2.25,5.57414,19,5,
2.91483,3.18054,8.82874,2.25,5.57414,19,5,
2.91487,3.18176,8.7677,2.25,5.57414,19,5,
2.9149,3.17719,8.71582,2.25,5.57414,19,5,
2.91493,3.17627,8.66852,2.25,5.57414,19,5,
2.91497,3.17535,8.61816,2.25,5.57414,19,5,
2.915,3.17139,8.57239,2.25,5.57414,19,5,
2.91503,3.17108,8.52203,2.25,5.57414,19,5,
2.91507,3.17108,8.48694,2.25,5.57414,19,5,
2.9151,3.1665,8.44574,2.25,5.57414,19,5,
2.91513,3.16589,8.40912,2.25,5.57414,19,5,
2.91517,3.16589,8.3725,2.25,5.57414,19,5,
2.9152,3.16132,8.34045,2.25,5.57414,19,5,
2.91523,3.16132,8.31146,2.25,5.57414,19,5,
2.91527,3.16132,8.28552,2.25,5.57414,19,5,
2.9153,3.15643,8.26416,2.25,5.57414,19,5,
2.91533,3.15613,8.2428,2.25,5.57414,19,5,
2.91537,3.15582,8.22296,2.25,5.57414,19,5,
2.9154,3.15277,8.2077,2.25,5.57414,19,5,
2.91543,3.15125,8.18939,2.25,5.57414,19,5,
2.91547,3.15155,8.18329,2.25,5.57414,19,5,
2.9155,3.15094,8.17719,2.25,5.57414,19,5,
2.91553,3.14697,8.17413,2.25,5.57414,19,5,
2.91557,3.14636,8.1665,2.25,5.57414,19,5,
2.9156,3.14606,8.16498,2.25,5.57414,19,5,
2.91563,3.14178,8.16803,2.25,5.57414,19,5,
2.91567,3.14087,8.17719,2.25,5.57414,19,5,
2.9157,3.14178,8.17719,2.25,5.57414,19,5,
2.91573,3.14148,8.19092,2.25,5.57414,19,5,
2.91577,3.1366,8.18939,2.25,5.57414,19,5,
2.9158,3.13751,8.20465,2.25,5.57414,19,5,
2.91583,3.13629,8.21381,2.25,5.57414,19,5,
2.91587,3.13354,8.22601,2.25,5.57414,19,5,
2.9159,3.13171,8.24585,2.25,5.57414,19,5,
2.91593,3.13232,8.26264,2.25,5.57414,19,5,
2.91597,3.13171,8.27332,2.25,5.57414,19,5,
2.916,3.12927,8.2962,2.25,5.57414,19,5,
2.91603,3.12683,8.31757,2.25,5.57414,19,5,
2.91607,3.12714,8.33283,2.25,5.57414,19,5,
2.9161,3.12714,8.36029,2.25,5.57414,19,5,
2.91613,3.12347,8.3786,2.25,5.57414,19,5,
2.91617,3.12256,8.40759,2.25,5.57414,19,5,
2.9162,3.12225,8.42896,2.25,5.57414,19,5,
2.91623,3.12164,8.4549,2.25,5.57414,19,5,
2.91627,3.12256,8.48236,2.25,5.57414,19,5,
2.9163,3.11707,8.50678,2.25,5.57414,19,5,
2.91633,3.11737,8.53119,2.25,5.57414,19,5,
2.91637,3.11737,8.56629,2.25,5.57414,19,5,
2.9164,3.11707,8.58765,2.25,5.57414,19,5,
2.91643,3.11676,8.61664,2.25,5.57414,19,5,
2.91647,3.11218,8.64105,2.25,5.57414,19,5,
2.9165,3.11218,8.6731,2.25,5.57414,19,5,
2.91653,3.11218,8.70514,2.25,5.57414,19,5,
2.91657,3.11249,8.73261,2.25,5.57414,19,5,
2.9166,3.11188,8.7616,2.25,5.57414,19,5,
2.91663,3.1073,8.78754,2.25,5.57414,19,5,
2.91667,3.1073,8.815,2.25,5.57414,19,5,
2.9167,3.1073,8.84705,2.25,5.57414,19,5,
2.91673,3.1073,8.87909,2.25,5.57414,19,5,
2.91677,3.10699,8.90961,2.25,5.57414,19,5,
2.9168,3.10425,8.94318,2.25,5.57414,19,5,
2.91683,3.10211,8.96759,2.25,5.57414,19,5,
2.91687,3.10272,8.99658,2.25,5.57414,19,5,
2.9169,3.10211,9.02863,2.25,5.57414,19,5,
2.91693,3.10211,9.05762,2.25,5.57414,19,5,
2.91697,3.10211,9.08356,2.25,5.57414,20,5,
2.917,3.10181,9.1095,2.25,5.57414,20,5,
2.91703,3.09723,9.13849,2.25,5.57414,20,5,
2.91707,3.09753,9.16443,2.25,5.57414,20,5,
2.9171,3.09723,9.18732,2.25,5.57414,20,5,
2.91713,3.09814,9.21631,2.25,5.57414,20,5,
2.91717,3.09814,9.24072,2.25,5.57414,20,5,
2.9172,3.09753,9.26819,2.25,5.57414,20,5,
2.91723,3.09692,9.2926,2.25,5.57414,20,5,
2.91727,3.09326,9.31397,2.25,5.57414,20,5,
2.9173,3.09265,9.33838,2.25,5.57414,20,5,
2.91733,3.09265,9.36432,2.25,5.57414,20,5,
2.91737,3.09296,9.38416,2.25,5.57414,20,5,
2.9174,3.09265,9.40704,2.25,5.57414,20,5,
2.91743,3.09235,9.42535,2.25,5.57414,20,5,
2.91747,3.09265,9.44672,2.25,5.57414,20,5,
2.9175,3.09204,9.46961,2.25,5.57414,20,5,
2.91753,3.08807,9.49249,2.25,5.57414,20,5,
2.91757,3.08777,9.51233,2.25,5.57414,20,5,
2.9176,3.08777,9.53064,2.25,5.57414,20,5,
2.91763,3.08716,9.5459,2.25,5.57414,20,5,
2.91767,3.08746,9.56421,2.25,5.57414,20,5,
2.9177,3.08746,9.58557,2.25,5.57414,20,5,
2.91773,3.08777,9.60236,2.25,5.57414,20,5,
2.91777,3.08807,9.61762,2.25,5.57414,20,5,
2.9178,3.08777,9.63898,2.25,5.57414,20,5,
2.91783,3.08807,9.66187,2.25,5.57414,20,5,
2.91787,3.08289,9.6695,2.25,5.57414,20,5,
2.9179,3.08258,9.68475,2.25,5.57414,20,5,
2.91793,3.08258,9.70459,2.25,5.57414,20,5,
2.91797,3.0835,9.71832,2.25,5.57414,20,5,
2.918,3.08289,9.73206,2.25,5.57414,20,5,
2.91803,3.08258,9.74121,2.25,5.57414,20,5,
2.91807,3.08258,9.75647,2.25,5.57414,20,5,
2.9181,3.08258,9.77173,2.25,5.57414,20,5,
2.91813,3.08289,9.78088,2.25,5.57414,20,5,
2.91817,3.08258,9.79157,2.25,5.57414,20,5,
2.9182,3.08289,9.80225,2.25,5.57414,20,5,
2.91823,3.08289,9.81598,2.25,5.57414,20,5,
2.91827,3.08289,9.82361,2.25,5.57414,20,5,
2.9183,3.0777,9.82666,2.25,5.57414,20,5,
2.91833,3.078,9.84039,2.25,5.57414,20,5,
2.91837,3.07831,9.8526,2.25,5.57414,20,5,
2.9184,3.07739,9.86481,2.25,5.57414,20,5,
2.91843,3.0777,9.86786,2.25,5.57414,20,5,
2.91847,3.07831,9.87854,2.25,5.57414,20,5,
2.9185,3.07892,9.88617,2.25,5.57414,20,5,
2.91853,3.0777,9.88922,2.25,5.57414,20,5,
2.91857,3.078,9.89838,2.25,5.57414,20,5,
2.9186,3.078,9.90143,2.25,5.57414,20,5,
2.91863,3.078,9.91211,2.25,5.57414,20,5,
2.91867,3.07892,9.91211,2.25,5.57414,20,5,
2.9187,3.07861,9.92584,2.25,5.57414,20,5,
2.91873,3.07831,9.92584,2.25,5.57414,20,5,
2.91877,3.07861,9.92737,2.25,5.57414,20,5,
2.9188,3.07831,9.9411,2.25,5.57414,20,5,
2.91883,3.0777,9.9411,2.25,5.57414,20,5,
2.91887,3.0777,9.93958,2.25,5.57414,20,5,
2.9189,3.07861,9.93805,2.25,5.57414,20,5,
2.91893,3.07861,9.95178,2.25,5.57414,20,5,
2.91897,3.07831,9.95483,2.25,5.57414,20,5,
2.919,3.078,9.95026,2.25,5.57414,20,5,
2.91903,3.0777,9.95178,2.25,5.57414,20,5,
2.91907,3.0777,9.95026,2.25,5.57414,20,5,
2.9191,3.07709,9.95026,2.25,5.57414,20,5,
2.91913,3.078,9.95178,2.25,5.57414,20,5,
2.91917,3.0777,9.95178,2.25,5.57414,20,5,
2.9192,3.07343,9.95178,2.25,5.57414,20,5,
2.91923,3.07251,9.95178,2.25,5.57414,20,5,
2.91927,3.07281,9.95331,2.25,5.57414,20,5,
2.9193,3.07251,9.95026,2.25,5.57414,20,5,
2.91933,3.07281,9.95178,2.25,5.57414,20,5,
2.91937,3.07281,9.95178,2.25,5.57414,20,5,
2.9194,3.07281,9.95178,2.25,5.57414,20,5,
2.91943,3.07251,9.95026,2.25,5.57414,20,5,
2.91947,3.07281,9.95026,2.25,5.57414,20,5,
2.9195,3.07312,9.95026,2.25,5.57414,20,5,
2.91953,3.07343,9.94721,2.25,5.57414,20,5,
2.91957,3.07251,9.935,2.25,5.57414,20,5,
2.9196,3.07281,9.93958,2.25,5.57414,20,5,
2.91963,3.07556,9.94415,2.25,5.57414,20,5,
2.91967,3.0777,9.93805,2.25,5.57414,20,5,
2.9197,3.0777,9.93805,2.25,5.57414,20,5,
2.91973,3.0777,9.9411,2.25,5.57414,20,5,
2.91977,3.0777,9.93958,2.25,5.57414,20,5,
2.9198,3.078,9.93195,2.25,5.57414,20,5,
2.91983,3.07831,9.92432,2.25,5.57414,20,5,
2.91987,3.07831,9.92889,2.25,5.57414,20,5,
2.9199,3.07739,9.92889,2.25,5.57414,20,5,
2.91993,3.0777,9.91364,2.25,5.57414,20,5,
2.91997,3.07739,9.91669,2.25,5.57414,20,5,
2.92,3.0777,9.90295,2.25,5.57414,20,5,
2.92003,3.07739,9.8938,2.25,5.57414,20,5,
2.92007,3.07739,9.88159,2.25,5.57414,20,5,
2.9201,3.0777,9.86633,2.25,5.57414,20,5,
2.92013,3.0777,9.84192,2.25,5.57414,20,5,
2.92017,3.0777,9.82819,2.25,5.57414,20,5,
2.9202,3.078,9.79767,2.25,5.57414,20,5,
2.92023,3.0777,9.7702,2.25,5.57414,20,5,
2.92027,3.07831,9.73816,2.25,5.57414,20,5,
2.9203,3.0777,9.69544,2.25,5.57414,20,5,
2.92033,3.0777,9.64813,2.25,5.57414,20,5,
2.92037,3.07831,9.61304,2.25,5.57414,20,5,
2.9204,3.0777,9.56268,2.25,5.57414,20,5,
2.92043,3.0777,9.50012,2.25,5.57414,20,5,
2.92047,3.0777,9.44214,2.25,5.57414,20,5,
2.9205,3.0777,9.38416,2.25,5.57414,20,5,
2.92053,3.07709,9.32312,2.25,5.57414,20,5,
2.92057,3.078,9.25751,2.25,5.57414,20,5,
2.9206,3.0777,9.18884,2.25,5.57414,20,5,
2.92063,3.0777,9.11408,2.25,5.57414,20,5,
2.92067,3.07831,9.04236,2.25,5.57414,20,5,
2.9207,3.07831,8.96912,2.25,5.57414,20,5,
2.92073,3.08228,8.8913,2.25,5.57414,20,5,
2.92077,3.08289,8.8089,2.25,5.57414,20,5,
2.9208,3.08289,8.72955,2.25,5.57414,20,5,
2.92083,3.08289,8.64868,2.25,5.57414,20,5,
2.92087,3.08289,8.56476,2.25,5.57414,20,0,
2.9209,3.08319,8.47778,2.25,5.57414,20,0,
2.92093,3.08228,8.39081,2.25,5.57414,20,0,
2.92097,3.08258,8.30994,2.25,5.57414,20,0,
2.921,3.08228,8.22296,2.25,5.57414,20,0,
2.92103,3.08289,8.13599,2.25,5.57414,20,0,
2.92107,3.08289,8.04749,2.25,5.57414,20,0,
2.9211,3.08289,7.95746,2.25,5.57414,20,0,
2.92113,3.08319,7.86591,2.25,5.57414,20,0,
2.92117,3.08258,7.77893,2.25,5.57414,20,0,
2.9212,3.08228,7.69653,2.25,5.57414,20,0,
2.92123,3.08258,7.60651,2.25,5.57414,20,0,
2.92127,3.08289,7.52258,2.25,5.57414,20,0,
2.9213,3.08289,7.43866,2.25,5.57414,20,0,
2.92133,3.08777,7.34711,2.25,5.57414,20,0,
2.92137,3.08716,7.26471,2.25,5.57414,20,0,
2.9214,3.08777,7.19299,2.25,5.57414,20,0,
2.92143,3.08777,7.10754,2.25,5.57414,20,0,
2.92147,3.08746,7.02972,2.25,5.57414,20,0,
2.9215,3.08746,6.95496,2.25,5.57414,20,0,
2.92153,3.08746,6.88629,2.25,5.57414,20,0,
2.92157,3.08807,6.82221,2.25,5.57414,20,0,
2.9216,3.08746,6.7627,2.25,5.57414,20,0,
2.92163,3.08777,6.71082,2.25,5.57414,20,0,
2.92167,3.08746,6.66504,2.25,5.57414,20,0,
2.9217,3.08777,6.61316,2.25,5.57414,20,0,
2.92173,3.08807,6.57501,2.25,5.57414,20,0,
2.92177,3.08838,6.53534,2.25,5.57414,20,0,
2.9218,3.08777,6.50787,2.25,5.57414,20,0,
2.92183,3.08807,6.48041,2.25,5.57414,20,0,
2.92187,3.09235,6.46057,2.25,5.57414,20,0,
2.9219,3.09265,6.44684,2.25,5.57414,20,0,
2.92193,3.09265,6.43921,2.25,5.57414,20,0,
2.92197,3.09265,6.427,2.25,5.57414,20,0,
2.922,3.09326,6.42548,2.25,5.57414,20,0,
2.92203,3.09296,6.427,2.25,5.57414,20,0,
2.92207,3.09204,6.43616,2.25,5.57414,20,0,
2.9221,3.09296,6.45142,2.25,5.57414,20,0,
2.92213,3.09235,6.4621,2.25,5.57414,20,0,
2.92217,3.09235,6.47736,2.25,5.57414,20,0,
2.9222,3.09265,6.50177,2.25,5.57414,20,0,
2.92223,3.09265,6.51856,2.25,5.57414,20,0,
2.92227,3.09204,6.54297,2.25,5.57414,20,0,
2.9223,3.09235,6.56281,2.25,5.57414,20,0,
2.92233,3.09296,6.58417,0,5.57414,20,0,
2.92237,3.0954,6.60553,0,5.57414,20,0,
2.9224,3.09784,6.63147,0,5.57414,20,0,
2.92243,3.09753,6.65894,0,5.57414,20,0,
2.92247,3.09753,6.68335,0,5.57414,20,0,
2.9225,3.09753,6.70929,0,5.57414,20,0,
2.92253,3.09814,6.72913,0,5.57414,20,0,
2.92257,3.09784,6.74439,0,5.57414,20,0,
2.9226,3.09814,6.76575,0,5.57414,20,0,
2.92263,3.09723,6.78101,0,5.57414,20,0,
2.92267,3.09784,6.80389,0,5.57414,20,0,
2.9227,3.09784,6.82221,0,5.57414,20,0,
2.92273,3.09784,6.83136,0,5.57414,20,0,
2.92277,3.09753,6.84967,0,5.57414,20,0,
2.9228,3.09784,6.8634,0,5.57414,20,0,
2.92283,3.09753,6.87866,0,5.57414,20,0,
2.92287,3.09784,6.8924,0,5.57414,20,0,
2.9229,3.10242,6.90155,0,5.57414,20,0,
2.92293,3.10211,6.91681,0,5.57414,20,0,
2.92297,3.10272,6.92444,0,5.57414,20,0,
2.923,3.10211,6.9397,0,5.57414,20,0,
2.92303,3.10211,6.95191,0,5.57414,20,0,
2.92307,3.10272,6.96411,0,5.57414,20,0,
2.9231,3.10303,6.97479,0,5.57414,20,0,
2.92313,3.10211,6.98547,0,5.57414,20,0,
2.92317,3.10211,6.98853,0,5.57414,20,0,
2.9232,3.10303,6.99616,0,5.57414,20,0,
2.92323,3.10242,7.00073,0,5.57414,20,0,
2.92327,3.10272,7.00531,0,5.57414,20,0,
2.9233,3.10242,7.01294,0,5.57414,20,0,
2.92333,3.10211,7.01599,0,5.57414,20,0,
2.92337,3.10211,7.01447,0,5.57414,20,0,
2.9234,3.1076,7.01447,0,5.57414,20,0,
2.92343,3.1076,7.00226,0,5.57414,20,0,
2.92347,3.1073,7.00226,0,5.57414,20,0,
2.9235,3.1076,6.99158,0,5.57414,20,0,
2.92353,3.1076,6.98853,0,5.57414,20,0,
2.92357,3.1073,6.97632,0,5.57414,20,0,
2.9236,3.10699,6.96869,0,5.57414,20,0,
2.92363,3.1076,6.95191,0,5.57414,20,0,
2.92367,3.1073,6.94122,0,5.57414,20,0,
2.9237,3.10699,6.92749,0,5.57414,20,0,
2.92373,3.10699,6.90918,0,5.57414,20,0,
2.92377,3.1073,6.8924,0,5.57414,20,0,
2.9238,3.1076,6.87866,0,5.57414,20,0,
2.92383,3.10699,6.85883,0,5.57414,20,0,
2.92387,3.10699,6.84509,0,5.57414,20,0,
2.9239,3.10791,6.82526,0,5.57414,20,0,
2.92393,3.11279,6.8161,0,5.57414,20,0,
2.92397,3.11218,6.80389,0,5.57414,20,0,
2.924,3.11188,6.79016,0,5.57414,20,0,
2.92403,3.11249,6.78101,0,5.57414,20,0,
2.92407,3.11249,6.7688,0,5.57414,20,0,
2.9241,3.11249,6.77033,0,5.57414,20,0,
2.92413,3.11218,6.7688,0,5.57414,20,0,
2.92417,3.11188,6.7688,0,5.57414,20,0,
2.9242,3.11188,6.77033,0,5.57414,20,0,
2.92423,3.11218,6.77033,0,5.57414,20,0,
2.92427,3.11157,6.77948,0,5.57414,20,0,
2.9243,3.11218,6.78406,0,5.57414,20,0,
2.92433,3.11188,6.79169,0,5.57414,20,0,
2.92437,3.11188,6.80695,0,5.57414,20,0,
2.9244,3.11157,6.8161,0,5.57414,20,0,
2.92443,3.11188,6.83746,0,5.57414,20,0,
2.92447,3.11157,6.85272,0,5.57414,20,0,
2.9245,3.11707,6.86798,0,5.57414,20,0,
2.92453,3.11737,6.88324,0,5.57414,20,0,
2.92457,3.11707,6.89697,0,5.57414,20,0,
2.9246,3.11707,6.91376,0,5.57414,20,0,
2.92463,3.11737,6.93054,0,5.57414,20,0,
2.92467,3.11707,6.94122,0,5.57414,20,0,
2.9247,3.11646,6.95496,0,5.57414,20,0,
2.92473,3.11768,6.95953,0,5.57414,20,0,
2.92477,3.11615,6.97327,0,5.57414,20,0,
2.9248,3.11798,6.97785,0,5.57414,20,0,
2.92483,3.11707,6.987,0,5.57414,20,0,
2.92487,3.11737,6.98853,0,5.57414,20,0,
2.9249,3.11707,6.99158,0,5.57414,20,0,
2.92493,3.11707,6.98853,0,5.57414,20,0,
2.92497,3.11615,7.00073,0,5.57414,20,0,
2.925,3.11646,7.00073,0,5.57414,20,0,
2.92503,3.11768,6.99921,0,5.57414,20,0,
2.92507,3.11707,7.00226,0,5.57414,20,0,
2.9251,3.12073,6.99768,0,5.57414,20,0,
2.92513,3.12256,7.00379,0,5.57414,20,0,
2.92517,3.12164,6.99768,0,5.57414,20,0,
2.9252,3.12195,7.00226,0,5.57414,20,0,
2.92523,3.12134,7.00073,0,5.57414,20,0,
2.92527,3.12225,7.00073,0,5.57414,20,0,
2.9253,3.12225,7.01294,0,5.57414,20,0,
2.92533,3.12195,7.01447,0,5.57414,20,0,
2.92537,3.12164,7.01294,0,5.57414,20,0,
2.9254,3.12225,7.02362,0,5.57414,20,0,
2.92543,3.12164,7.02362,0,5.57414,20,0,
2.92547,3.12256,7.03735,0,5.57414,20,0,
2.9255,3.12225,7.03888,0,5.57414,20,0,
2.92553,3.12195,7.04956,0,5.57414,20,0,
2.92557,3.12256,7.04956,0,5.57414,20,0,
2.9256,3.12164,7.06329,0,5.57414,20,0,
2.92563,3.12195,7.07245,0,5.57414,20,0,
2.92567,3.12164,7.07398,0,5.57414,20,0,
2.9257,3.12531,7.08618,0,5.57414,20,0,
2.92573,3.12744,7.09381,0,5.57414,20,0,
2.92577,3.12714,7.10297,0,5.57414,20,0,
2.9258,3.12714,7.10907,0,5.57414,20,0,
2.92583,3.12683,7.11212,0,5.57414,20,0,
2.92587,3.12714,7.12433,0,5.57414,20,0,
2.9259,3.12683,7.13654,0,5.57414,20,0,
2.92593,3.12683,7.13501,0,5.57414,20,0,
2.92597,3.12744,7.14722,0,5.57414,20,0,
2.926,3.12653,7.1579,0,5.57414,20,0,
2.92603,3.12653,7.17163,0,5.57414,20,0,
2.92607,3.12683,7.17621,0,5.57414,20,0,
2.9261,3.12683,7.19299,0,5.57414,20,0,
2.92613,3.12714,7.20215,0,5.57414,20,0,
2.92617,3.12683,7.22046,0,5.57414,20,0,
2.9262,3.12622,7.23114,0,5.57414,20,0,
2.92623,3.12653,7.24945,0,5.57414,20,0,
2.92627,3.12653,7.26929,0,5.57414,20,0,
2.9263,3.12683,7.2876,0,5.57414,20,0,
2.92633,3.13141,7.31354,0,5.57414,20,0,
2.92637,3.13171,7.33185,0,5.57414,20,0,
2.9264,3.13202,7.36084,0,5.57414,20,0,
2.92643,3.13171,7.38983,0,5.57414,20,0,
2.92647,3.13141,7.41425,0,5.57414,20,0,
2.9265,3.1308,7.44171,0,5.57414,20,0,
2.92653,3.13171,7.4707,0,5.57414,20,0,
2.92657,3.13171,7.50275,0,5.57414,20,0,
2.9266,3.13171,7.53632,0,5.57414,20,0,
2.92663,3.1311,7.56531,0,5.57414,20,0,
2.92667,3.1311,7.59735,0,5.57414,20,0,
2.9267,3.13141,7.63397,0,5.57414,20,0,
2.92673,3.13141,7.66907,0,5.57414,20,0,
2.92677,3.13202,7.70722,0,5.57414,20,0,
2.9268,3.13202,7.73773,0,5.57414,20,0,
2.92683,3.13141,7.76978,0,5.57414,20,0,
2.92687,3.13171,7.80487,0,5.57414,20,0,
2.9269,3.13141,7.83997,0,5.57414,20,0,
2.92693,3.13202,7.87201,0,5.57414,20,0,
2.92697,3.13202,7.90405,0,5.57414,20,0,
2.927,3.13507,7.93152,0,5.57414,20,0,
2.92703,3.13721,7.96661,0,5.57414,20,0,
2.92707,3.1369,7.99103,0,5.57414,20,0,
2.9271,3.1366,8.01697,0,5.57414,20,0,
2.92713,3.1369,8.05206,0,5.57414,20,0,
2.92717,3.1369,8.07495,0,5.57414,20,0,
2.9272,3.1369,8.09326,0,5.57414,20,0,
2.92723,3.13751,8.1131,0,5.57414,20,0,
2.92727,3.1369,8.13751,0,5.57414,20,0,
2.9273,3.13599,8.14819,0,5.57414,20,0,
2.92733,3.1366,8.16345,0,5.57414,20,0,
2.92737,3.1369,8.17719,0,5.57414,20,0,
2.9274,3.1369,8.18939,0,5.57414,20,0,
2.92743,3.13629,8.19702,0,5.57414,20,0,
2.92747,3.13629,8.20007,0,5.57414,20,0,
2.9275,3.1369,8.2016,0,5.57414,20,0,
2.92753,3.13629,8.20007,0,5.57414,20,0,
2.92757,3.1366,8.20007,0,5.57414,20,0,
2.9276,3.1366,8.20313,0,5.57414,20,0,
2.92763,3.13599,8.20007,0,5.57414,20,0,
2.92767,3.1366,8.2016,0,5.57414,20,0,
2.9277,3.1369,8.19855,0,5.57414,20,0,
2.92773,3.14178,8.18787,0,5.57414,20,0,
2.92777,3.14117,8.19092,0,5.57414,20,0,
2.9278,3.14148,8.19244,0,5.57414,20,0,
2.92783,3.14148,8.17413,0,5.57414,20,0,
2.92787,3.14178,8.17871,0,5.57414,20,0,
2.9279,3.14178,8.17261,0,5.57414,20,0,
2.92793,3.14148,8.16345,0,5.57414,20,0,
2.92797,3.14178,8.16345,0,5.57414,20,0,
2.928,3.14148,8.16193,0,5.57414,20,0,
2.92803,3.14056,8.16345,0,5.57414,20,0,
2.92807,3.14148,8.16498,0,5.57414,20,0,
2.9281,3.14087,8.16498,0,5.57414,20,0,
2.92813,3.14117,8.16498,0,5.57414,20,0,
2.92817,3.14148,8.17566,0,5.57414,20,0,
2.9282,3.14148,8.17566,0,5.57414,20,0,
2.92823,3.14087,8.18634,0,5.57414,20,0,
2.92827,3.14148,8.18787,0,5.57414,20,0,
2.9283,3.14209,8.20618,0,5.57414,20,0,
2.92833,3.1424,8.21228,0,5.57414,20,0,
2.92837,3.14148,8.22601,0,5.57414,20,0,
2.9284,3.14209,8.23517,0,5.57414,20,0,
2.92843,3.14117,8.25348,0,5.57414,20,0,
2.92847,3.14117,8.27637,0,5.57414,20,0,
2.9285,3.14209,8.29468,0,5.57414,20,0,
2.92853,3.14148,8.30994,0,5.57414,20,0,
2.92857,3.14148,8.32977,0,5.57414,20,0,
2.9286,3.14636,8.35724,0,5.57414,20,0,
2.92863,3.14606,8.38013,0,5.57414,20,0,
2.92867,3.14636,8.39691,0,5.57414,20,0,
2.9287,3.14636,8.42896,0,5.57414,20,0,
2.92873,3.14606,8.45184,0,5.57414,20,0,
2.92877,3.14667,8.47626,0,5.57414,20,0,
2.9288,3.14728,8.5022,0,5.57414,20,0,
2.92883,3.14636,8.53272,0,5.57414,20,0,
2.92887,3.14606,8.55713,0,5.57414,20,0,
2.9289,3.14636,8.5907,0,5.57414,20,5,
2.92893,3.14636,8.61664,0,5.57414,20,5,
2.92897,3.14697,8.64105,0,5.57414,20,5,
2.929,3.14697,8.67462,0,5.57414,20,5,
2.92903,3.14667,8.70361,0,5.57414,20,5,
2.92907,3.14606,8.73566,0,5.57414,20,5,
2.9291,3.14697,8.76007,0,5.57414,20,5,
2.92913,3.14636,8.79364,0,5.57414,20,5,
2.92917,3.14636,8.82263,0,5.57414,20,5,
2.9292,3.14636,8.84857,0,5.57414,20,5,
2.92923,3.14606,8.88367,0,5.57414,20,5,
2.92927,3.14667,8.90961,0,5.57414,20,5,
2.9293,3.14728,8.93707,0,5.57414,20,5,
2.92933,3.14667,8.96912,0,5.57414,20,5,
2.92937,3.14606,8.99048,0,5.57414,20,5,
2.9294,3.14636,9.01947,0,5.57414,20,5,
2.92943,3.14636,9.05151,0,5.57414,20,5,
2.92947,3.14667,9.07745,0,5.57414,20,5,
2.9295,3.14697,9.10187,0,5.57414,20,5,
2.92953,3.14636,9.13086,0,5.57414,20,5,
2.92957,3.15033,9.15375,0,5.57414,20,5,
2.9296,3.15186,9.18121,0,5.57414,20,5,
2.92963,3.15155,9.2041,0,5.57414,20,5,
2.92967,3.15125,9.22699,0,5.57414,20,5,
2.9297,3.15094,9.25446,0,5.57414,20,5,
2.92973,3.15125,9.27734,0,5.57414,20,5,
2.92977,3.15125,9.30481,0,5.57414,20,5,
2.9298,3.15155,9.3216,0,5.57414,20,5,
2.92983,3.15125,9.34601,0,5.57414,20,5,
2.92987,3.15094,9.36585,0,5.57414,20,5,
2.9299,3.15155,9.38263,0,5.57414,20,5,
2.92993,3.15125,9.40094,0,5.57414,20,5,
2.92997,3.15125,9.42383,0,5.57414,20,5,
2.93,3.15125,9.43756,0,5.57414,20,5,
2.93003,3.15125,9.4574,0,5.57414,20,5,
2.93007,3.15094,9.47266,0,5.57414,20,5,
2.9301,3.15155,9.48639,0,5.57414,20,5,
2.93013,3.15155,9.49707,0,5.57414,20,5,
2.93017,3.15155,9.51538,0,5.57414,20,5,
2.9302,3.15155,9.53217,0,5.57414,20,5,
2.93023,3.15155,9.54285,0,5.57414,20,5,
2.93027,3.15094,9.54743,0,5.57414,20,5,
2.9303,3.1543,9.56116,0,5.57414,20,5,
2.93033,3.15552,9.57031,0,5.57414,20,5,
2.93037,3.15643,9.57794,0,5.57414,20,5,
2.9304,3.15674,9.58862,0,5.57414,20,5,
2.93043,3.15643,9.58099,0,5.57414,20,5,
2.93047,3.15582,9.59473,0,5.57414,20,5,
2.9305,3.15552,9.59473,0,5.57414,20,5,
2.93053,3.15582,9.59625,0,5.57414,20,5,
2.93057,3.15643,9.59015,0,5.57414,20,5,
2.9306,3.15582,9.59168,0,5.57414,20,5,
2.93063,3.15643,9.58405,0,5.57414,20,5,
2.93067,3.15613,9.58405,0,5.57414,20,5,
2.9307,3.15613,9.57031,0,5.57414,20,5,
2.93073,3.15643,9.56116,0,5.57414,20,5,
2.93077,3.15613,9.5459,0,5.57414,20,5,
2.9308,3.15582,9.51996,0,5.57414,20,5,
2.93083,3.15887,9.5047,0,5.57414,20,5,
2.93087,3.16101,9.48486,0,5.57414,20,5,
2.9309,3.16101,9.46503,0,5.57414,20,5,
2.93093,3.16193,9.43756,0,5.57414,20,5,
2.93097,3.16071,9.40399,0,5.57414,20,5,
2.931,3.16132,9.37653,0,5.57414,20,5,
2.93103,3.16101,9.34906,0,5.57414,20,5,
2.93107,3.16071,9.32007,0,5.57414,20,5,
2.9311,3.16132,9.29108,0,5.57414,20,5,
2.93113,3.16132,9.25293,0,5.57414,20,5,
2.93117,3.16101,9.22089,0,5.57414,20,5,
2.9312,3.16162,9.19495,0,5.57414,20,5,
2.93123,3.16132,9.1629,0,5.57414,20,5,
2.93127,3.16406,9.13239,0,5.57414,20,5,
2.9313,3.1662,9.09882,0,5.57414,20,5,
2.93133,3.1662,9.0622,0,5.57414,20,5,
2.93137,3.16528,9.03168,0,5.57414,20,5,
2.9314,3.16589,9.00116,0,5.57414,20,5,
2.93143,3.16559,8.96454,0,5.57414,20,5,
2.93147,3.16528,8.92792,0,5.57414,20,5,
2.9315,3.16559,8.88977,0,5.57414,20,5,
2.93153,3.16589,8.86078,0,5.57414,20,5,
2.93157,3.1662,8.82263,0,5.57414,20,5,
2.9316,3.1662,8.78601,0,5.57414,20,5,
2.93163,3.1662,8.75244,0,5.57414,20,5,
2.93167,3.17139,8.70361,0,5.57414,20,5,
2.9317,3.17017,8.66699,0,5.57414,20,5,
2.93173,3.17047,8.6319,0,5.57414,20,5,
2.93177,3.17078,8.58765,0,5.57414,20,5,
2.9318,3.17108,8.55103,0,5.57414,20,0,
2.93183,3.17078,8.49915,0,5.57414,20,0,
2.93187,3.17108,8.461,0,5.57414,20,0,
2.9319,3.17078,8.4137,0,5.57414,20,0,
2.93193,3.17078,8.36182,0,5.57414,20,0,
2.93197,3.17078,8.32367,0,5.57414,20,0,
2.932,3.17566,8.27942,0,5.57414,20,0,
2.93203,3.17566,8.23212,0,5.57414,20,0,
2.93207,3.17535,8.17871,0,5.57414,20,0,
2.9321,3.17627,8.14514,0,5.57414,20,0,
2.93213,3.17566,8.09784,0,5.57414,20,0,
2.93217,3.17566,8.05512,0,5.57414,20,0,
2.9322,3.17535,8.02307,0,5.57414,20,0,
2.93223,3.17596,7.98187,0,5.57414,20,0,
2.93227,3.17566,7.9483,0,5.57414,20,0,
2.9323,3.17993,7.91779,0,5.57414,20,0,
2.93233,3.18085,7.88574,0,5.57414,20,0,
2.93237,3.18085,7.86133,0,5.57414,20,0,
2.9324,3.18054,7.84912,0,5.57414,20,0,
2.93243,3.18024,7.82623,0,5.57414,20,0,
2.93247,3.18054,7.80792,0,5.57414,20,0,
2.9325,3.18054,7.79724,0,5.57414,20,0,
2.93253,3.18024,7.78198,0,5.57414,20,0,
2.93257,3.18115,7.78504,0,5.57414,20,0,
2.9326,3.18573,7.77435,0,5.57414,20,0,
2.93263,3.18573,7.77588,0,5.57414,20,0,
2.93267,3.18634,7.77435,0,5.57414,20,0,
2.9327,3.18542,7.78046,0,5.57414,20,0,
2.93273,3.18573,7.78504,0,5.57414,20,0,
2.93277,3.18573,7.79724,0,5.57414,20,0,
2.9328,3.18573,7.81097,0,5.57414,20,0,
2.93283,3.18604,7.82471,0,5.57414,20,0,
2.93287,3.19061,7.83997,0,5.57414,20,0,
2.9329,3.19122,7.85675,0,5.57414,20,0,
2.93293,3.19092,7.87659,0,5.57414,20,0,
2.93297,3.19061,7.90253,0,5.57414,20,0,
2.933,3.19153,7.92084,0,5.57414,20,0,
2.93303,3.19122,7.94678,0,5.57414,20,0,
2.93307,3.19061,7.9773,0,5.57414,20,0,
2.9331,3.19458,8.00171,0,5.57414,20,0,
2.93313,3.1955,8.02612,0,5.57414,20,0,
2.93317,3.1955,8.05359,0,5.57414,20,0,
2.9332,3.19611,8.08868,0,5.57414,20,0,
2.93323,3.1955,8.11615,0,5.57414,20,0,
2.93327,3.1955,8.14972,0,5.57414,20,0,
2.9333,3.1958,8.17719,0,5.57414,20,0,
2.93333,3.19824,8.21076,0,5.57414,20,0,
2.93337,3.20038,8.2367,0,5.57414,20,0,
2.9334,3.20099,8.26721,0,5.57414,20,0,
2.93343,3.19977,8.29468,0,5.57414,20,0,
2.93347,3.20007,8.32062,0,5.57414,20,0,
2.9335,3.19977,8.34351,0,5.57414,20,0,
2.93353,3.19946,8.35724,0,5.57414,20,0,
2.93357,3.20435,8.37402,0,5.57414,20,0,
2.9336,3.20465,8.38471,0,5.57414,20,0,
2.93363,3.20465,8.39539,0,5.57414,20,0,
2.93367,3.20496,8.39386,0,5.57414,20,0,
2.9337,3.20496,8.39539,0,5.57414,20,0,
2.93373,3.20496,8.39539,0,5.57414,20,0,
2.93377,3.20496,8.38318,0,5.57414,20,0,
2.9338,3.20984,8.37555,0,5.57414,20,0,
2.93383,3.20953,8.36029,0,5.57414,20,0,
2.93387,3.21106,8.3374,0,5.57414,20,0,
2.9339,3.20984,8.31451,0,5.57414,20,0,
2.93393,3.20984,8.29163,0,5.57414,20,0,
2.93397,3.20953,8.26264,0,5.57414,20,0,
2.934,3.21503,8.22601,0,5.57414,20,0,
2.93403,3.21442,8.20007,0,5.57414,20,0,
2.93407,3.21533,8.1665,0,5.57414,20,0,
2.9341,3.21503,8.13751,0,5.57414,20,0,
2.93413,3.21503,8.107,0,5.57414,20,0,
2.93417,3.21503,8.07648,0,5.57414,20,0,
2.9342,3.21991,8.04443,0,5.57414,20,0,
2.93423,3.21991,8.02307,0,5.57414,20,0,
2.93427,3.2193,7.99408,0,5.57414,20,0,
2.9343,3.22021,7.97119,0,5.57414,20,0,
2.93433,3.21991,7.9483,0,5.57414,20,0,
2.93437,3.2196,7.93457,0,5.57414,20,0,
2.9344,3.22449,7.91779,0,5.57414,20,0,
2.93443,3.2254,7.901,0,5.57414,20,0,
2.93447,3.22479,7.88879,0,5.57414,20,0,
2.9345,3.22418,7.87964,0,5.57414,20,0,
2.93453,3.22479,7.87201,0,5.57414,20,0,
2.93457,3.22479,7.86896,0,5.57414,20,0,
2.9346,3.23029,7.87201,0,5.57414,20,0,
2.93463,3.22968,7.87048,0,5.57414,20,0,
2.93467,3.23029,7.86743,0,5.57414,20,0,
2.9347,3.22968,7.88422,0,5.57414,20,0,
2.93473,3.22876,7.88117,0,5.57414,20,0,
2.93477,3.23303,7.89642,0,5.57414,20,0,
2.9348,3.23456,7.90711,0,5.57414,20,0,
2.93483,3.23486,7.91931,0,5.57414,20,0,
2.93487,3.23425,7.93457,0,5.57414,20,0,
2.9349,3.23456,7.94373,0,5.57414,20,0,
2.93493,3.23486,7.96509,0,5.57414,20,0,
2.93497,3.23883,7.98035,0,5.57414,20,0,
2.935,3.23914,7.99866,0,5.57414,20,0,
2.93503,3.23975,8.01697,0,5.57414,20,0,
2.93507,3.23914,8.03986,0,5.57414,20,0,
2.9351,3.23914,8.06274,0,5.57414,20,0,
2.93513,3.23975,8.08106,0,5.57414,20,0,
2.93517,3.24432,8.10394,0,5.57414,20,0,
2.9352,3.24493,8.12683,0,5.57414,20,0,
2.93523,3.24402,8.14972,0,5.57414,20,0,
2.93527,3.24463,8.1665,0,5.57414,20,0,
2.9353,3.24493,8.19092,0,5.57414,20,0,
2.93533,3.2486,8.20923,0,5.57414,20,0,
2.93537,3.24921,8.23212,0,5.57414,20,0,
2.9354,3.2489,8.2489,0,5.57414,20,0,
2.93543,3.24921,8.27179,0,5.57414,20,0,
2.93547,3.24951,8.29468,0,5.57414,20,0,
2.9355,3.24921,8.31909,0,5.57414,20,0,
2.93553,3.2547,8.3374,0,5.57414,20,0,
2.93557,3.25409,8.35724,0,5.57414,20,0,
2.9356,3.25439,8.37097,0,5.57414,20,0,
2.93563,3.25439,8.39386,0,5.57414,20,0,
2.93567,3.25378,8.40912,0,5.57414,20,0,
2.9357,3.25775,8.43506,0,5.57414,20,0,
2.93573,3.25836,8.45184,0,5.57414,20,0,
2.93577,3.25958,8.47168,0,5.57414,20,0,
2.9358,3.25867,8.48999,0,5.57414,20,0,
2.93583,3.25958,8.50678,0,5.57414,20,0,
2.93587,3.25897,8.52661,0,5.57414,20,0,
2.9359,3.26355,8.54492,0,5.57414,20,0,
2.93593,3.26385,8.56476,0,5.57414,20,0,
2.93597,3.26416,8.58765,0,5.57414,20,0,
2.936,3.26416,8.60291,0,5.57414,20,0,
2.93603,3.26385,8.6319,0,5.57414,20,0,
2.93607,3.26721,8.64716,0,0,20,0,
2.9361,3.26843,8.66242,0,0,20,0,
2.93613,3.26843,8.68683,0,0,20,0,
2.93617,3.26904,8.70361,0,0,20,0,
2.9362,3.26874,8.72345,0,0,20,0,
2.93623,3.26874,8.73566,0,0,20,0,
2.93627,3.27393,8.75244,0,0,20,0,
2.9363,3.27362,8.77228,0,0,20,0,
2.93633,3.27332,8.78754,0,0,20,0,
2.93637,3.27454,8.8028,0,0,20,0,
2.9364,3.27393,8.81195,0,0,20,0,
2.93643,3.27393,8.82416,0,0,20,0,
2.93647,3.27881,8.82721,0,0,20,0,
2.9365,3.27911,8.83789,0,0,20,0,
2.93653,3.2785,8.83637,0,0,20,0,
2.93657,3.2785,8.83484,0,0,20,0,
2.9366,3.27881,8.83637,0,0,20,0,
2.93663,3.28308,8.83942,0,0,20,0,
2.93667,3.28369,8.82111,0,0,20,0,
2.9367,3.284,8.815,0,0,20,0,
2.93673,3.28308,8.79669,0,0,20,0,
2.93677,3.284,8.77991,0,0,20,0,
2.9368,3.284,8.76465,0,0,20,0,
2.93683,3.28827,8.74024,0,0,20,0,
2.93687,3.28796,8.71582,0,0,20,0,
2.9369,3.28796,8.68836,0,0,20,0,
2.93693,3.28857,8.65936,0,0,20,0,
2.93697,3.28827,8.62885,0,0,20,0,
2.937,3.29132,8.59528,0,0,20,0,
2.93703,3.29346,8.55713,0,0,20,0,
2.93707,3.29285,8.52203,0,0,20,0,
2.9371,3.29407,8.48999,0,0,20,0,
2.93713,3.29376,8.44574,0,0,20,0,
2.93717,3.29376,8.41217,0,0,20,0,
2.9372,3.29681,8.37555,0,0,20,0,
2.93723,3.29803,8.3374,0,0,20,0,
2.93727,3.29834,8.2962,0,0,20,0,
2.9373,3.29742,8.25195,0,0,20,0,
2.93733,3.29834,8.21838,0,0,20,0,
2.93737,3.29865,8.17566,0,0,20,0,
2.9374,3.30231,8.12836,0,0,20,0,
2.93743,3.30292,8.09021,0,0,20,0,
2.93747,3.30322,8.04749,0,0,20,0,
2.9375,3.30292,7.99713,0,0,20,0,
2.93753,3.30292,7.95899,0,0,20,0,
2.93757,3.30292,7.90863,0,0,20,0,
2.9376,3.30719,7.87201,0,0,20,0,
2.93763,3.3075,7.82471,0,0,20,0,
2.93767,3.30811,7.78504,0,0,20,0,
2.9377,3.3078,7.74384,0,0,20,0,
2.93773,3.30841,7.70416,0,0,20,0,
2.93777,3.3078,7.66296,0,0,20,0,
2.9378,3.31055,7.62482,0,0,20,0,
2.93783,3.31268,7.58972,0,0,20,0,
2.93787,3.31238,7.5531,0,0,20,0,
2.9379,3.31268,7.52106,0,0,20,0,
2.93793,3.31268,7.49207,0,0,20,0,
2.93797,3.31329,7.45697,0,0,20,0,
2.938,3.31299,7.42951,0,0,20,0,
2.93803,3.31879,7.40509,0,0,20,0,
2.93807,3.31787,7.37915,0,0,20,0,
2.9381,3.31787,7.35321,0,0,20,0,
2.93813,3.31818,7.33185,0,0,20,0,
2.93817,3.31696,7.31964,0,0,20,0,
2.9382,3.31757,7.29981,0,0,20,0,
2.93823,3.32214,7.28302,0,0,20,0,
2.93827,3.32245,7.26929,0,0,20,0,
2.9383,3.32245,7.25403,0,0,20,0,
2.93833,3.32306,7.24335,0,0,20,0,
2.93837,3.32306,7.24487,0,0,20,0,
2.9384,3.32184,7.22962,0,0,20,0,
2.93843,3.32336,7.22962,0,0,20,0,
2.93847,3.32733,7.23267,0,0,20,0,
2.9385,3.32764,7.23419,0,0,20,0,
2.93853,3.32794,7.23419,0,0,20,0,
2.93857,3.32733,7.23267,0,0,20,0,
2.9386,3.32764,7.24487,0,0,20,0,
2.93863,3.32733,7.25098,0,0,20,0,
2.93867,3.33038,7.26013,0,0,20,0,
2.9387,3.33252,7.27387,0,0,20,0,
2.93873,3.33252,7.29218,0,0,20,0,
2.93877,3.33221,7.30743,0,0,20,0,
2.9388,3.33344,7.32422,0,0,20,0,
2.93883,3.33191,7.34558,0,0,20,0,
2.93887,3.33191,7.36847,0,0,20,0,
2.9389,3.33588,7.38983,0,0,20,0,
2.93893,3.33679,7.41882,0,0,20,0,
2.93897,3.33771,7.44782,0,0,20,0,
2.939,3.33679,7.47833,0,0,20,0,
2.93903,3.33771,7.5119,0,0,20,0,
2.93907,3.33679,7.54089,0,0,20,0,
2.9391,3.33801,7.57752,0,0,20,0,
2.93913,3.34045,7.60803,0,0,20,0,
2.93917,3.34229,7.64923,0,0,20,0,
2.9392,3.34259,7.68128,0,0,20,0,
2.93923,3.34229,7.71942,0,0,20,0,
2.93927,3.34229,7.75757,0,0,20,0,
2.9393,3.34198,7.79724,0,0,20,0,
2.93933,3.34229,7.83691,0,0,20,0,
2.93937,3.34229,7.87964,0,0,20,0,
2.9394,3.34747,7.91626,0,0,20,0,
2.93943,3.34686,7.96356,0,0,20,0,
2.93947,3.34747,8.00476,0,0,20,0,
2.9395,3.34656,8.03986,0,0,20,0,
2.93953,3.34717,8.08716,0,0,20,0,
2.93957,3.34686,8.12378,0,0,20,0,
2.9396,3.34686,8.17108,0,0,20,0,
2.93963,3.35236,8.20923,0,0,20,0,
2.93967,3.35205,8.25043,0,0,20,0,
2.9397,3.35175,8.29315,0,0,20,0,
2.93973,3.35144,8.33283,0,0,20,0,
2.93977,3.35175,8.38318,0,0,20,0,
2.9398,3.35205,8.41675,0,0,20,0,
2.93983,3.35236,8.45337,0,0,20,0,
2.93987,3.35693,8.49915,0,0,20,0,
2.9399,3.35693,8.54035,0,0,20,0,
2.93993,3.35693,8.58002,0,0,20,0,
2.93997,3.35663,8.61359,0,0,20,0,
2.94,3.35663,8.65479,0,0,20,0,
2.94003,3.35724,8.69141,0,0,20,0,
2.94007,3.35663,8.7265,0,0,20,0,
2.9401,3.35724,8.76618,0,0,20,0,
2.94013,3.36182,8.8028,0,0,20,0,
2.94017,3.36182,8.83942,0,0,20,0,
2.9402,3.36151,8.87299,0,0,20,0,
2.94023,3.36151,8.90961,0,0,20,0,
2.94027,3.36182,8.94318,0,0,20,0,
2.9403,3.36182,8.96607,0,0,20,0,
2.94033,3.36212,9.00421,0,0,20,0,
2.94037,3.36212,9.0332,0,0,20,0,
2.9404,3.36639,9.06372,0,0,20,0,
2.94043,3.367,9.09729,0,0,20,0,
2.94047,3.367,9.12781,0,0,20,0,
2.9405,3.36639,9.15222,0,0,20,0,
2.94053,3.367,9.17511,0,0,20,0,
2.94057,3.367,9.2041,0,0,20,0,
2.9406,3.3667,9.23004,0,0,20,0,
2.94063,3.36731,9.2453,0,0,20,0,
2.94067,3.37219,9.27124,0,0,20,0,
2.9407,3.37219,9.30023,0,0,20,0,
2.94073,3.37158,9.31397,0,0,20,0,
2.94077,3.37128,9.33838,0,0,20,0,
2.9408,3.37128,9.35364,0,0,20,0,
2.94083,3.37219,9.37653,0,0,20,0,
2.94087,3.37158,9.38873,0,0,20,0,
2.9409,3.37158,9.40857,0,0,20,0,
2.94093,3.37677,9.42383,0,0,20,0,
2.94097,3.37646,9.43604,0,0,20,0,
2.941,3.37677,9.4574,0,0,20,0,
2.94103,3.37677,9.47113,0,0,20,0,
2.94107,3.37646,9.48486,0,0,20,0,
2.9411,3.37646,9.49555,0,0,20,0,
2.94113,3.37677,9.5108,0,0,20,0,
2.94117,3.37677,9.51996,0,0,20,0,
2.9412,3.38104,9.5398,0,0,20,0,
2.94123,3.38135,9.54895,0,0,20,0,
2.94127,3.38135,9.56116,0,0,20,0,
2.9413,3.38165,9.56268,0,0,20,0,
2.94133,3.38165,9.57794,0,0,20,0,
2.94137,3.38135,9.58557,0,0,20,0,
2.9414,3.38104,9.59625,0,0,20,0,
2.94143,3.38104,9.60693,0,0,20,0,
2.94147,3.38623,9.60693,0,0,20,0,
2.9415,3.38684,9.61914,0,0,20,0,
2.94153,3.38654,9.63135,0,0,20,0,
2.94157,3.38623,9.6344,0,0,20,0,
2.9416,3.38684,9.6344,0,0,20,0,
2.94163,3.38684,9.64508,0,0,20,0,
2.94167,3.38654,9.64508,0,0,20,0,
2.9417,3.38593,9.64508,0,0,20,0,
2.94173,3.39081,9.64813,0,0,20,0,
2.94177,3.39142,9.65881,0,0,20,0,
2.9418,3.39142,9.65881,0,0,20,0,
2.94183,3.39111,9.65729,0,0,20,0,
2.94187,3.39172,9.65424,0,0,20,0,
2.9419,3.39142,9.64661,0,0,20,0,
2.94193,3.39142,9.64508,0,0,20,0,
2.94197,3.39203,9.64661,0,0,20,0,
2.942,3.39447,9.64356,0,0,20,0,
2.94203,3.396,9.64813,0,0,20,0,
2.94207,3.39569,9.63745,0,0,20,0,
2.9421,3.3963,9.6344,0,0,20,0,
2.94213,3.3963,9.63287,0,0,20,0,
2.94217,3.3963,9.63135,0,0,20,0,
2.9422,3.396,9.61914,0,0,20,0,
2.94223,3.39661,9.61914,0,0,20,0,
2.94227,3.39569,9.62219,0,0,20,0,
2.9423,3.40149,9.61914,0,0,20,0,
2.94233,3.40088,9.60693,0,0,20,0,
2.94237,3.40118,9.61304,0,0,20,0,
2.9424,3.40118,9.60541,0,0,20,0,
2.94243,3.40118,9.60541,0,0,20,0,
2.94247,3.40118,9.59931,0,0,20,0,
2.9425,3.40118,9.59473,0,0,20,0,
2.94253,3.40118,9.59625,0,0,20,0,
2.94257,3.40607,9.5932,0,0,20,0,
2.9426,3.40607,9.59625,0,0,20,0,
2.94263,3.40637,9.59473,0,0,20,0,
2.94267,3.40637,9.59625,0,0,20,0,
2.9427,3.40607,9.59778,0,0,20,0,
2.94273,3.40576,9.59778,0,0,20,0,
2.94277,3.40637,9.5932,0,0,20,0,
2.9428,3.40637,9.59473,0,0,20,0,
2.94283,3.40973,9.58557,0,0,20,0,
2.94287,3.41125,9.58252,0,0,20,0,
2.9429,3.41064,9.58557,0,0,20,0,
2.94293,3.41095,9.58252,0,0,20,0,
2.94297,3.41095,9.58252,0,0,20,0,
2.943,3.41034,9.59473,0,0,20,0,
2.94303,3.41064,9.5932,0,0,20,0,
2.94307,3.41125,9.59931,0,0,20,0,
2.9431,3.41125,9.59473,0,0,20,0,
2.94313,3.41553,9.59625,0,0,20,0,
2.94317,3.41614,9.59778,0,0,20,0,
2.9432,3.41583,9.5932,0,0,20,0,
2.94323,3.41583,9.59473,0,0,20,0,
2.94327,3.41644,9.59625,0,0,20,0,
2.9433,3.41583,9.59473,0,0,20,0,
2.94333,3.41583,9.59931,0,0,20,0,
2.94337,3.41583,9.5932,0,0,20,0,
2.9434,3.41644,9.59778,0,0,20,0,
2.94343,3.41919,9.59473,0,0,20,0,
2.94347,3.4201,9.59625,0,0,20,0,
2.9435,3.42041,9.59473,0,0,20,0,
2.94353,3.42102,9.60693,0,0,20,0,
2.94357,3.42072,9.60846,0,0,20,0,
2.9436,3.42041,9.60999,0,0,20,0,
2.94363,3.4201,9.60846,0,0,20,0,
2.94367,3.42102,9.60999,0,0,20,0,
2.9437,3.42133,9.60693,0,0,20,0,
2.94373,3.42102,9.60541,0,0,20,0,
2.94377,3.4256,9.60541,0,0,20,0,
2.9438,3.4256,9.60846,0,0,20,0,
2.94383,3.42529,9.60541,0,0,20,0,
2.94387,3.4256,9.60846,0,0,20,0,
2.9439,3.4256,9.62067,0,0,20,0,
2.94393,3.4256,9.61762,0,0,20,0,
2.94397,3.4256,9.61914,0,0,20,0,
2.944,3.4256,9.61914,0,0,20,0,
2.94403,3.42499,9.61762,0,0,20,0,
2.94407,3.42621,9.61914,0,0,20,0,
2.9441,3.43079,9.60693,0,0,20,0,
2.94413,3.43048,9.60999,0,0,20,0,
2.94417,3.43048,9.60846,0,0,20,0,
2.9442,3.43018,9.60693,0,0,20,0,
2.94423,3.43079,9.60693,0,0,20,0,
2.94427,3.43109,9.60999,0,0,20,0,
2.9443,3.43079,9.59168,0,0,20,0,
2.94433,3.43048,9.59778,0,0,20,0,
2.94437,3.43109,9.59473,0,0,20,0,
2.9444,3.43109,9.58252,0,0,20,0,
2.94443,3.43567,9.58405,0,0,20,0,
2.94447,3.43506,9.57642,0,0,20,0,
2.9445,3.43506,9.57184,0,0,20,0,
2.94453,3.43506,9.56268,0,0,20,0,
2.94457,3.43536,9.55811,0,0,20,0,
2.9446,3.43567,9.5459,0,0,20,0,
2.94463,3.43567,9.5459,0,0,20,0,
2.94467,3.43536,9.53827,0,0,20,0,
2.9447,3.43536,9.52149,0,0,20,0,
2.94473,3.43536,9.51538,0,0,20,0,
2.94477,3.43964,9.50928,0,0,20,0,
2.9448,3.44025,9.49707,0,0,20,0,
2.94483,3.44086,9.48639,0,0,20,0,
2.94487,3.43994,9.47571,0,0,20,0,
2.9449,3.44025,9.4635,0,0,20,0,
2.94493,3.44055,9.4574,0,0,20,0,
2.94497,3.43994,9.44672,0,0,20,0,
2.945,3.44055,9.42993,0,0,20,0,
2.94503,3.44086,9.4223,0,0,20,0,
2.94507,3.44055,9.41162,0,0,20,0,
2.9451,3.44025,9.39941,0,0,20,0,
2.94513,3.4433,9.38721,0,0,20,0,
2.94517,3.44574,9.375,0,0,20,0,
2.9452,3.44543,9.36279,0,0,20,0,
2.94523,3.44543,9.34906,0,0,20,0,
2.94527,3.44574,9.33228,0,0,20,0,
2.9453,3.44513,9.31854,0,0,20,0,
2.94533,3.44513,9.30634,0,0,20,0,
2.94537,3.44452,9.29413,0,0,20,0,
2.9454,3.44513,9.2804,0,0,20,0,
2.94543,3.44543,9.26514,0,0,20,0,
2.94547,3.44482,9.25751,0,0,20,0,
2.9455,3.44513,9.2453,0,0,20,0,
2.94553,3.44879,9.23004,0,0,20,0,
2.94557,3.45032,9.21784,0,0,20,0,
2.9456,3.45032,9.20563,0,0,20,0,
2.94563,3.44971,9.1919,0,0,20,0,
2.94567,3.45001,9.18274,0,0,20,0,
2.9457,3.44971,9.16901,0,0,20,0,
2.94573,3.45001,9.15527,0,0,20,0,
2.94577,3.45001,9.14764,0,0,20,0,
2.9458,3.45001,9.13544,0,0,20,0,
2.94583,3.45001,9.12323,0,0,20,0,
2.94587,3.44971,9.11713,0,0,20,0,
2.9459,3.44971,9.10645,0,0,20,0,
2.94593,3.4491,9.09576,0,0,20,0,
2.94597,3.45398,9.08203,0,0,20,0,
2.946,3.4549,9.0683,0,0,20,0,
2.94603,3.4552,9.05914,0,0,20,0,
2.94607,3.4549,9.05457,0,0,20,0,
2.9461,3.4549,9.04541,0,0,20,0,
2.94613,3.4552,9.0332,0,0,20,0,
2.94617,3.4552,9.02405,0,0,20,0,
2.9462,3.45459,9.01947,0,0,20,0,
2.94623,3.45459,9.01032,0,0,20,0,
2.94627,3.4552,8.99658,0,0,20,0,
2.9463,3.4549,8.99506,0,0,20,0,
2.94633,3.45428,8.98285,0,0,20,0,
2.94637,3.4552,8.97675,0,0,20,0,
2.9464,3.45551,8.97217,0,0,20,0,
2.94643,3.45764,8.96149,0,0,20,0,
2.94647,3.45978,8.96301,0,0,20,0,
2.9465,3.45917,8.94928,0,0,20,0,
2.94653,3.45947,8.94928,0,0,20,0,
2.94657,3.45947,8.93707,0,0,20,0,
2.9466,3.45947,8.93402,0,0,20,0,
2.94663,3.45978,8.92181,0,0,20,0,
2.94667,3.46008,8.92334,0,0,20,0,
2.9467,3.45947,8.91266,0,0,20,0,
2.94673,3.45978,8.91419,0,0,20,0,
2.94677,3.45978,8.8974,0,0,20,0,
2.9468,3.46039,8.8974,0,0,20,0,
2.94683,3.45978,8.8913,0,0,20,0,
2.94687,3.46008,8.88519,0,0,20,0,
2.9469,3.45978,8.88214,0,0,20,0,
2.94693,3.45947,8.87604,0,0,20,0,
2.94697,3.46497,8.87299,0,0,20,0,
2.947,3.46497,8.86993,0,0,20,0,
2.94703,3.46497,8.86536,0,0,20,0,
2.94707,3.46497,8.86078,0,0,20,0,
2.9471,3.46497,8.86078,0,0,20,0,
2.94713,3.46497,8.86078,0,0,20,0,
2.94717,3.46527,8.84857,0,0,20,0,
2.9472,3.46497,8.85162,0,0,20,0,
2.94723,3.46466,8.85162,0,0,20,0,
2.94727,3.46527,8.85162,0,0,20,0,
2.9473,3.46527,8.84094,0,0,20,0,
2.94733,3.46466,8.83484,0,0,20,0,
2.94737,3.46558,8.83637,0,0,20,0,
2.9474,3.46466,8.83484,0,0,20,0,
2.94743,3.46436,8.83789,0,0,20,0,
2.94747,3.46436,8.83942,0,0,20,0,
2.9475,3.46436,8.83637,0,0,20,0,
2.94753,3.46466,8.82416,0,0,20,0,
2.94757,3.46954,8.82568,0,0,20,0,
2.9476,3.46954,8.82416,0,0,20,0,
2.94763,3.46924,8.82416,0,0,20,0,
2.94767,3.46924,8.82568,0,0,20,0,
2.9477,3.46893,8.82416,0,0,20,0,
2.94773,3.46924,8.82721,0,0,20,0,
2.94777,3.46954,8.82263,0,0,20,0,
2.9478,3.46985,8.81195,0,0,20,0,
2.94783,3.46985,8.81043,0,0,20,0,
2.94787,3.46985,8.81195,0,0,20,0,
2.9479,3.46954,8.815,0,0,20,0,
2.94793,3.46924,8.81043,0,0,20,0,
2.94797,3.46924,8.81195,0,0,20,0,
2.948,3.46985,8.81195,0,0,20,0,
2.94803,3.46985,8.81043,0,0,20,0,
2.94807,3.46924,8.81195,0,0,20,0,
2.9481,3.46985,8.81195,0,0,20,0,
2.94813,3.46924,8.79974,0,0,20,0,
2.94817,3.46985,8.79974,0,0,20,0,
2.9482,3.47015,8.79974,0,0,20,0,
2.94823,3.46985,8.80127,0,0,20,0,
2.94827,3.46924,8.79822,0,0,20,0,
2.9483,3.46954,8.79974,0,0,20,0,
2.94833,3.46924,8.80127,0,0,20,0,
2.94837,3.46954,8.80127,0,0,20,0,
2.9484,3.46985,8.79517,0,0,20,0,
2.94843,3.4726,8.79822,0,0,20,0,
2.94847,3.47473,8.80127,0,0,20,0,
2.9485,3.47443,8.80127,0,0,20,0,
2.94853,3.47412,8.80127,0,0,20,0,
2.94857,3.47443,8.79974,0,0,20,0,
2.9486,3.47412,8.80127,0,0,20,0,
2.94863,3.47473,8.79974,0,0,20,0,
2.94867,3.47382,8.79669,0,0,20,0,
2.9487,3.47443,8.80127,0,0,20,0,
2.94873,3.47473,8.79974,0,0,20,0,
2.94877,3.47443,8.80127,0,0,20,0,
2.9488,3.47504,8.79974,0,0,20,0,
2.94883,3.47473,8.80127,0,0,20,0,
2.94887,3.47443,8.79974,3.042,0,20,0,
2.9489,3.47443,8.80127,3.042,0,20,0,
2.94893,3.47382,8.79822,3.042,0,20,0,
2.94897,3.47504,8.8028,3.042,0,20,0,
2.949,3.47412,8.79974,3.042,0,20,0,
2.94903,3.47412,8.79974,3.042,0,20,0,
2.94907,3.47473,8.79822,3.042,0,20,0,
2.9491,3.47412,8.8089,3.042,0,20,0,
2.94913,3.47473,8.81043,3.042,0,20,0,
2.94917,3.47443,8.81043,3.042,0,20,0,
2.9492,3.47473,8.815,3.042,0,20,0,
2.94923,3.47443,8.80737,3.042,0,20,0,
2.94927,3.47443,8.81195,3.042,0,20,0,
2.9493,3.47443,8.815,3.042,0,20,0,
2.94933,3.47443,8.82568,3.042,0,20,0,
2.94937,3.47443,8.82111,3.042,0,20,0,
2.9494,3.47351,8.82111,3.042,0,20,0,
2.94943,3.47412,8.82568,3.042,0,20,0,
2.94947,3.47473,8.82416,3.042,0,20,0,
2.9495,3.47443,8.82721,3.042,0,20,0,
2.94953,3.47412,8.83942,3.042,0,20,0,
2.94957,3.47473,8.83637,3.042,0,20,0,
2.9496,3.47473,8.83637,3.042,0,20,0,
2.94963,3.47504,8.83484,3.042,0,20,0,
2.94967,3.47412,8.83789,3.042,0,20,0,
2.9497,3.47412,8.83637,3.042,0,20,0,
2.94973,3.47412,8.83789,3.042,0,20,0,
2.94977,3.47443,8.83637,3.042,0,20,0,
2.9498,3.47473,8.8501,3.042,0,20,0,
2.94983,3.47473,8.8501,3.042,0,20,0,
2.94987,3.47443,8.8501,3.042,0,20,0,
2.9499,3.47473,8.84857,3.042,0,20,0,
2.94993,3.47382,8.84857,3.042,0,20,0,
2.94997,3.47412,8.84552,3.042,0,20,0,
2.95,3.47473,8.84705,3.042,0,20,0,
2.95003,3.47412,8.86231,3.042,0,20,0,
2.95007,3.47443,8.86078,3.042,0,20,0,
2.9501,3.47473,8.86231,3.042,0,20,0,
2.95013,3.47473,8.86078,3.042,0,20,0,
2.95017,3.47443,8.86383,3.042,0,20,0,
2.9502,3.47443,8.87451,3.042,0,20,0,
2.95023,3.47443,8.87451,3.042,0,20,0,
2.95027,3.47443,8.87299,3.042,0,20,0,
2.9503,3.47382,8.87604,3.042,0,20,0,
2.95033,3.47443,8.87451,3.042,0,20,0,
2.95037,3.47412,8.87604,3.042,0,20,0,
2.9504,3.47443,8.88672,3.042,0,20,0,
2.95043,3.47443,8.88977,3.042,0,20,0,
2.95047,3.46954,8.88519,3.042,3.9968,20,0,
2.9505,3.46924,8.88519,3.042,3.9968,20,0,
2.95053,3.46924,8.88519,3.042,3.9968,20,0,
2.95057,3.46985,8.88214,3.042,3.9968,20,0,
2.9506,3.46924,8.88672,3.042,3.9968,20,0,
2.95063,3.46924,8.88672,3.042,3.9968,20,0,
2.95067,3.46954,8.88672,3.042,3.9968,20,0,
2.9507,3.46924,8.88519,3.042,3.9968,20,0,
2.95073,3.46954,8.88672,3.042,3.9968,20,0,
2.95077,3.46924,8.88672,3.042,3.9968,20,0,
2.9508,3.46924,8.89435,3.042,3.9968,20,0,
2.95083,3.46924,8.8974,3.042,3.9968,20,0,
2.95087,3.47015,8.89435,3.042,3.9968,20,0,
2.9509,3.46924,8.89587,3.042,3.9968,20,0,
2.95093,3.46954,8.8974,3.042,3.9968,20,0,
2.95097,3.46924,8.91113,3.042,3.9968,20,0,
2.951,3.46924,8.90961,3.042,3.9968,20,0,
2.95103,3.47015,8.91876,3.042,3.9968,20,0,
2.95107,3.46954,8.92639,3.042,3.9968,20,0,
2.9511,3.46985,8.9325,3.042,3.9968,20,0,
2.95113,3.46985,8.9325,3.042,3.9968,20,0,
2.95117,3.46985,8.94623,3.042,3.9968,20,0,
2.9512,3.46954,8.94775,3.042,3.9968,20,0,
2.95123,3.46985,8.95844,3.042,3.9968,20,0,
2.95127,3.46924,8.97217,3.042,3.9968,20,0,
2.9513,3.46405,8.98438,3.042,3.9968,20,0,
2.95133,3.46497,8.99506,3.042,3.9968,20,0,
2.95137,3.46497,9.00879,3.042,3.9968,20,0,
2.9514,3.46497,9.01032,3.042,3.9968,20,0,
2.95143,3.46497,9.02405,3.042,3.9968,20,0,
2.95147,3.46497,9.0332,3.042,3.9968,20,0,
2.9515,3.46466,9.04541,3.042,3.9968,20,0,
2.95153,3.46436,9.05609,3.042,3.9968,20,0,
2.95157,3.46466,9.07135,3.042,3.9968,20,0,
2.9516,3.46436,9.08203,3.042,3.9968,20,0,
2.95163,3.46497,9.09424,3.042,3.9968,20,0,
2.95167,3.46436,9.10492,3.042,3.9968,20,0,
2.9517,3.46466,9.11865,3.042,3.9968,20,0,
2.95173,3.46497,9.13391,3.042,3.9968,20,0,
2.95177,3.46497,9.14307,3.042,3.9968,20,0,
2.9518,3.46405,9.1568,3.042,3.9968,20,0,
2.95183,3.46466,9.16748,3.042,3.9968,20,0,
2.95187,3.46405,9.17969,3.042,3.9968,20,0,
2.9519,3.46039,9.18884,3.042,3.9968,20,0,
2.95193,3.46008,9.19342,3.042,3.9968,20,0,
2.95197,3.46008,9.2041,3.042,3.9968,20,0,
2.952,3.46008,9.21784,3.042,3.9968,20,0,
2.95203,3.46008,9.21631,3.042,3.9968,20,0,
2.95207,3.45978,9.22852,3.042,3.9968,20,0,
2.9521,3.45978,9.24072,3.042,3.9968,20,0,
2.95213,3.45978,9.24072,3.042,3.9968,20,0,
2.95217,3.45947,9.25598,3.042,3.9968,20,0,
2.9522,3.45978,9.25293,3.042,3.9968,20,0,
2.95223,3.45917,9.26666,3.042,3.9968,20,0,
2.95227,3.45978,9.26666,3.042,3.9968,20,0,
2.9523,3.45917,9.27887,3.042,3.9968,20,0,
2.95233,3.45917,9.27582,3.042,3.9968,20,0,
2.95237,3.45947,9.27887,3.042,3.9968,20,0,
2.9524,3.45978,9.2926,3.042,3.9968,20,0,
2.95243,3.4549,9.2926,3.042,3.9968,20,0,
2.95247,3.45459,9.30176,3.042,3.9968,20,0,
2.9525,3.45459,9.30328,3.042,3.9968,20,0,
2.95253,3.4552,9.30481,3.042,3.9968,20,0,
2.95257,3.45459,9.31397,3.042,3.9968,20,0,
2.9526,3.45459,9.31702,3.042,3.9968,20,0,
2.95263,3.4552,9.32465,3.042,3.9968,20,0,
2.95267,3.4552,9.32617,3.042,3.9968,20,0,
2.9527,3.4552,9.33685,3.042,3.9968,20,0,
2.95273,3.45459,9.34143,3.042,3.9968,20,0,
2.95277,3.45459,9.34906,3.042,3.9968,20,0,
2.9528,3.4549,9.35211,3.042,3.9968,20,0,
2.95283,3.4552,9.35974,3.042,3.9968,20,0,
2.95287,3.45459,9.36279,3.042,3.9968,20,0,
2.9529,3.45184,9.375,3.042,3.9968,20,0,
2.95293,3.45001,9.37653,3.042,3.9968,20,0,
2.95297,3.44971,9.39179,3.042,3.9968,20,0,
2.953,3.45001,9.38721,3.042,3.9968,20,0,
2.95303,3.4494,9.39789,3.042,3.9968,20,0,
2.95307,3.44971,9.41467,3.042,3.9968,20,0,
2.9531,3.45062,9.41467,3.042,3.9968,20,0,
2.95313,3.45093,9.42688,3.042,3.9968,20,0,
2.95317,3.4494,9.43909,3.042,3.9968,20,0,
2.9532,3.4494,9.43909,3.042,3.9968,20,0,
2.95323,3.4494,9.44977,3.042,3.9968,20,0,
2.95327,3.45032,9.45892,3.042,3.9968,20,0,
2.9533,3.4494,9.4635,3.042,3.9968,20,0,
2.95333,3.45032,9.47418,3.042,3.9968,20,0,
2.95337,3.45001,9.48639,3.042,3.9968,20,0,
2.9534,3.44482,9.49249,3.042,3.9968,20,0,
2.95343,3.44513,9.4986,3.042,3.9968,20,0,
2.95347,3.44452,9.50928,3.042,3.9968,20,0,
2.9535,3.44574,9.51843,3.042,3.9968,20,0,
2.95353,3.44513,9.52911,3.042,3.9968,20,0,
2.95357,3.44543,9.53522,3.042,3.9968,20,0,
2.9536,3.44574,9.55048,3.042,3.9968,20,0,
2.95363,3.44452,9.55658,3.042,3.9968,20,0,
2.95367,3.44513,9.56574,3.042,3.9968,20,0,
2.9537,3.44452,9.57184,3.042,3.9968,20,0,
2.95373,3.44543,9.58252,3.042,3.9968,20,0,
2.95377,3.44482,9.59168,3.042,3.9968,20,0,
2.9538,3.44543,9.59473,3.042,3.9968,20,0,
2.95383,3.44543,9.60541,3.042,3.9968,20,0,
2.95387,3.44482,9.61762,3.042,3.9968,20,0,
2.9539,3.44086,9.62067,3.042,3.9968,20,0,
2.95393,3.44025,9.63135,3.042,3.9968,20,0,
2.95397,3.44086,9.64203,3.042,3.9968,20,0,
2.954,3.44025,9.64508,3.042,3.9968,20,0,
2.95403,3.44055,9.66034,3.042,3.9968,20,0,
2.95407,3.44055,9.65881,3.042,3.9968,20,0,
2.9541,3.43994,9.67407,3.042,3.9968,20,0,
2.95413,3.44055,9.68018,3.042,3.9968,20,0,
2.95417,3.44025,9.68323,3.042,3.9968,20,0,
2.9542,3.43994,9.69391,3.042,3.9968,20,0,
2.95423,3.44025,9.69544,3.042,3.9968,20,0,
2.95427,3.44086,9.70612,3.042,3.9968,20,0,
2.9543,3.44116,9.70917,3.042,3.9968,20,0,
2.95433,3.44025,9.71985,3.042,3.9968,20,0,
2.95437,3.44025,9.7168,3.042,3.9968,20,0,
2.9544,3.44025,9.73053,3.042,3.9968,20,0,
2.95443,3.44025,9.73206,3.042,3.9968,20,0,
2.95447,3.4375,9.73053,3.042,3.9968,20,0,
2.9545,3.43536,9.74121,3.042,3.9968,20,0,
2.95453,3.43536,9.74121,3.042,3.9968,20,0,
2.95457,3.43475,9.75342,3.042,3.9968,20,0,
2.9546,3.43567,9.75494,3.042,3.9968,20,0,
2.95463,3.43536,9.75647,3.042,3.9968,20,0,
2.95467,3.43567,9.76715,3.042,3.9968,20,0,
2.9547,3.43475,9.76563,3.042,3.9968,20,0,
2.95473,3.43628,9.76868,3.042,3.9968,20,0,
2.95477,3.43506,9.77783,3.042,3.9968,20,0,
2.9548,3.43536,9.77783,3.042,3.9968,20,0,
2.95483,3.43475,9.77936,3.042,3.9968,20,0,
2.95487,3.43536,9.78546,3.042,3.9968,20,0,
2.9549,3.43506,9.79004,3.042,3.9968,20,0,
2.95493,3.43536,9.79614,3.042,3.9968,20,0,
2.95497,3.43567,9.79157,3.042,3.9968,20,0,
2.955,3.43536,9.80682,3.042,3.9968,20,0,
2.95503,3.43536,9.80377,3.042,3.9968,20,0,
2.95507,3.43018,9.80835,3.042,3.9968,20,0,
2.9551,3.43079,9.8053,3.042,3.9968,20,0,
2.95513,3.43048,9.80682,3.042,3.9968,20,0,
2.95517,3.43079,9.81903,3.042,3.9968,20,0,
2.9552,3.43079,9.82056,3.042,3.9968,20,0,
2.95523,3.43079,9.81598,3.042,3.9968,20,0,
2.95527,3.43079,9.81598,3.042,3.9968,20,0,
2.9553,3.43079,9.81903,3.042,3.9968,20,0,
2.95533,3.43048,9.82514,3.042,3.9968,20,0,
2.95537,3.43018,9.82819,3.042,3.9968,20,0,
2.9554,3.43079,9.82819,3.042,3.9968,20,0,
2.95543,3.43048,9.82819,3.042,3.9968,20,0,
2.95547,3.43048,9.82819,3.042,3.9968,20,0,
2.9555,3.42987,9.83124,3.042,3.9968,20,0,
2.95553,3.43079,9.83124,3.042,3.9968,20,0,
2.95557,3.43109,9.82971,3.042,3.9968,20,0,
2.9556,3.43048,9.83887,3.042,3.9968,20,0,
2.95563,3.43079,9.84192,3.042,3.9968,20,0,
2.95567,3.43109,9.84039,3.042,3.9968,20,0,
2.9557,3.42987,9.83734,3.042,3.9968,20,0,
2.95573,3.4259,9.83734,3.042,3.9968,20,0,
2.95577,3.42529,9.84039,3.042,3.9968,20,0,
2.9558,3.42621,9.84039,3.042,3.9968,20,0,
2.95583,3.4259,9.83734,3.042,3.9968,20,0,
2.95587,3.4259,9.84192,3.042,3.9968,20,0,
2.9559,3.42499,9.84192,3.042,3.9968,20,0,
2.95593,3.4256,9.84039,3.042,3.9968,20,0,
2.95597,3.42621,9.84039,3.042,3.9968,20,0,
2.956,3.42529,9.83887,3.042,3.9968,20,0,
2.95603,3.4256,9.84192,3.042,3.9968,20,0,
2.95607,3.4259,9.83734,3.042,3.9968,20,0,
2.9561,3.42529,9.84039,3.042,3.9968,20,0,
2.95613,3.4256,9.83887,3.042,3.9968,20,0,
2.95617,3.4256,9.84039,3.042,3.9968,20,0,
2.9562,3.4256,9.84192,3.042,3.9968,20,0,
2.95623,3.42529,9.83887,3.042,3.9968,20,0,
2.95627,3.4259,9.82819,3.042,3.9968,20,0,
2.9563,3.4259,9.82819,3.042,3.9968,20,0,
2.95633,3.4259,9.82819,3.042,3.9968,20,0,
2.95637,3.4259,9.82819,3.042,3.9968,20,0,
2.9564,3.42621,9.82819,3.042,3.9968,20,0,
2.95643,3.42438,9.81751,3.042,3.9968,20,0,
2.95647,3.4259,9.81445,3.042,3.9968,20,0,
2.9565,3.42529,9.81751,3.042,3.9968,20,0,
2.95653,3.42072,9.81903,3.042,3.9968,20,0,
2.95657,3.42072,9.8053,3.042,3.9968,20,0,
2.9566,3.42072,9.80377,3.042,3.9968,20,0,
2.95663,3.42072,9.7992,3.042,3.9968,20,0,
2.95667,3.42102,9.79309,3.042,3.9968,20,0,
2.9567,3.42072,9.79309,3.042,3.9968,20,0,
2.95673,3.42102,9.77936,3.042,3.9968,20,0,
2.95677,3.42041,9.77631,3.042,3.9968,20,0,
2.9568,3.42041,9.77783,3.042,3.9968,20,0,
2.95683,3.42102,9.76715,3.042,3.9968,20,0,
2.95687,3.42102,9.76563,3.042,3.9968,20,0,
2.9569,3.42072,9.75494,3.042,3.9968,20,0,
