6400-SECPT.acq
2 msec/sample
6 channels
RSP, X, RSPEC-R
Volts
EDA, Y, PPGED-R
microsiemens
ECG R-R
Seconds
Respiration Rate
BPM
C7 - EDR
Peaks
C14 - Control
Volts
min,CH1,CH14,CH40,CH42,CH47,CH54,
,90518,90518,90518,90518,90518,90518,
182.002,3.64624,13.8031,0,20,1086,5,
182.002,3.64624,13.8046,0,20,1086,5,
182.002,3.64563,13.8031,0,20,1086,5,
182.002,3.64594,13.8,0,20,1086,5,
182.002,3.64624,13.8031,0,20,1086,5,
182.002,3.64594,13.8062,0,20,1086,5,
182.002,3.6499,13.8046,0,20,1086,5,
182.002,3.65112,13.8062,0,20,1086,5,
182.002,3.65112,13.8062,0,20,1086,5,
182.002,3.65173,13.8031,0,20,1086,5,
182.002,3.65173,13.8031,0,20,1086,5,
182.002,3.65143,13.8016,0,20,1086,5,
182.002,3.65143,13.8016,0,20,1086,5,
182.002,3.65112,13.8016,0,20,1086,5,
182.002,3.65082,13.8016,0,20,1086,5,
182.002,3.65112,13.8046,0,20,1086,5,
182.002,3.65143,13.8016,0,20,1086,5,
182.002,3.65082,13.8031,0,20,1086,5,
182.002,3.65143,13.8046,2.874,20,1086,5,
182.002,3.65143,13.8062,2.874,20,1086,5,
182.002,3.65112,13.8031,2.874,20,1086,5,
182.002,3.65051,13.8016,2.874,20,1086,5,
182.002,3.65112,13.8077,2.874,20,1086,5,
182.002,3.65601,13.8092,2.874,20,1086,5,
182.002,3.65662,13.8031,2.874,20,1086,5,
182.002,3.65631,13.8046,2.874,20,1086,5,
182.002,3.6557,13.8031,2.874,20,1086,5,
182.003,3.65631,13.8031,2.874,20,1086,5,
182.003,3.65601,13.8016,2.874,20,1086,5,
182.003,3.65601,13.8046,2.874,20,1086,5,
182.003,3.65601,13.8016,2.874,20,1086,5,
182.003,3.65601,13.8031,2.874,20,1086,5,
182.003,3.6557,13.8016,2.874,20,1086,5,
182.003,3.65631,13.8046,2.874,20,1086,5,
182.003,3.6554,13.8016,2.874,20,1086,5,
182.003,3.65662,13.8031,2.874,20,1086,5,
182.003,3.65631,13.8062,2.874,20,1086,5,
182.003,3.65601,13.8046,2.874,20,1086,5,
182.003,3.65631,13.8031,2.874,20,1086,5,
182.003,3.65662,13.8046,2.874,20,1086,5,
182.003,3.65662,13.8031,2.874,20,1086,5,
182.003,3.65662,13.8031,2.874,20,1086,5,
182.003,3.65723,13.7909,2.874,20,1086,5,
182.003,3.65662,13.7924,2.874,20,1086,5,
182.003,3.65601,13.7939,2.874,20,1086,5,
182.003,3.65662,13.7924,2.874,20,1086,5,
182.003,3.65601,13.7909,2.874,20,1086,5,
182.003,3.65601,13.7909,2.874,20,1086,5,
182.003,3.65631,13.7909,2.874,20,1086,5,
182.003,3.6554,13.7924,2.874,20,1086,5,
182.003,3.65692,13.7909,2.874,20,1086,5,
182.003,3.65631,13.7939,2.874,20,1086,5,
182.003,3.6557,13.7909,2.874,20,1086,5,
182.003,3.65631,13.7909,2.874,20,1086,5,
182.003,3.65601,13.7924,2.874,20,1086,5,
182.003,3.65692,13.7924,2.874,20,1086,5,
182.004,3.65601,13.7939,2.874,20,1086,5,
182.004,3.65631,13.7924,2.874,20,1086,5,
182.004,3.65265,13.7909,2.874,20,1086,5,
182.004,3.65173,13.7894,2.874,20,1086,5,
182.004,3.65143,13.7909,2.874,20,1086,5,
182.004,3.65204,13.7924,2.874,20,1086,5,
182.004,3.65082,13.7924,2.874,20,1086,5,
182.004,3.65112,13.7939,2.874,20,1086,5,
182.004,3.65112,13.7894,2.874,20,1086,5,
182.004,3.65082,13.7939,2.874,20,1086,5,
182.004,3.65143,13.7955,2.874,20,1086,5,
182.004,3.65112,13.7939,2.874,20,1086,5,
182.004,3.65143,13.7878,2.874,20,1086,5,
182.004,3.65173,13.7924,2.874,20,1086,5,
182.004,3.65112,13.7894,2.874,20,1086,5,
182.004,3.65143,13.7894,2.874,20,1086,5,
182.004,3.65051,13.7939,2.874,20,1086,5,
182.004,3.64685,13.7924,2.874,20,1086,5,
182.004,3.64655,13.7924,2.874,20,1086,5,
182.004,3.64655,13.7939,2.874,20,1086,5,
182.004,3.64685,13.7894,2.874,20,1086,5,
182.004,3.64624,13.7909,2.874,20,1086,5,
182.004,3.64655,13.7924,2.874,20,1086,5,
182.004,3.64624,13.7924,2.874,20,1086,5,
182.004,3.64594,13.7894,2.874,20,1086,5,
182.004,3.64563,13.7924,2.874,20,1086,5,
182.004,3.64319,13.7909,2.874,20,1086,5,
182.004,3.64136,13.7909,2.874,20,1086,5,
182.004,3.64258,13.7924,2.874,20,1086,5,
182.004,3.64166,13.7924,2.874,20,1086,5,
182.005,3.64136,13.7924,2.874,20,1086,5,
182.005,3.64258,13.7909,2.874,20,1086,5,
182.005,3.64136,13.7909,2.874,20,1086,5,
182.005,3.64166,13.7909,2.874,20,1086,5,
182.005,3.63647,13.7909,2.874,20,1086,5,
182.005,3.63678,13.7955,2.874,20,1086,5,
182.005,3.63708,13.7909,2.874,20,1086,5,
182.005,3.63708,13.7939,2.874,20,1086,5,
182.005,3.63647,13.7939,2.874,20,1086,5,
182.005,3.63678,13.7909,2.874,20,1086,5,
182.005,3.63342,13.7924,2.874,20,1086,5,
182.005,3.63129,13.7939,2.874,20,1086,5,
182.005,3.63129,13.7939,2.874,20,1086,5,
182.005,3.63159,13.7939,2.874,20,1086,5,
182.005,3.63129,13.7939,2.874,20,1086,5,
182.005,3.63159,13.7955,2.874,20,1086,5,
182.005,3.62701,13.7909,2.874,20,1086,5,
182.005,3.62701,13.7939,2.874,20,1086,5,
182.005,3.6264,13.7924,2.874,20,1086,5,
182.005,3.62671,13.7878,2.874,20,1086,5,
182.005,3.62701,13.7939,2.874,20,1086,5,
182.005,3.62183,13.7939,2.874,20,1086,5,
182.005,3.62183,13.7939,2.874,20,1086,5,
182.005,3.62213,13.7894,2.874,20,1086,5,
182.005,3.62183,13.7939,2.874,20,1086,5,
182.005,3.61847,13.7924,2.874,20,1086,5,
182.005,3.61725,13.7939,2.874,20,1086,5,
182.005,3.61694,13.7924,2.874,20,1086,5,
182.005,3.61755,13.7924,2.874,20,1086,5,
182.005,3.61664,13.7924,2.874,20,1086,5,
182.006,3.61206,13.7924,2.874,20,1086,5,
182.006,3.61145,13.7909,2.874,20,1086,5,
182.006,3.61206,13.7939,2.874,20,1086,5,
182.006,3.61145,13.7894,2.874,20,1086,5,
182.006,3.60687,13.7955,2.874,20,1086,5,
182.006,3.60687,13.7909,2.874,20,1086,5,
182.006,3.60748,13.7939,2.874,20,1086,5,
182.006,3.60382,13.7955,2.874,20,1086,5,
182.006,3.60199,13.7924,2.874,20,1086,5,
182.006,3.60229,13.7894,2.874,20,1086,5,
182.006,3.60168,13.7756,2.874,20,1086,5,
182.006,3.59802,13.7787,2.874,20,1086,5,
182.006,3.59741,13.7772,2.874,20,1086,5,
182.006,3.59711,13.7772,2.874,20,1086,5,
182.006,3.59436,13.7833,2.874,20,1086,5,
182.006,3.59253,13.7772,2.874,20,1086,5,
182.006,3.59253,13.7833,2.874,20,1086,5,
182.006,3.59161,13.7787,2.874,20,1086,5,
182.006,3.58765,13.7817,2.874,20,1086,5,
182.006,3.58734,13.7833,2.874,20,1086,5,
182.006,3.58704,13.7772,2.874,20,1086,5,
182.006,3.58276,13.7802,2.874,20,1086,5,
182.006,3.58246,13.7833,2.874,20,1086,5,
182.006,3.58185,13.7802,2.874,20,1086,5,
182.006,3.57849,13.7802,2.874,20,1086,5,
182.006,3.57819,13.7817,2.874,20,1086,5,
182.006,3.57452,13.7802,2.874,20,1086,5,
182.006,3.57269,13.7756,2.874,20,1086,5,
182.006,3.57269,13.7817,2.874,20,1086,5,
182.006,3.56995,13.7787,2.874,20,1086,5,
182.006,3.56781,13.7787,2.874,20,1086,5,
182.007,3.56842,13.7787,2.874,20,1086,5,
182.007,3.56354,13.7772,2.874,20,1086,5,
182.007,3.56293,13.7772,2.874,20,1086,5,
182.007,3.56262,13.7802,2.874,20,1086,5,
182.007,3.55743,13.7787,2.874,20,1086,5,
182.007,3.55896,13.7787,2.874,20,1086,5,
182.007,3.55377,13.7787,2.874,20,1086,5,
182.007,3.55377,13.7756,2.874,20,1086,5,
182.007,3.5498,13.7802,2.874,20,1086,5,
182.007,3.54828,13.7787,2.874,20,1086,5,
182.007,3.54858,13.7802,2.874,20,1086,5,
182.007,3.5437,13.7817,2.874,20,1086,5,
182.007,3.5434,13.7787,2.874,20,1086,5,
182.007,3.53882,13.7833,2.874,20,1086,5,
182.007,3.53882,13.7787,2.874,20,1086,5,
182.007,3.53546,13.7817,2.874,20,1086,5,
182.007,3.53363,13.7817,2.874,20,1086,5,
182.007,3.53271,13.7772,2.874,20,1086,5,
182.007,3.52875,13.7848,2.874,20,1086,5,
182.007,3.52783,13.7787,2.874,20,1086,5,
182.007,3.52448,13.7802,2.874,20,1086,5,
182.007,3.52356,13.7787,2.874,20,1086,5,
182.007,3.51837,13.7772,2.874,20,1086,5,
182.007,3.51929,13.7817,2.874,20,1086,5,
182.007,3.5141,13.7772,2.874,20,1086,5,
182.007,3.5141,13.7787,2.874,20,1086,5,
182.007,3.50922,13.7772,2.874,20,1086,5,
182.007,3.50983,13.7802,2.874,20,1086,5,
182.007,3.50433,13.7772,2.874,20,1086,5,
182.007,3.50433,13.7756,2.874,20,1086,5,
182.008,3.49976,13.7772,2.874,20,1086,5,
182.008,3.49915,13.7802,2.874,20,1086,5,
182.008,3.49426,13.7802,2.874,20,1086,5,
182.008,3.49365,13.7802,2.874,20,1086,5,
182.008,3.48907,13.7787,2.874,20,1086,5,
182.008,3.48907,13.7802,2.874,20,1086,5,
182.008,3.4848,13.7787,2.874,20,1086,5,
182.008,3.48389,13.7787,2.874,20,1086,5,
182.008,3.47931,13.7787,2.874,20,1086,5,
182.008,3.47565,13.7817,2.874,20,1086,5,
182.008,3.47473,13.7772,2.874,20,1086,5,
182.008,3.46985,13.7772,2.874,20,1086,5,
182.008,3.46985,13.7817,2.874,20,1086,5,
182.008,3.46558,13.7787,2.874,20,1086,5,
182.008,3.46466,13.7802,2.874,20,1086,5,
182.008,3.46008,13.7802,2.874,20,1086,5,
182.008,3.45886,13.7787,2.874,20,1086,5,
182.008,3.4549,13.7802,2.874,20,1086,5,
182.008,3.45459,13.7787,2.874,20,1086,5,
182.008,3.45001,13.7772,2.874,20,1086,5,
182.008,3.44666,13.7787,2.874,20,1086,5,
182.008,3.44513,13.7817,2.874,20,1086,5,
182.008,3.44086,13.7756,2.874,20,1086,5,
182.008,3.44025,13.7802,2.874,20,1086,5,
182.008,3.43536,13.7787,2.874,20,1086,5,
182.008,3.43506,13.7756,2.874,20,1086,5,
182.008,3.43109,13.7817,2.874,20,1086,5,
182.008,3.42773,13.7817,2.874,20,1086,5,
182.008,3.4256,13.7802,2.874,20,1086,5,
182.008,3.42194,13.7817,2.874,20,1086,5,
182.009,3.42102,13.7787,2.874,20,1086,5,
182.009,3.41644,13.7772,2.874,20,1086,5,
182.009,3.41644,13.7817,2.874,20,1086,5,
182.009,3.41064,13.7817,2.874,20,1086,5,
182.009,3.41034,13.7772,2.874,20,1086,5,
182.009,3.40637,13.7817,2.874,20,1086,5,
182.009,3.40332,13.7787,2.874,20,1086,5,
182.009,3.40149,13.7817,2.874,20,1086,5,
182.009,3.39661,13.7772,2.874,20,1086,5,
182.009,3.39661,13.7802,2.874,20,1086,5,
182.009,3.39172,13.7833,2.874,20,1086,5,
182.009,3.39172,13.7787,2.874,20,1086,5,
182.009,3.38684,13.7772,2.874,20,1086,5,
182.009,3.38593,13.7802,2.874,20,1086,5,
182.009,3.38135,13.7802,2.874,20,1086,5,
182.009,3.37891,13.7802,2.874,20,1086,5,
182.009,3.37738,13.7802,2.874,20,1086,5,
182.009,3.37219,13.7802,2.874,20,1086,5,
182.009,3.3728,13.7772,2.874,20,1086,5,
182.009,3.36761,13.7802,2.874,20,1086,5,
182.009,3.367,13.7772,2.874,20,1086,5,
182.009,3.36273,13.7787,2.874,20,1086,5,
182.009,3.36121,13.7802,2.874,20,1086,5,
182.009,3.35724,13.7772,2.874,20,1086,5,
182.009,3.35632,13.7787,2.874,20,1086,5,
182.009,3.35236,13.7787,2.874,20,1086,5,
182.009,3.34869,13.7817,2.874,20,1086,5,
182.009,3.34717,13.7787,2.874,20,1086,5,
182.009,3.3429,13.7787,2.874,20,1086,5,
182.01,3.34229,13.7756,2.874,20,1086,5,
182.01,3.33801,13.7817,2.874,20,1086,5,
182.01,3.33771,13.7833,2.874,20,1086,5,
182.01,3.33313,13.7802,2.874,20,1086,5,
182.01,3.33252,13.7787,2.874,20,1086,5,
182.01,3.32794,13.7817,2.874,20,1086,5,
182.01,3.32733,13.7833,2.874,20,1086,5,
182.01,3.32245,13.7787,2.874,20,1086,5,
182.01,3.32275,13.7772,2.874,20,1086,5,
182.01,3.31787,13.7924,2.874,20,1086,5,
182.01,3.31757,13.7924,2.874,20,1086,5,
182.01,3.31329,13.7955,2.874,20,1086,5,
182.01,3.31299,13.7924,2.874,20,1086,5,
182.01,3.3078,13.7924,2.874,20,1086,5,
182.01,3.30872,13.7924,2.874,20,1086,5,
182.01,3.30322,13.7955,2.874,20,1086,5,
182.01,3.30414,13.7955,2.874,20,1086,5,
182.01,3.29895,13.7955,2.874,20,1086,5,
182.01,3.29895,13.7909,2.874,20,1086,5,
182.01,3.29346,13.7939,2.874,20,1086,5,
182.01,3.29315,13.7894,2.874,20,1086,5,
182.01,3.28857,13.7955,2.874,20,1086,5,
182.01,3.28857,13.7909,2.874,20,1086,5,
182.01,3.284,13.7924,2.874,20,1086,5,
182.01,3.284,13.7909,2.874,20,1086,5,
182.01,3.27942,13.7894,2.874,20,1086,5,
182.01,3.27881,13.7909,2.874,20,1086,5,
182.01,3.27576,13.7909,2.874,20,1086,5,
182.01,3.27423,13.7924,2.874,20,1086,5,
182.01,3.27057,13.7924,2.874,20,1086,5,
182.011,3.26904,13.7924,2.874,20,1086,5,
182.011,3.26843,13.7939,2.874,20,1086,5,
182.011,3.26508,13.7939,2.874,20,1086,5,
182.011,3.26447,13.7939,2.874,20,1086,5,
182.011,3.25958,13.7924,2.874,20,1086,5,
182.011,3.25958,13.7939,2.874,20,1086,5,
182.011,3.25531,13.7924,2.874,20,1086,5,
182.011,3.25439,13.7939,2.874,20,1086,5,
182.011,3.25378,13.7924,2.874,20,1086,5,
182.011,3.24951,13.7939,2.874,20,1086,5,
182.011,3.24951,13.7924,2.874,20,1086,5,
182.011,3.24585,13.7924,2.874,20,1086,5,
182.011,3.24493,13.7909,2.874,20,1086,5,
182.011,3.24127,13.7939,2.874,20,1086,5,
182.011,3.24036,13.7939,2.874,20,1086,5,
182.011,3.24036,13.7924,2.874,20,1086,5,
182.011,3.23486,13.7924,2.874,20,1086,5,
182.011,3.23517,13.7924,2.874,20,1086,5,
182.011,3.2312,13.7924,2.874,20,1086,5,
182.011,3.22998,13.7909,2.874,20,1086,5,
182.011,3.22998,13.7924,2.874,20,1086,5,
182.011,3.2251,13.7939,2.874,20,1086,5,
182.011,3.2251,13.7909,2.874,20,1086,5,
182.011,3.22479,13.7924,2.874,20,1086,5,
182.011,3.22021,13.7878,2.874,20,1086,5,
182.011,3.21991,13.7909,2.874,20,1086,5,
182.011,3.21899,13.7939,2.874,20,1086,5,
182.011,3.21533,13.7939,2.874,20,1086,5,
182.011,3.21533,13.7939,2.874,20,1086,5,
182.011,3.21228,13.7894,2.874,20,1086,5,
182.012,3.21045,13.7939,2.874,20,1086,5,
182.012,3.21045,13.7939,2.874,20,1086,5,
182.012,3.20618,13.7924,2.874,20,1086,5,
182.012,3.20587,13.7924,2.874,20,1086,5,
182.012,3.20557,13.7924,2.874,20,1086,5,
182.012,3.2016,13.7924,2.874,20,1086,5,
182.012,3.20068,13.7924,2.874,20,1086,5,
182.012,3.20068,13.7909,2.874,20,1086,5,
182.012,3.19702,13.7909,2.874,20,1086,5,
182.012,3.1955,13.7909,2.874,20,1086,5,
182.012,3.19519,13.7939,2.874,20,1086,5,
182.012,3.19611,13.7924,2.874,20,1086,5,
182.012,3.19092,13.7909,2.874,20,1086,5,
182.012,3.19061,13.7924,2.874,20,1086,5,
182.012,3.19061,13.7924,2.874,20,1086,5,
182.012,3.18665,13.7939,2.874,20,1086,5,
182.012,3.18573,13.7909,2.874,20,1086,5,
182.012,3.18573,13.7939,2.874,20,1086,5,
182.012,3.18542,13.7909,2.874,20,1086,5,
182.012,3.18115,13.7924,2.874,20,1086,5,
182.012,3.18024,13.7924,2.874,20,1086,5,
182.012,3.18146,13.7955,2.874,20,1086,5,
182.012,3.17993,13.7939,2.874,20,1086,5,
182.012,3.17627,13.7924,2.874,20,1086,5,
182.012,3.17657,13.7909,2.874,20,1086,5,
182.012,3.17596,13.7924,2.874,20,1086,5,
182.012,3.17505,13.7955,2.874,20,1086,5,
182.012,3.17108,13.7878,2.874,20,1086,5,
182.012,3.17078,13.7909,2.874,20,1086,5,
182.012,3.17139,13.7924,2.874,20,1086,5,
182.012,3.17017,13.7924,2.874,20,1086,5,
182.013,3.16589,13.7924,2.874,20,1086,5,
182.013,3.1665,13.7939,2.874,20,1086,5,
182.013,3.1662,13.7939,2.874,20,1086,5,
182.013,3.16559,13.7939,2.874,20,1086,5,
182.013,3.16101,13.7939,2.874,20,1086,5,
182.013,3.16162,13.7924,2.874,20,1086,5,
182.013,3.16132,13.7909,2.874,20,1086,5,
182.013,3.16132,13.7909,2.874,20,1086,5,
182.013,3.15765,13.7955,2.874,20,1086,5,
182.013,3.15643,13.7939,2.874,20,1086,5,
182.013,3.15704,13.7924,2.874,20,1086,5,
182.013,3.15704,13.7924,2.874,20,1086,5,
182.013,3.15704,13.7924,2.874,20,1086,5,
182.013,3.15155,13.7924,2.874,20,1086,5,
182.013,3.15186,13.7955,2.874,20,1086,5,
182.013,3.15247,13.7924,2.874,20,1086,5,
182.013,3.15277,13.7924,2.874,20,1086,5,
182.013,3.15247,13.7924,2.874,20,1086,5,
182.013,3.14697,13.7924,2.874,20,1086,5,
182.013,3.14697,13.7924,2.874,20,1086,5,
182.013,3.14667,13.8016,2.874,20,1086,5,
182.013,3.14667,13.8031,2.874,20,1086,5,
182.013,3.14758,13.8062,2.874,20,1086,5,
182.013,3.14209,13.8031,2.874,20,1086,5,
182.013,3.1424,13.8046,2.874,20,1086,5,
182.013,3.14178,13.8046,2.874,20,1086,5,
182.013,3.14148,13.8046,2.874,20,1086,5,
182.013,3.14117,13.8077,2.874,20,1086,5,
182.013,3.13721,13.8031,2.874,20,1086,5,
182.013,3.1369,13.8031,2.874,20,1086,5,
182.014,3.13751,13.8031,2.874,20,1086,5,
182.014,3.1366,13.8046,2.874,20,1086,5,
182.014,3.13721,13.8046,2.874,20,1086,5,
182.014,3.1366,13.8031,2.874,20,1086,5,
182.014,3.13202,13.8062,2.874,20,1086,5,
182.014,3.13171,13.8046,2.874,20,1086,5,
182.014,3.1311,13.8077,2.874,20,1086,5,
182.014,3.13202,13.8077,2.874,20,1086,5,
182.014,3.13202,13.8016,2.874,20,1086,5,
182.014,3.13171,13.8092,2.874,20,1086,5,
182.014,3.12622,13.8046,2.874,20,1086,5,
182.014,3.12714,13.8046,2.874,20,1086,5,
182.014,3.12714,13.8031,2.874,20,1086,5,
182.014,3.12744,13.8031,2.874,20,1086,5,
182.014,3.12775,13.8062,2.874,20,1086,5,
182.014,3.12683,13.8062,2.874,20,1086,5,
182.014,3.12378,13.8046,2.874,20,1086,5,
182.014,3.12256,13.8031,2.874,20,1086,5,
182.014,3.12164,13.8046,2.874,20,1086,5,
182.014,3.12225,13.8016,2.874,20,1086,5,
182.014,3.12195,13.8062,2.874,20,1086,5,
182.014,3.12225,13.8062,2.874,20,1086,5,
182.014,3.12225,13.8016,2.874,20,1086,5,
182.014,3.12195,13.8062,2.874,20,1086,5,
182.014,3.11768,13.8046,2.874,20,1086,5,
182.014,3.11768,13.8031,2.874,20,1086,5,
182.014,3.11737,13.8031,2.874,20,1086,5,
182.014,3.11707,13.8046,2.874,20,1086,5,
182.014,3.11737,13.8062,2.874,20,1086,5,
182.014,3.11707,13.8031,2.874,20,1086,5,
182.015,3.11676,13.8062,2.874,20,1086,5,
182.015,3.11707,13.8031,2.874,20,1086,5,
182.015,3.11249,13.8062,2.874,20,1086,5,
182.015,3.11249,13.8031,2.874,20,1086,5,
182.015,3.11188,13.8031,2.874,20,1086,5,
182.015,3.11279,13.8031,2.874,20,1086,5,
182.015,3.11249,13.8062,2.874,20,1086,5,
182.015,3.11188,13.8046,2.874,20,1086,5,
182.015,3.11218,13.8062,2.874,20,1086,5,
182.015,3.11218,13.8046,2.874,20,1086,5,
182.015,3.11249,13.8031,2.874,20,1086,5,
182.015,3.1073,13.8092,2.874,20,1086,5,
182.015,3.1073,13.8062,2.874,20,1086,5,
182.015,3.1076,13.8062,2.874,20,1086,5,
182.015,3.1076,13.8046,2.874,20,1086,5,
182.015,3.1073,13.8046,2.874,20,1086,5,
182.015,3.10791,13.8062,2.874,20,1086,5,
182.015,3.10638,13.8016,2.874,20,1086,5,
182.015,3.1073,13.8031,2.874,20,1086,5,
182.015,3.1076,13.8016,2.874,20,1086,5,
182.015,3.1076,13.8046,2.874,20,1086,5,
182.015,3.1076,13.8077,2.874,20,1086,5,
182.015,3.10272,13.8016,2.874,20,1086,5,
182.015,3.10272,13.8046,2.874,20,1086,5,
182.015,3.10333,13.8062,2.874,20,1086,5,
182.015,3.10211,13.8062,2.874,20,1086,5,
182.015,3.10272,13.8062,2.874,20,1086,5,
182.015,3.10242,13.8077,2.874,20,1086,5,
182.015,3.10242,13.8016,2.874,20,1086,5,
182.016,3.10272,13.8031,2.874,20,1086,5,
182.016,3.10303,13.8046,2.874,20,1086,5,
182.016,3.10333,13.8031,2.874,20,1086,5,
182.016,3.10272,13.8031,2.874,20,1086,5,
182.016,3.10242,13.8016,2.874,20,1086,5,
182.016,3.10211,13.8046,2.874,20,1086,5,
182.016,3.10242,13.8077,2.874,20,1086,5,
182.016,3.1015,13.8031,2.874,20,1086,5,
182.016,3.09784,13.8031,2.874,20,1086,5,
182.016,3.09784,13.8046,2.874,20,1086,5,
182.016,3.09784,13.8046,2.874,20,1086,5,
182.016,3.09814,13.8062,2.874,20,1086,5,
182.016,3.09814,13.8031,2.874,20,1086,5,
182.016,3.09784,13.8046,2.874,20,1086,5,
182.016,3.09814,13.8031,2.874,20,1086,5,
182.016,3.09784,13.8062,2.874,20,1086,5,
182.016,3.09753,13.8062,2.874,20,1086,5,
182.016,3.09814,13.8031,2.874,20,1086,5,
182.016,3.09845,13.8046,2.874,20,1086,5,
182.016,3.09784,13.8046,2.874,20,1086,5,
182.016,3.09784,13.8046,2.874,20,1086,5,
182.016,3.09784,13.8062,2.874,20,1086,5,
182.016,3.09753,13.8077,2.874,20,1086,5,
182.016,3.09784,13.8016,2.874,20,1086,5,
182.016,3.09814,13.8031,2.874,20,1086,5,
182.016,3.09814,13.8031,2.874,20,1086,5,
182.016,3.09753,13.8168,2.874,20,1086,5,
182.016,3.09326,13.8168,2.874,20,1086,5,
182.016,3.09387,13.8184,2.874,20,1086,5,
182.016,3.09326,13.8153,2.874,20,1086,5,
182.017,3.09296,13.8153,2.874,20,1086,5,
182.017,3.09235,13.8153,2.874,20,1086,5,
182.017,3.09296,13.8168,2.874,20,1086,5,
182.017,3.09296,13.8153,2.874,20,1086,5,
182.017,3.09296,13.8168,2.874,20,1086,5,
182.017,3.09296,13.8199,2.874,20,1086,5,
182.017,3.09204,13.8184,2.874,20,1086,5,
182.017,3.09296,13.8199,2.874,20,1086,5,
182.017,3.09326,13.8168,2.874,20,1086,5,
182.017,3.09235,13.8214,2.874,20,1086,5,
182.017,3.09357,13.8199,2.874,20,1086,5,
182.017,3.09265,13.8184,2.874,20,1086,5,
182.017,3.09296,13.8199,2.874,20,1086,5,
182.017,3.09326,13.8168,2.874,20,1086,5,
182.017,3.09204,13.8214,2.874,20,1086,5,
182.017,3.08868,13.8168,2.874,20,1086,5,
182.017,3.08777,13.8168,2.874,20,1086,5,
182.017,3.08868,13.8168,2.874,20,1086,5,
182.017,3.08777,13.8168,2.874,20,1086,5,
182.017,3.08807,13.8184,2.874,20,1086,5,
182.017,3.08777,13.8153,2.874,20,1086,5,
182.017,3.08777,13.8168,2.874,20,1086,5,
182.017,3.08807,13.8168,2.874,20,1086,5,
182.017,3.08777,13.8199,2.874,20,1086,5,
182.017,3.08777,13.8153,2.874,20,1086,5,
182.017,3.08807,13.8153,2.874,20,1086,5,
182.017,3.08807,13.8184,2.874,20,1086,5,
182.017,3.08472,13.8184,2.874,20,1086,5,
182.017,3.08289,13.8153,2.874,20,1086,5,
182.017,3.08289,13.8153,2.874,20,1086,5,
182.018,3.08228,13.8184,2.874,20,1086,5,
182.018,3.08289,13.8184,2.874,20,1086,5,
182.018,3.08319,13.8168,2.874,20,1086,5,
182.018,3.08289,13.8184,2.874,20,1086,5,
182.018,3.08289,13.8184,2.874,20,1086,5,
182.018,3.08319,13.8184,2.874,20,1086,5,
182.018,3.08258,13.8184,2.874,20,1086,5,
182.018,3.08228,13.8153,2.874,20,1086,5,
182.018,3.07831,13.8168,2.874,20,1086,5,
182.018,3.07861,13.8168,2.874,20,1086,5,
182.018,3.078,13.8184,2.874,20,1086,5,
182.018,3.078,13.8184,2.874,20,1086,5,
182.018,3.07861,13.8153,2.874,20,1086,5,
182.018,3.078,13.8153,2.874,20,1086,5,
182.018,3.078,13.8168,2.874,20,1086,5,
182.018,3.07892,13.8184,2.874,20,1086,5,
182.018,3.078,13.8168,2.874,20,1086,5,
182.018,3.07312,13.8184,2.874,20,1086,5,
182.018,3.07312,13.8168,2.874,20,1086,5,
182.018,3.07281,13.8168,2.874,20,1086,5,
182.018,3.07343,13.8138,2.874,20,1086,5,
182.018,3.07251,13.8153,2.874,20,1086,5,
182.018,3.07373,13.8199,2.874,20,1086,5,
182.018,3.07281,13.8199,2.874,20,1086,5,
182.018,3.07343,13.8138,2.874,20,1086,5,
182.018,3.06946,13.8168,2.874,20,1086,5,
182.018,3.06824,13.8168,2.874,20,1086,5,
182.018,3.06854,13.8168,2.874,20,1086,5,
182.018,3.06793,13.8153,2.874,20,1086,5,
182.018,3.06854,13.8184,2.874,20,1086,5,
182.018,3.06793,13.8168,2.874,20,1086,5,
182.019,3.06885,13.8184,2.874,20,1086,5,
182.019,3.06793,13.8153,2.874,20,1086,5,
182.019,3.06305,13.8214,2.874,20,1086,5,
182.019,3.06396,13.8168,2.874,20,1086,5,
182.019,3.06305,13.8184,2.874,20,1086,5,
182.019,3.06274,13.8138,2.874,20,1086,5,
182.019,3.06305,13.8153,2.874,20,1086,5,
182.019,3.06335,13.8153,2.874,20,1086,5,
182.019,3.06396,13.8153,2.874,20,1086,5,
182.019,3.06335,13.8138,2.874,20,1086,5,
182.019,3.05908,13.8184,2.874,20,1086,5,
182.019,3.05847,13.8153,2.874,20,1086,5,
182.019,3.05847,13.8168,2.874,20,1086,5,
182.019,3.05817,13.8184,2.874,20,1086,5,
182.019,3.05847,13.8168,2.874,20,1086,5,
182.019,3.05847,13.8184,2.874,20,1086,5,
182.019,3.05908,13.8168,2.874,20,1086,5,
182.019,3.05908,13.8153,2.874,20,1086,5,
182.019,3.05389,13.8199,2.874,20,1086,5,
182.019,3.05359,13.8153,2.874,20,1086,5,
182.019,3.05328,13.8153,2.874,20,1086,5,
182.019,3.05298,13.8184,2.874,20,1086,5,
182.019,3.05359,13.8184,2.874,20,1086,5,
182.019,3.05389,13.8184,2.874,20,1086,5,
182.019,3.05389,13.8168,2.874,20,1086,5,
182.019,3.05328,13.8168,2.874,20,1086,5,
182.019,3.04901,13.8168,2.874,20,1086,5,
182.019,3.04932,13.8184,2.874,20,1086,5,
182.019,3.0481,13.8168,2.874,20,1086,5,
182.019,3.04901,13.8168,2.874,20,1086,5,
182.02,3.0484,13.8184,2.874,20,1086,5,
182.02,3.0484,13.8168,2.874,20,1086,5,
182.02,3.04871,13.8168,2.874,20,1086,5,
182.02,3.04901,13.8138,2.874,20,1086,5,
182.02,3.04413,13.8153,2.874,20,1086,5,
182.02,3.04352,13.8168,2.874,20,1086,5,
182.02,3.04443,13.8199,2.874,20,1086,5,
182.02,3.04413,13.8168,2.874,20,1086,5,
182.02,3.04382,13.8168,2.874,20,1086,5,
182.02,3.04382,13.8153,2.874,20,1086,5,
182.02,3.04413,13.8153,2.874,20,1086,5,
182.02,3.04413,13.8153,2.874,20,1086,5,
182.02,3.03925,13.8153,2.874,20,1086,5,
182.02,3.03925,13.8199,2.874,20,1086,5,
182.02,3.03925,13.8184,2.874,20,1086,5,
182.02,3.03894,13.8153,2.874,20,1086,5,
182.02,3.03894,13.8199,2.874,20,1086,5,
182.02,3.03925,13.8199,2.874,20,1086,5,
182.02,3.03925,13.8184,2.874,20,1086,5,
182.02,3.03894,13.8153,2.874,20,1086,5,
182.02,3.03467,13.8184,2.874,20,1086,5,
182.02,3.03436,13.8184,2.874,20,1086,5,
182.02,3.03406,13.8123,2.874,20,1086,5,
182.02,3.03375,13.8184,2.874,20,1086,5,
182.02,3.03375,13.8168,2.874,20,1086,5,
182.02,3.03436,13.8153,2.874,20,1086,5,
182.02,3.03406,13.8184,2.874,20,1086,5,
182.02,3.03375,13.8153,2.874,20,1086,5,
182.02,3.02979,13.8168,2.874,20,1086,5,
182.02,3.02948,13.8153,2.874,20,1086,5,
182.021,3.02917,13.8168,2.874,20,1086,5,
182.021,3.02948,13.8184,2.874,20,1086,5,
182.021,3.02887,13.8184,2.874,20,1086,5,
182.021,3.02887,13.8184,2.874,20,1086,5,
182.021,3.02948,13.8153,2.874,20,1086,5,
182.021,3.02887,13.8184,2.874,20,1086,5,
182.021,3.0246,13.8184,2.874,20,1086,5,
182.021,3.02368,13.8153,2.874,20,1086,5,
182.021,3.0246,13.8138,2.874,20,1086,5,
182.021,3.0246,13.8153,2.874,20,1086,5,
182.021,3.02399,13.8184,2.874,20,1086,5,
182.021,3.02429,13.8168,2.874,20,1086,5,
182.021,3.02399,13.8184,2.874,20,1086,5,
182.021,3.0191,13.8153,2.874,20,1086,5,
182.021,3.01941,13.8184,2.874,20,1086,5,
182.021,3.01849,13.8168,2.874,20,1086,5,
182.021,3.0191,13.8184,2.874,20,1086,5,
182.021,3.01971,13.8214,2.874,20,1086,5,
182.021,3.0191,13.8153,2.874,20,1086,5,
182.021,3.0191,13.8184,2.874,20,1086,5,
182.021,3.01849,13.8168,2.874,20,1086,5,
182.021,3.01453,13.8184,2.874,20,1086,5,
182.021,3.01422,13.8123,2.874,20,1086,5,
182.021,3.01422,13.8199,2.874,20,1086,5,
182.021,3.01483,13.8199,2.874,20,1086,5,
182.021,3.01392,13.8184,2.874,20,1086,5,
182.021,3.01483,13.8153,2.874,20,1086,5,
182.021,3.01392,13.8168,2.874,20,1086,5,
182.021,3.01117,13.8168,2.874,20,1086,5,
182.022,3.00964,13.8168,2.874,20,1086,5,
182.022,3.00934,13.8168,2.874,20,1086,5,
182.022,3.00934,13.8168,2.874,20,1086,5,
182.022,3.01025,13.8138,2.874,20,1086,5,
182.022,3.00964,13.8168,2.874,20,1086,5,
182.022,3.00934,13.8184,2.874,20,1086,5,
182.022,3.00964,13.8184,2.874,20,1086,5,
182.022,3.00598,13.8168,2.874,20,1086,5,
182.022,3.00476,13.8168,2.874,20,1086,5,
182.022,3.00446,13.8168,2.874,20,1086,5,
182.022,3.00476,13.8184,2.874,20,1086,5,
182.022,3.00446,13.8184,2.874,20,1086,5,
182.022,3.00476,13.8123,2.874,20,1086,5,
182.022,3.00446,13.8168,2.874,20,1086,5,
182.022,3.00385,13.8153,2.874,20,1086,5,
182.022,3.00415,13.8184,2.874,20,1086,5,
182.022,2.99988,13.8153,2.874,20,1086,5,
182.022,3.00049,13.8184,2.874,20,1086,5,
182.022,3.00018,13.8168,2.874,20,1086,5,
182.022,2.99957,13.8168,2.874,20,1086,5,
182.022,3.00018,13.8123,2.874,20,1086,5,
182.022,2.99957,13.8168,2.874,20,1086,5,
182.022,2.99957,13.8168,2.874,20,1086,5,
182.022,2.99957,13.8153,2.874,20,1086,5,
182.022,2.99988,13.8168,2.874,20,1086,5,
182.022,2.995,13.8153,2.874,20,1086,5,
182.022,2.99438,13.8184,2.874,20,1086,5,
182.022,2.9953,13.8184,2.874,20,1086,5,
182.022,2.995,13.8199,2.874,20,1086,5,
182.022,2.99591,13.8168,2.874,20,1086,5,
182.023,2.9953,13.8153,2.874,20,1086,5,
182.023,2.99469,13.8184,2.874,20,1086,5,
182.023,2.9953,13.8168,2.874,20,1086,5,
182.023,2.99469,13.8153,2.874,20,1086,5,
182.023,2.9953,13.8153,2.874,20,1086,5,
182.023,2.99164,13.8153,2.874,20,1086,5,
182.023,2.9895,13.8153,2.874,20,1086,5,
182.023,2.99072,13.8199,2.874,20,1086,5,
182.023,2.99011,13.8168,2.874,20,1086,5,
182.023,2.98981,13.8168,2.874,20,1086,5,
182.023,2.99011,13.8153,2.874,20,1086,5,
182.023,2.98981,13.8184,2.874,20,1086,5,
182.023,2.99011,13.8184,2.874,20,1086,5,
182.023,2.99072,13.8199,2.874,20,1086,5,
182.023,2.99042,13.8168,2.874,20,1086,5,
182.023,2.98981,13.8184,2.874,20,1086,5,
182.023,2.9892,13.8138,2.874,20,1086,5,
182.023,2.99042,13.8184,2.874,20,1086,5,
182.023,2.99042,13.8184,2.874,20,1086,5,
182.023,2.9895,13.8168,2.874,20,1086,5,
182.023,2.98584,13.8168,2.874,20,1086,5,
182.023,2.98492,13.8199,2.874,20,1086,5,
182.023,2.98584,13.8184,2.874,20,1086,5,
182.023,2.98492,13.8153,2.874,20,1086,5,
182.023,2.98492,13.8168,2.874,20,1086,5,
182.023,2.98553,13.8168,2.874,20,1086,5,
182.023,2.98523,13.8168,2.874,20,1086,5,
182.023,2.98492,13.8184,2.874,20,1086,5,
182.023,2.98523,13.8153,2.874,20,1086,5,
182.023,2.98553,13.8138,2.874,20,1086,5,
182.024,2.98492,13.8153,2.874,20,1086,5,
182.024,2.98523,13.8214,2.874,20,1086,5,
182.024,2.98523,13.8184,2.874,20,1086,5,
182.024,2.98492,13.8168,2.874,20,1086,5,
182.024,2.98523,13.8184,2.874,20,1086,5,
182.024,2.98523,13.8153,2.874,20,1086,5,
182.024,2.98553,13.8184,2.874,20,1086,5,
182.024,2.98523,13.8153,2.874,20,1086,5,
182.024,2.98431,13.8153,2.874,20,1086,5,
182.024,2.98523,13.8184,2.874,20,1086,5,
182.024,2.98492,13.8168,2.874,20,1086,5,
182.024,2.98523,13.8184,2.874,20,1086,5,
182.024,2.98492,13.8168,2.874,20,1086,5,
182.024,2.98462,13.8168,2.874,20,1086,5,
182.024,2.98492,13.8168,2.874,20,1086,5,
182.024,2.98492,13.8153,2.874,20,1086,5,
182.024,2.98553,13.8184,2.874,20,1086,5,
182.024,2.98553,13.8184,2.874,20,1086,5,
182.024,2.98492,13.8168,2.874,20,1086,5,
182.024,2.98523,13.8168,2.874,20,1086,5,
182.024,2.98523,13.8168,2.874,20,1086,5,
182.024,2.98492,13.8184,2.874,20,1086,5,
182.024,2.98431,13.8184,2.874,20,1086,5,
182.024,2.98584,13.8199,2.874,20,1086,5,
182.024,2.98492,13.8199,2.874,20,1086,5,
182.024,2.98553,13.8168,2.874,20,1086,5,
182.024,2.98523,13.8153,2.874,20,1086,5,
182.024,2.98492,13.8184,2.874,20,1086,5,
182.024,2.98889,13.8168,2.874,20,1086,5,
182.024,2.99011,13.8168,2.874,20,1086,5,
182.024,2.99011,13.8168,2.874,20,1086,5,
182.025,2.99103,13.8184,2.874,20,1086,5,
182.025,2.99072,13.8168,2.874,20,1086,5,
182.025,2.99011,13.8184,2.874,20,1086,5,
182.025,2.99042,13.8184,2.874,20,1086,5,
182.025,2.99072,13.8184,2.874,20,1086,5,
182.025,2.99072,13.8199,2.874,20,1086,5,
182.025,2.99133,13.8184,2.874,20,1086,5,
182.025,2.99011,13.8168,2.874,20,1086,5,
182.025,2.99042,13.8153,2.874,20,1086,5,
182.025,2.99011,13.8153,2.874,20,1086,5,
182.025,2.9892,13.8184,2.874,20,1086,5,
182.025,2.98523,13.8168,2.874,20,1086,5,
182.025,2.98431,13.8168,2.874,20,1086,5,
182.025,2.98462,13.8153,2.874,20,1086,5,
182.025,2.98492,13.8199,2.874,20,1086,5,
182.025,2.98523,13.8184,2.874,20,1086,5,
182.025,2.98492,13.8199,2.874,20,1086,5,
182.025,2.98462,13.8168,2.874,20,1086,5,
182.025,2.98462,13.8168,2.874,20,1086,5,
182.025,2.98553,13.8168,2.874,20,1086,5,
182.025,2.98462,13.8168,2.874,20,1086,5,
182.025,2.98492,13.8168,2.874,20,1086,5,
182.025,2.98523,13.8168,2.874,20,1086,5,
182.025,2.98492,13.8168,2.874,20,1086,5,
182.025,2.98492,13.8184,2.874,20,1086,5,
182.025,2.98096,13.8184,2.874,20,1086,5,
182.025,2.98004,13.8138,2.874,20,1086,5,
182.025,2.98065,13.8153,2.874,20,1086,5,
182.025,2.98065,13.8168,2.874,20,1086,5,
182.025,2.98035,13.8184,2.874,20,1086,5,
182.026,2.97974,13.8168,2.874,20,1086,5,
182.026,2.98035,13.8184,2.874,20,1086,5,
182.026,2.97668,13.8214,2.874,20,1086,5,
182.026,2.97516,13.8199,2.874,20,1086,5,
182.026,2.97607,13.8168,2.874,20,1086,5,
182.026,2.97516,13.8184,2.874,20,1086,5,
182.026,2.97516,13.8168,2.874,20,1086,5,
182.026,2.97485,13.8168,2.874,20,1086,5,
182.026,2.97089,13.8168,2.874,20,1086,5,
182.026,2.97028,13.8168,2.874,20,1086,5,
182.026,2.97058,13.8168,2.874,20,1086,5,
182.026,2.96997,13.8123,2.874,20,1086,5,
182.026,2.97058,13.8184,2.874,20,1086,5,
182.026,2.9657,13.8168,2.874,20,1086,5,
182.026,2.96539,13.8168,2.874,20,1086,5,
182.026,2.96509,13.8168,2.874,20,1086,5,
182.026,2.96509,13.8138,2.874,20,1086,5,
182.026,2.96082,13.8168,2.874,20,1086,5,
182.026,2.96082,13.8153,2.874,20,1086,5,
182.026,2.96051,13.8138,2.874,20,1086,5,
182.026,2.96082,13.8168,2.874,20,1086,5,
182.026,2.95593,13.8153,2.874,20,1086,5,
182.026,2.95532,13.8168,2.874,20,1086,5,
182.026,2.95532,13.8184,2.874,20,1086,5,
182.026,2.95471,13.8153,2.874,20,1086,5,
182.026,2.95044,13.8168,2.874,20,1086,5,
182.026,2.95105,13.8153,2.874,20,1086,5,
182.026,2.95135,13.8184,2.874,20,1086,5,
182.026,2.94647,13.8168,2.874,20,1086,5,
182.026,2.94586,13.8153,2.874,20,1086,5,
182.027,2.94617,13.8153,2.874,20,1086,5,
182.027,2.94128,13.8153,2.874,20,1086,5,
182.027,2.94098,13.8138,2.874,20,1086,5,
182.027,2.94159,13.8138,2.874,20,1086,5,
182.027,2.9364,13.8153,2.874,20,1086,5,
182.027,2.9364,13.8184,2.874,20,1086,5,
182.027,2.93549,13.8153,2.874,20,1086,5,
182.027,2.93121,13.8168,2.874,20,1086,5,
182.027,2.93121,13.8168,2.874,20,1086,5,
182.027,2.93091,13.8168,2.874,20,1086,5,
182.027,2.92633,13.8199,2.874,20,1086,5,
182.027,2.92633,13.8168,2.874,20,1086,5,
182.027,2.92145,13.8168,2.874,20,1086,5,
182.027,2.92206,13.8153,2.874,20,1086,5,
182.027,2.91779,13.8153,2.874,20,1086,5,
182.027,2.91656,13.8168,2.874,20,1086,5,
182.027,2.91534,13.8214,2.874,20,1086,5,
182.027,2.91168,13.8214,2.874,20,1086,5,
182.027,2.91138,13.8184,2.874,20,1086,5,
182.027,2.9068,13.8168,2.874,20,1086,5,
182.027,2.90649,13.8153,2.874,20,1086,5,
182.027,2.90161,13.8199,2.874,20,1086,5,
182.027,2.9007,13.8168,2.874,20,1086,5,
182.027,2.89673,13.8184,2.874,20,1086,5,
182.027,2.89642,13.8184,2.874,20,1086,5,
182.027,2.89246,13.8184,2.874,20,1086,5,
182.027,2.89093,13.8199,2.874,20,1086,5,
182.027,2.88757,13.8153,2.874,20,1086,5,
182.027,2.88422,13.8153,2.874,20,1086,5,
182.028,2.883,13.8168,2.874,20,1086,5,
182.028,2.87689,13.8214,2.874,20,1086,5,
182.028,2.87659,13.8168,2.874,20,1086,5,
182.028,2.87262,13.8168,2.874,20,1086,5,
182.028,2.86713,13.8184,2.874,20,1086,5,
182.028,2.86713,13.8199,2.874,20,1086,5,
182.028,2.86224,13.8184,2.874,20,1086,5,
182.028,2.85828,13.8184,2.874,20,1086,5,
182.028,2.85736,13.8184,2.874,20,1086,5,
182.028,2.85278,13.8168,2.874,20,1086,5,
182.028,2.84882,13.8153,2.874,20,1086,5,
182.028,2.84393,13.8199,2.874,20,1086,5,
182.028,2.84332,13.8153,2.874,20,1086,5,
182.028,2.83783,13.8168,2.874,20,1086,5,
182.028,2.83386,13.8168,2.874,20,1086,5,
182.028,2.83234,13.8123,2.874,20,1086,5,
182.028,2.82837,13.8184,2.874,20,1086,5,
182.028,2.82379,13.8168,2.874,20,1086,5,
182.028,2.81891,13.8168,2.874,20,1086,5,
182.028,2.81525,13.8184,2.874,20,1086,5,
182.028,2.81006,13.8184,2.874,20,1086,5,
182.028,2.80792,13.8153,2.874,20,1086,5,
182.028,2.80365,13.8168,2.874,20,1086,5,
182.028,2.79968,13.8199,2.874,20,1086,5,
182.028,2.79419,13.8184,2.874,20,1086,5,
182.028,2.78961,13.8168,2.874,20,1086,5,
182.028,2.78473,13.8168,2.874,20,1086,5,
182.028,2.77985,13.8184,2.874,20,1086,5,
182.028,2.77557,13.8184,2.874,20,1086,5,
182.028,2.7713,13.8184,2.874,20,1086,5,
182.029,2.76581,13.8184,2.874,20,1086,5,
182.029,2.76154,13.8168,2.874,20,1086,5,
182.029,2.75635,13.8184,2.874,20,1086,5,
182.029,2.75116,13.8199,2.874,20,1086,5,
182.029,2.74567,13.8153,2.874,20,1086,5,
182.029,2.73987,13.8153,2.874,20,1086,5,
182.029,2.73529,13.8168,2.874,20,1086,5,
182.029,2.73071,13.8168,2.874,20,1086,5,
182.029,2.72522,13.8153,2.874,20,1086,5,
182.029,2.71942,13.8184,2.874,20,1086,5,
182.029,2.71423,13.8184,2.874,20,1086,5,
182.029,2.70721,13.8168,2.874,20,1086,5,
182.029,2.70203,13.8184,2.874,20,1086,5,
182.029,2.69592,13.8199,2.874,20,1086,5,
182.029,2.69165,13.8184,2.874,20,1086,5,
182.029,2.68555,13.8184,2.874,20,1086,5,
182.029,2.68005,13.8199,2.874,20,1086,5,
182.029,2.67242,13.8138,2.874,20,1086,5,
182.029,2.66571,13.8184,2.874,20,1086,5,
182.029,2.66174,13.8168,2.874,20,1086,5,
182.029,2.65625,13.8138,2.874,20,1086,5,
182.029,2.64862,13.8184,2.874,20,1086,5,
182.029,2.64221,13.8031,2.874,20,1086,5,
182.029,2.6358,13.8046,2.874,20,1086,5,
182.029,2.63184,13.8062,2.874,20,1086,5,
182.029,2.6236,13.8016,2.874,20,1086,5,
182.029,2.6181,13.8046,2.874,20,1086,5,
182.029,2.612,13.8062,2.874,20,1086,5,
182.029,2.60376,13.8092,2.874,20,1086,5,
182.029,2.59827,13.8016,2.874,20,1086,5,
182.03,2.59186,13.8046,2.874,20,1086,5,
182.03,2.58484,13.8031,2.874,20,1086,5,
182.03,2.57874,13.8046,2.874,20,1086,5,
182.03,2.57324,13.8031,2.874,20,1086,5,
182.03,2.565,13.8031,2.874,20,1086,5,
182.03,2.55981,13.8046,2.874,20,1086,5,
182.03,2.55249,13.8046,2.874,20,1086,5,
182.03,2.54456,13.8062,2.874,20,1086,5,
182.03,2.53845,13.8046,2.874,20,1086,5,
182.03,2.53143,13.8077,2.874,20,1086,5,
182.03,2.52502,13.8062,2.874,20,1086,5,
182.03,2.51801,13.8046,2.874,20,1086,5,
182.03,2.51099,13.8031,2.874,20,1086,5,
182.03,2.50397,13.8031,2.874,20,1086,5,
182.03,2.49634,13.8046,2.874,20,1086,5,
182.03,2.49084,13.8031,2.874,20,1086,5,
182.03,2.48444,13.8046,2.874,20,1086,5,
182.03,2.47681,13.8092,2.874,20,1086,5,
182.03,2.47009,13.8062,2.874,20,1086,5,
182.03,2.46185,13.8031,2.874,20,1086,5,
182.03,2.45728,13.8031,2.874,20,1086,5,
182.03,2.44995,13.8046,2.874,20,1086,5,
182.03,2.44141,13.8046,2.874,20,1086,5,
182.03,2.4353,13.8046,2.874,20,1086,5,
182.03,2.42828,13.8077,2.874,20,1086,5,
182.03,2.42157,13.8,2.874,20,1086,5,
182.03,2.41333,13.8031,2.874,20,1086,5,
182.03,2.40631,13.8046,2.874,20,1086,5,
182.03,2.40112,13.8046,2.874,20,1086,5,
182.03,2.39319,13.8046,2.874,20,1086,5,
182.03,2.38678,13.8046,2.874,20,1086,5,
182.031,2.37854,13.8062,2.874,20,1086,5,
182.031,2.37305,13.8016,2.874,20,1086,5,
182.031,2.36664,13.8062,2.874,20,1086,5,
182.031,2.35748,13.8046,2.874,20,1086,5,
182.031,2.35168,13.8077,2.874,20,1086,5,
182.031,2.34467,13.8062,2.874,20,1086,5,
182.031,2.33856,13.8031,2.874,20,1086,5,
182.031,2.33032,13.8062,2.874,20,1086,5,
182.031,2.3233,13.8046,2.874,20,1086,5,
182.031,2.3175,13.8046,2.874,20,1086,5,
182.031,2.31018,13.8031,2.874,20,1086,5,
182.031,2.30469,13.8016,2.874,20,1086,5,
182.031,2.29858,13.8062,2.874,20,1086,5,
182.031,2.28943,13.8031,2.874,20,1086,5,
182.031,2.28363,13.8046,2.874,20,1086,5,
182.031,2.27661,13.7985,2.874,20,1086,5,
182.031,2.27051,13.8,2.874,20,1086,5,
182.031,2.2641,13.8046,2.874,20,1086,5,
182.031,2.25647,13.8062,2.874,20,1086,5,
182.031,2.25037,13.8062,2.874,20,1086,5,
182.031,2.24426,13.8062,2.874,20,1086,5,
182.031,2.23694,13.8016,2.874,20,1086,5,
182.031,2.23053,13.8046,2.874,20,1086,5,
182.031,2.22443,13.8016,2.874,20,1086,5,
182.031,2.2171,13.8031,2.874,20,1086,5,
182.031,2.211,13.8062,2.874,20,1086,5,
182.031,2.2049,13.8016,2.874,20,1086,5,
182.031,2.19788,13.8031,2.874,20,1086,5,
182.031,2.19177,13.8046,2.874,20,1086,5,
182.031,2.18597,13.8046,2.874,20,1086,5,
182.032,2.17834,13.8062,2.874,20,1086,5,
182.032,2.17224,13.8,2.874,20,1086,5,
182.032,2.16553,13.8046,2.874,20,1086,5,
182.032,2.15851,13.8016,2.874,20,1086,5,
182.032,2.15363,13.8031,2.874,20,1086,5,
182.032,2.14722,13.8016,2.874,20,1086,5,
182.032,2.14172,13.8046,2.874,20,1086,5,
182.032,2.13409,13.8031,2.874,20,1086,5,
182.032,2.12921,13.8046,2.874,20,1086,5,
182.032,2.12372,13.8046,2.874,20,1086,5,
182.032,2.1167,13.8062,2.874,20,1086,5,
182.032,2.11182,13.8031,2.874,20,1086,5,
182.032,2.10449,13.8046,2.874,20,1086,5,
182.032,2.09839,13.8031,2.874,20,1086,5,
182.032,2.09381,13.8031,2.874,20,1086,5,
182.032,2.08862,13.8031,0,20,1086,5,
182.032,2.08221,13.8062,0,20,1086,5,
182.032,2.07458,13.8031,0,20,1086,5,
182.032,2.07001,13.7909,0,20,1086,5,
182.032,2.06421,13.7909,0,20,1086,5,
182.032,2.05933,13.7955,0,20,1086,5,
182.032,2.05444,13.7924,0,20,1086,5,
182.032,2.04895,13.7939,0,20,1086,5,
182.032,2.04346,13.7924,0,20,1086,5,
182.032,2.03857,13.7909,0,20,1086,5,
182.032,2.034,13.7924,0,20,1086,5,
182.032,2.0285,13.7955,0,20,1086,5,
182.032,2.02362,13.7909,0,20,1086,5,
182.032,2.0166,13.7939,0,20,1086,5,
182.032,2.01172,13.7924,0,20,1086,5,
182.033,2.00653,13.7924,0,20,1086,5,
182.033,2.00195,13.7924,0,20,1086,5,
182.033,1.99677,13.7909,0,20,1086,5,
182.033,1.99219,13.7939,0,20,1086,5,
182.033,1.9873,13.7878,0,20,1086,5,
182.033,1.98456,13.7909,0,20,1086,5,
182.033,1.97968,13.7939,0,20,1086,5,
182.033,1.97418,13.7909,0,20,1086,5,
182.033,1.97021,13.7878,0,20,1086,5,
182.033,1.96564,13.7939,0,20,1086,5,
182.033,1.96075,13.7939,0,20,1086,5,
182.033,1.95618,13.7924,0,20,1086,5,
182.033,1.95129,13.7909,0,20,1086,5,
182.033,1.94672,13.7909,0,20,1086,5,
182.033,1.94275,13.7924,0,20,1086,5,
182.033,1.93756,13.7909,0,20,1086,5,
182.033,1.93542,13.7878,0,20,1086,5,
182.033,1.93115,13.7894,0,20,1086,5,
182.033,1.92688,13.7924,0,20,1086,5,
182.033,1.92139,13.7939,0,20,1086,5,
182.033,1.91864,13.7939,0,20,1086,5,
182.033,1.9165,13.7924,0,20,1086,5,
182.033,1.91162,13.7939,0,20,1086,5,
182.033,1.90704,13.7924,0,20,1086,5,
182.033,1.90338,13.7909,0,20,1086,5,
182.033,1.90155,13.7939,0,20,1086,5,
182.033,1.89728,13.7924,0,20,1086,5,
182.033,1.89331,13.7894,0,20,1086,5,
182.033,1.8927,13.7924,0,20,1086,5,
182.034,1.88721,13.7894,0,20,1086,5,
182.034,1.88446,13.7924,0,20,1086,5,
182.034,1.88293,13.7924,0,20,1086,5,
182.034,1.87775,13.7909,0,20,1086,5,
182.034,1.87653,13.7924,0,20,1086,5,
182.034,1.87225,13.7909,0,20,1086,5,
182.034,1.87012,13.7909,0,20,1086,5,
182.034,1.86798,13.7924,0,20,1086,5,
182.034,1.8631,13.7939,0,20,1086,5,
182.034,1.86249,13.7909,0,20,1086,5,
182.034,1.85852,13.797,0,20,1086,5,
182.034,1.8576,13.7909,0,20,1086,5,
182.034,1.85394,13.7924,0,20,1086,5,
182.034,1.85333,13.7924,0,20,1086,5,
182.034,1.84814,13.7909,0,20,1086,5,
182.034,1.84875,13.7909,0,20,1086,5,
182.034,1.84387,13.7939,0,20,1086,5,
182.034,1.84296,13.7909,0,20,1086,5,
182.034,1.8399,13.7878,0,20,1086,5,
182.034,1.83838,13.7924,0,20,1086,5,
182.034,1.83868,13.7894,0,20,1086,5,
182.034,1.83411,13.7924,0,20,1086,5,
182.034,1.8338,13.7909,0,20,1086,5,
182.034,1.83319,13.7924,0,20,1086,5,
182.034,1.82892,13.7909,0,20,1086,5,
182.034,1.82861,13.7909,0,20,1086,5,
182.034,1.828,13.7772,0,20,1086,5,
182.034,1.82404,13.7787,0,20,1086,5,
182.034,1.82373,13.7817,0,20,1086,5,
182.034,1.82373,13.7772,0,20,1086,5,
182.035,1.81824,13.7772,0,20,1086,5,
182.035,1.81976,13.7787,0,20,1086,5,
182.035,1.81915,13.7817,0,20,1086,5,
182.035,1.81549,13.7787,0,20,1086,5,
182.035,1.81366,13.7802,0,20,1086,5,
182.035,1.81396,13.7802,0,20,1086,5,
182.035,1.81396,13.7787,0,20,1086,5,
182.035,1.81,13.7787,2.41,20,1086,5,
182.035,1.80939,13.7817,2.41,20,1086,5,
182.035,1.80847,13.7772,2.41,20,1086,5,
182.035,1.80969,13.7741,2.41,20,1086,5,
182.035,1.80939,13.7772,2.41,20,1086,5,
182.035,1.8045,13.7817,2.41,20,1086,5,
182.035,1.8042,13.7741,2.41,20,1086,5,
182.035,1.80389,13.7772,2.41,20,1086,5,
182.035,1.80359,13.7772,2.41,20,1086,5,
182.035,1.8045,13.7787,2.41,20,1086,5,
182.035,1.80389,13.7802,2.41,20,1086,5,
182.035,1.8045,13.7802,2.41,20,1086,5,
182.035,1.7984,13.7802,2.41,20,1086,5,
182.035,1.79932,13.7787,2.41,20,1086,5,
182.035,1.79932,13.7802,2.41,20,1086,5,
182.035,1.79932,13.7802,2.41,20,1086,5,
182.035,1.79932,13.7787,2.41,20,1086,5,
182.035,1.79871,13.7787,2.41,20,1086,5,
182.035,1.79932,13.7787,2.41,20,1086,5,
182.035,1.79901,13.7802,2.41,20,1086,5,
182.035,1.79962,13.7772,2.41,20,1086,5,
182.035,1.79901,13.7772,2.41,20,1086,5,
182.035,1.79901,13.7772,2.41,20,1086,5,
182.036,1.79962,13.7787,2.41,20,1086,5,
182.036,1.79596,13.7787,2.41,20,1086,5,
182.036,1.79413,13.7817,2.41,20,1086,5,
182.036,1.79474,13.7802,2.41,20,1086,5,
182.036,1.79474,13.7802,2.41,20,1086,5,
182.036,1.79443,13.7787,2.41,20,1086,5,
182.036,1.79443,13.7802,2.41,20,1086,5,
182.036,1.79413,13.7787,2.41,20,1086,5,
182.036,1.79443,13.7802,2.41,20,1086,5,
182.036,1.79443,13.7802,2.41,20,1086,5,
182.036,1.79474,13.7817,2.41,20,1086,5,
182.036,1.79474,13.7833,2.41,20,1086,5,
182.036,1.79535,13.7802,2.41,20,1086,5,
182.036,1.79993,13.7787,2.41,20,1086,5,
182.036,1.79932,13.7802,2.41,20,1086,5,
182.036,1.79932,13.7802,2.41,20,1086,5,
182.036,1.79993,13.7833,2.41,20,1086,5,
182.036,1.79962,13.7772,2.41,20,1086,5,
182.036,1.80023,13.7772,2.41,20,1086,5,
182.036,1.79962,13.7802,2.41,20,1086,5,
182.036,1.79962,13.7817,2.41,20,1086,5,
182.036,1.79962,13.7833,2.41,20,1086,5,
182.036,1.79932,13.7802,2.41,20,1086,5,
182.036,1.79901,13.7817,2.41,20,1086,5,
182.036,1.79993,13.7787,2.41,20,1086,5,
182.036,1.79962,13.7756,2.41,20,1086,5,
182.036,1.79962,13.7787,2.41,20,1086,5,
182.036,1.80359,13.7802,2.41,20,1086,5,
182.036,1.8042,13.7756,2.41,20,1086,5,
182.036,1.80481,13.7833,2.41,20,1086,5,
182.036,1.80389,13.7787,2.41,20,1086,5,
182.037,1.80359,13.7802,2.41,20,1086,5,
182.037,1.80389,13.7802,2.41,20,1086,5,
182.037,1.8045,13.7787,2.41,20,1086,5,
182.037,1.80389,13.7772,2.41,20,1086,5,
182.037,1.80878,13.7787,2.41,20,1086,5,
182.037,1.80878,13.7756,2.41,20,1086,5,
182.037,1.80908,13.7665,2.41,20,1086,5,
182.037,1.80847,13.768,2.41,20,1086,5,
182.037,1.80939,13.768,2.41,20,1086,5,
182.037,1.80878,13.7711,2.41,20,1086,5,
182.037,1.81274,13.7665,2.41,20,1086,5,
182.037,1.81366,13.765,2.41,20,1086,5,
182.037,1.81366,13.7634,2.41,20,1086,5,
182.037,1.81427,13.765,2.41,20,1086,5,
182.037,1.81366,13.765,2.41,20,1086,5,
182.037,1.81335,13.7695,2.41,20,1086,5,
182.037,1.81763,13.7695,2.41,20,1086,5,
182.037,1.81854,13.768,2.41,20,1086,5,
182.037,1.81824,13.768,2.41,20,1086,5,
182.037,1.81885,13.765,2.41,20,1086,5,
182.037,1.81946,13.7665,2.41,20,1086,5,
182.037,1.82159,13.768,2.41,20,1086,5,
182.037,1.82343,13.768,2.41,20,1086,5,
182.037,1.82343,13.765,2.41,20,1086,5,
182.037,1.82343,13.765,2.41,20,1086,5,
182.037,1.82343,13.765,2.41,20,1086,5,
182.037,1.8277,13.7634,2.41,20,1086,5,
182.037,1.82892,13.7695,2.41,20,1086,5,
182.037,1.82922,13.768,2.41,20,1086,5,
182.037,1.82922,13.768,2.41,20,1086,5,
182.038,1.82861,13.7711,2.41,20,1086,5,
182.038,1.8335,13.768,2.41,20,1086,5,
182.038,1.8335,13.768,2.41,20,1086,5,
182.038,1.8335,13.768,2.41,20,1086,5,
182.038,1.83319,13.768,2.41,20,1086,5,
182.038,1.83838,13.7695,2.41,20,1086,5,
182.038,1.83838,13.768,2.41,20,1086,5,
182.038,1.83899,13.7695,2.41,20,1086,5,
182.038,1.83807,13.768,2.41,20,1086,5,
182.038,1.84204,13.765,2.41,20,1086,5,
182.038,1.84265,13.7695,2.41,20,1086,5,
182.038,1.84326,13.765,2.41,20,1086,5,
182.038,1.84357,13.768,2.41,20,1086,5,
182.038,1.84814,13.768,2.41,20,1086,5,
182.038,1.84814,13.7695,2.41,20,1086,5,
182.038,1.84845,13.768,2.41,20,1086,5,
182.038,1.84814,13.768,2.41,20,1086,5,
182.038,1.85333,13.768,2.41,20,1086,5,
182.038,1.85303,13.7665,2.41,20,1086,5,
182.038,1.85333,13.768,2.41,20,1086,5,
182.038,1.85272,13.7619,2.41,20,1086,5,
182.038,1.85822,13.768,2.41,20,1086,5,
182.038,1.85699,13.7665,2.41,20,1086,5,
182.038,1.85852,13.7665,2.41,20,1086,5,
182.038,1.86127,13.7634,2.41,20,1086,5,
182.038,1.86249,13.768,2.41,20,1086,5,
182.038,1.8631,13.765,2.41,20,1086,5,
182.038,1.8631,13.768,2.41,20,1086,5,
182.038,1.86798,13.765,2.41,20,1086,5,
182.038,1.86768,13.7665,2.41,20,1086,5,
182.039,1.86768,13.7665,2.41,20,1086,5,
182.039,1.87134,13.765,2.41,20,1086,5,
182.039,1.87317,13.7665,2.41,20,1086,5,
182.039,1.87317,13.768,2.41,20,1086,5,
182.039,1.87286,13.7695,2.41,20,1086,5,
182.039,1.87653,13.7695,2.41,20,1086,5,
182.039,1.87805,13.768,2.41,20,1086,5,
182.039,1.87775,13.765,2.41,20,1086,5,
182.039,1.8811,13.7695,2.41,20,1086,5,
182.039,1.88232,13.765,2.41,20,1086,5,
182.039,1.88263,13.7695,2.41,20,1086,5,
182.039,1.88293,13.768,2.41,20,1086,5,
182.039,1.88721,13.7665,2.41,20,1086,5,
182.039,1.88751,13.765,2.41,20,1086,5,
182.039,1.88721,13.7558,2.41,20,1086,5,
182.039,1.8924,13.7589,2.41,20,1086,5,
182.039,1.89301,13.7558,2.41,20,1086,5,
182.039,1.8927,13.7512,2.41,20,1086,5,
182.039,1.89301,13.7543,2.41,20,1086,5,
182.039,1.89758,13.7558,2.41,20,1086,5,
182.039,1.89697,13.7558,2.41,20,1086,5,
182.039,1.89697,13.7558,2.41,20,1086,5,
182.039,1.90216,13.7543,2.41,20,1086,5,
182.039,1.90155,13.7543,2.41,20,1086,5,
182.039,1.90247,13.7527,2.41,20,1086,5,
182.039,1.90521,13.7543,2.41,20,1086,5,
182.039,1.90643,13.7558,2.41,20,1086,5,
182.039,1.90704,13.7558,2.41,20,1086,5,
182.039,1.90643,13.7543,2.41,20,1086,5,
182.04,1.91193,13.7558,2.41,20,1086,5,
182.04,1.91193,13.7543,2.41,20,1086,5,
182.04,1.91223,13.7573,2.41,20,1086,5,
182.04,1.91559,13.7573,2.41,20,1086,5,
182.04,1.9165,13.7543,2.41,20,1086,5,
182.04,1.9165,13.7558,2.41,20,1086,5,
182.04,1.91681,13.7558,2.41,20,1086,5,
182.04,1.92169,13.7573,2.41,20,1086,5,
182.04,1.92169,13.7558,2.41,20,1086,5,
182.04,1.92139,13.7558,2.41,20,1086,5,
182.04,1.92535,13.7543,2.41,20,1086,5,
182.04,1.92657,13.7543,2.41,20,1086,5,
182.04,1.92688,13.7558,2.41,20,1086,5,
182.04,1.92657,13.7573,2.41,20,1086,5,
182.04,1.93176,13.7573,2.41,20,1086,5,
182.04,1.93176,13.7527,2.41,20,1086,5,
182.04,1.93176,13.7558,2.41,20,1086,5,
182.04,1.93542,13.7543,2.41,20,1086,5,
182.04,1.93634,13.7527,2.41,20,1086,5,
182.04,1.93634,13.7527,2.41,20,1086,5,
182.04,1.93695,13.7558,2.41,20,1086,5,
182.04,1.94153,13.7527,2.41,20,1086,5,
182.04,1.94122,13.7543,2.41,20,1086,5,
182.04,1.94122,13.7589,2.41,20,1086,5,
182.04,1.94061,13.7558,2.41,20,1086,5,
182.04,1.94611,13.7527,2.41,20,1086,5,
182.04,1.94611,13.7527,2.41,20,1086,5,
182.04,1.94611,13.7573,2.41,20,1086,5,
182.04,1.94641,13.7573,2.41,20,1086,5,
182.04,1.95129,13.7558,2.41,20,1086,5,
182.041,1.95099,13.7543,2.41,20,1086,5,
182.041,1.94977,13.7573,2.41,20,1086,5,
182.041,1.9516,13.7512,2.41,20,1086,5,
182.041,1.95557,13.7543,2.41,20,1086,5,
182.041,1.95618,13.7558,2.41,20,1086,5,
182.041,1.95618,13.7573,2.41,20,1086,5,
182.041,1.95587,13.7512,2.41,20,1086,5,
182.041,1.96106,13.7543,2.41,20,1086,5,
182.041,1.96106,13.7527,2.41,20,1086,5,
182.041,1.96075,13.7497,2.41,20,1086,5,
182.041,1.96075,13.7543,2.41,20,1086,5,
182.041,1.96503,13.7573,2.41,20,1086,5,
182.041,1.96594,13.7512,2.41,20,1086,5,
182.041,1.96564,13.7558,2.41,20,1086,5,
182.041,1.96503,13.7543,2.41,20,1086,5,
182.041,1.9696,13.7512,2.41,20,1086,5,
182.041,1.97083,13.7558,2.41,20,1086,5,
182.041,1.97113,13.7558,2.41,20,1086,5,
182.041,1.96991,13.7558,2.41,20,1086,5,
182.041,1.97052,13.7604,2.41,20,1086,5,
182.041,1.9754,13.7543,2.41,20,1086,5,
182.041,1.9754,13.7512,2.41,20,1086,5,
182.041,1.9754,13.7573,2.41,20,1086,5,
182.041,1.9751,13.7558,2.41,20,1086,5,
182.041,1.97601,13.7558,2.41,20,1086,5,
182.041,1.9812,13.7558,2.41,20,1086,5,
182.041,1.9812,13.7573,2.41,20,1086,5,
182.041,1.9812,13.7558,2.41,20,1086,5,
182.041,1.98029,13.7558,2.41,20,1086,5,
182.041,1.98395,13.7573,2.41,20,1086,5,
182.042,1.98517,13.7543,2.41,20,1086,5,
182.042,1.98639,13.7573,2.41,20,1086,5,
182.042,1.98547,13.7573,2.41,20,1086,5,
182.042,1.98547,13.7558,2.41,20,1086,5,
182.042,1.98822,13.7543,2.41,20,1086,5,
182.042,1.99066,13.7543,2.41,20,1086,5,
182.042,1.99005,13.7573,2.41,20,1086,5,
182.042,1.98975,13.7558,2.41,20,1086,5,
182.042,1.99005,13.7527,2.41,20,1086,5,
182.042,1.99371,13.7543,2.41,20,1086,5,
182.042,1.99554,13.7543,2.41,20,1086,5,
182.042,1.99554,13.7543,2.41,20,1086,5,
182.042,1.99554,13.7573,2.41,20,1086,5,
182.042,1.99524,13.7512,2.41,20,1086,5,
182.042,1.99493,13.7558,2.41,20,1086,5,
182.042,2.00012,13.7527,2.41,20,1086,5,
182.042,1.99982,13.7543,2.41,20,1086,5,
182.042,1.99982,13.7543,2.41,20,1086,5,
182.042,2.00073,13.7543,2.41,20,1086,5,
182.042,2.00043,13.7543,2.41,20,1086,5,
182.042,2.00439,13.7543,2.41,20,1086,5,
182.042,2.005,13.7558,2.41,20,1086,5,
182.042,2.00531,13.7573,2.41,20,1086,5,
182.042,2.005,13.7558,2.41,20,1086,5,
182.042,2.00531,13.7421,2.41,20,1086,5,
182.042,2.00562,13.7451,2.41,20,1086,5,
182.042,2.00836,13.7405,2.41,20,1086,5,
182.042,2.00989,13.7451,2.41,20,1086,5,
182.042,2.00989,13.7421,2.41,20,1086,5,
182.042,2.00958,13.7451,2.41,20,1086,5,
182.042,2.01019,13.7466,2.41,20,1086,5,
182.043,2.00958,13.7436,2.41,20,1086,5,
182.043,2.0108,13.7436,2.41,20,1086,5,
182.043,2.01599,13.7436,2.41,20,1086,5,
182.043,2.01385,13.7421,2.41,20,1086,5,
182.043,2.01508,13.7451,2.41,20,1086,5,
182.043,2.01599,13.7421,2.41,20,1086,5,
182.043,2.01447,13.7421,2.41,20,1086,5,
182.043,2.01508,13.7421,2.41,20,1086,5,
182.043,2.01843,13.7405,2.41,20,1086,5,
182.043,2.01965,13.7436,2.41,20,1086,5,
182.043,2.01965,13.7421,2.41,20,1086,5,
182.043,2.01996,13.739,2.41,20,1086,5,
182.043,2.01996,13.7421,2.41,20,1086,5,
182.043,2.01965,13.7405,2.41,20,1086,5,
182.043,2.01996,13.7405,2.41,20,1086,5,
182.043,2.01965,13.7421,2.41,20,1086,5,
182.043,2.02393,13.7421,2.41,20,1086,5,
182.043,2.02393,13.7405,2.41,20,1086,5,
182.043,2.02454,13.7421,2.41,20,1086,5,
182.043,2.02423,13.7436,2.41,20,1086,5,
182.043,2.02423,13.7436,2.41,20,1086,5,
182.043,2.02484,13.7421,2.41,20,1086,5,
182.043,2.02454,13.7451,2.41,20,1086,5,
182.043,2.02545,13.7436,2.41,20,1086,5,
182.043,2.02454,13.7421,2.41,20,1086,5,
182.043,2.03003,13.7421,2.41,20,1086,5,
182.043,2.02972,13.7421,2.41,20,1086,5,
182.043,2.02972,13.7421,2.41,20,1086,5,
182.043,2.02972,13.7421,2.41,20,1086,5,
182.043,2.02942,13.739,2.41,20,1086,5,
182.044,2.02911,13.7405,2.41,20,1086,5,
182.044,2.02972,13.739,2.41,20,1086,5,
182.044,2.02972,13.7436,2.41,20,1086,5,
182.044,2.02972,13.7451,2.41,20,1086,5,
182.044,2.034,13.7451,2.41,20,1086,5,
182.044,2.0343,13.7436,2.41,20,1086,5,
182.044,2.034,13.7405,2.41,20,1086,5,
182.044,2.03369,13.7451,2.41,20,1086,5,
182.044,2.03461,13.7405,2.41,20,1086,5,
182.044,2.0343,13.7421,2.41,20,1086,5,
182.044,2.03461,13.739,2.41,20,1086,5,
182.044,2.0343,13.7436,2.41,20,1086,5,
182.044,2.0343,13.7405,2.41,20,1086,5,
182.044,2.03461,13.7421,2.41,20,1086,5,
182.044,2.034,13.739,2.41,20,1086,5,
182.044,2.03796,13.7421,2.41,20,1086,5,
182.044,2.03918,13.7436,2.41,20,1086,5,
182.044,2.03888,13.7436,2.41,20,1086,5,
182.044,2.03888,13.7466,2.41,20,1086,5,
182.044,2.03918,13.7436,2.41,20,1086,5,
182.044,2.03979,13.7421,2.41,20,1086,5,
182.044,2.03918,13.7405,2.41,20,1086,5,
182.044,2.03918,13.7421,2.41,20,1086,5,
182.044,2.03949,13.7421,2.41,20,1086,5,
182.044,2.03857,13.7405,2.41,20,1086,5,
182.044,2.03888,13.7436,2.41,20,1086,5,
182.044,2.03857,13.7421,2.41,20,1086,5,
182.044,2.03888,13.7405,2.41,20,1086,5,
182.044,2.03949,13.7405,2.41,20,1086,5,
182.044,2.04407,13.7451,2.41,20,1086,5,
182.045,2.04468,13.7451,2.41,20,1086,5,
182.045,2.04407,13.7436,2.41,20,1086,5,
182.045,2.04376,13.7436,2.41,20,1086,5,
182.045,2.04437,13.7405,2.41,20,1086,5,
182.045,2.04437,13.7451,2.41,20,1086,5,
182.045,2.04376,13.7421,2.41,20,1086,5,
182.045,2.04376,13.7405,2.41,20,1086,5,
182.045,2.04376,13.7283,2.41,20,1086,5,
182.045,2.04407,13.7314,2.41,20,1086,5,
182.045,2.04437,13.7299,2.41,20,1086,5,
182.045,2.04407,13.7299,2.41,20,1086,5,
182.045,2.04407,13.7299,2.41,20,1086,5,
182.045,2.04376,13.7329,2.41,20,1086,5,
182.045,2.04315,13.7329,2.41,20,1086,5,
182.045,2.04773,13.7314,2.41,20,1086,5,
182.045,2.04895,13.7283,2.41,20,1086,5,
182.045,2.04926,13.7283,2.41,20,1086,5,
182.045,2.04926,13.7299,2.41,20,1086,5,
182.045,2.04895,13.7299,2.41,20,1086,5,
182.045,2.04895,13.7314,2.41,20,1086,5,
182.045,2.04926,13.7314,2.41,20,1086,5,
182.045,2.04926,13.7299,2.41,20,1086,5,
182.045,2.04895,13.7283,2.41,20,1086,5,
182.045,2.04895,13.7253,2.41,20,1086,5,
182.045,2.04926,13.7299,2.41,20,1086,5,
182.045,2.04895,13.7283,2.41,20,1086,5,
182.045,2.04895,13.7314,2.41,20,1086,5,
182.045,2.04865,13.7314,2.41,20,1086,5,
182.045,2.04865,13.7314,2.41,20,1086,5,
182.046,2.04926,13.7299,2.41,20,1086,5,
182.046,2.04926,13.7253,2.41,20,1086,5,
182.046,2.04956,13.7299,2.41,20,1086,5,
182.046,2.05231,13.7299,2.41,20,1086,5,
182.046,2.05414,13.7314,2.41,20,1086,5,
182.046,2.05444,13.7314,2.41,20,1086,5,
182.046,2.05414,13.7283,2.41,20,1086,5,
182.046,2.05383,13.7344,2.41,20,1086,5,
182.046,2.05383,13.7268,2.41,20,1086,5,
182.046,2.05383,13.7283,2.41,20,1086,5,
182.046,2.05475,13.7268,2.41,20,1086,5,
182.046,2.05414,13.7314,2.41,20,1086,5,
182.046,2.05353,13.7329,2.41,20,1086,5,
182.046,2.05383,13.7283,2.41,20,1086,5,
182.046,2.05414,13.7314,2.41,20,1086,5,
182.046,2.05353,13.7314,2.41,20,1086,5,
182.046,2.05414,13.7314,2.41,20,1086,5,
182.046,2.05353,13.7314,2.41,20,1086,5,
182.046,2.05383,13.7299,2.41,20,1086,5,
182.046,2.05322,13.7329,2.41,20,1086,5,
182.046,2.05353,13.7299,2.41,20,1086,5,
182.046,2.05353,13.7329,2.41,20,1086,5,
182.046,2.05353,13.7299,2.41,20,1086,5,
182.046,2.05353,13.7314,2.41,20,1086,5,
182.046,2.05353,13.7299,2.41,20,1086,5,
182.046,2.05811,13.7314,2.41,20,1086,5,
182.046,2.05902,13.7299,2.41,20,1086,5,
182.046,2.05902,13.7314,2.41,20,1086,5,
182.046,2.05872,13.7314,2.41,20,1086,5,
182.046,2.05872,13.7329,2.41,20,1086,5,
182.047,2.05933,13.7299,2.41,20,1086,5,
182.047,2.05872,13.7283,2.41,20,1086,5,
182.047,2.05872,13.7299,2.41,20,1086,5,
182.047,2.05872,13.7299,2.41,20,1086,5,
182.047,2.05933,13.7283,2.41,20,1086,5,
182.047,2.05872,13.7268,2.41,20,1086,5,
182.047,2.05841,13.7314,2.41,20,1086,5,
182.047,2.05872,13.7314,2.41,20,1086,5,
182.047,2.05841,13.7299,2.41,20,1086,5,
182.047,2.05902,13.7329,2.41,20,1086,5,
182.047,2.05902,13.7283,2.41,20,1086,5,
182.047,2.05933,13.7314,2.41,20,1086,5,
182.047,2.05872,13.7299,2.41,20,1086,5,
182.047,2.05933,13.7299,2.41,20,1086,5,
182.047,2.05841,13.7314,2.41,20,1086,5,
182.047,2.05841,13.7299,2.41,20,1086,5,
182.047,2.05841,13.7299,2.41,20,1086,5,
182.047,2.05902,13.7268,2.41,20,1086,5,
182.047,2.05933,13.7314,2.41,20,1086,5,
182.047,2.05963,13.7299,2.41,20,1086,5,
182.047,2.05872,13.7253,2.41,20,1086,5,
182.047,2.05933,13.7299,2.41,20,1086,5,
182.047,2.05841,13.7299,2.41,20,1086,5,
182.047,2.05902,13.7314,2.41,20,1086,5,
182.047,2.0639,13.7299,2.41,20,1086,5,
182.047,2.0636,13.7329,2.41,20,1086,5,
182.047,2.06329,13.7299,2.41,20,1086,5,
182.047,2.0636,13.7299,2.41,20,1086,5,
182.047,2.0639,13.7329,2.41,20,1086,5,
182.047,2.06268,13.7283,2.41,20,1086,5,
182.048,2.06421,13.7131,2.41,20,1086,5,
182.048,2.0639,13.7192,2.41,20,1086,5,
182.048,2.06451,13.7192,2.41,20,1086,5,
182.048,2.06421,13.7146,2.41,20,1086,5,
182.048,2.06421,13.7192,2.41,20,1086,5,
182.048,2.06421,13.7161,2.41,20,1086,5,
182.048,2.06451,13.7207,2.41,20,1086,5,
182.048,2.06421,13.7192,2.41,20,1086,5,
182.048,2.0639,13.7192,2.41,20,1086,5,
182.048,2.0639,13.7177,2.41,20,1086,5,
182.048,2.06482,13.7192,2.41,20,1086,5,
182.048,2.06421,13.7192,2.41,20,1086,5,
182.048,2.06421,13.7177,2.41,20,1086,5,
182.048,2.06421,13.7192,2.41,20,1086,5,
182.048,2.06421,13.7177,2.41,20,1086,5,
182.048,2.06421,13.7161,2.41,20,1086,5,
182.048,2.06299,13.7192,2.41,20,1086,5,
182.048,2.06421,13.7131,2.41,20,1086,5,
182.048,2.06696,13.7207,2.41,20,1086,5,
182.048,2.06879,13.7192,2.41,20,1086,5,
182.048,2.06848,13.7192,2.41,20,1086,5,
182.048,2.06879,13.7207,2.41,20,1086,5,
182.048,2.06848,13.7207,2.41,20,1086,5,
182.048,2.06879,13.7192,2.41,20,1086,5,
182.048,2.06848,13.7177,2.41,20,1086,5,
182.048,2.06879,13.7177,2.41,20,1086,5,
182.048,2.06909,13.7177,2.41,20,1086,5,
182.048,2.06848,13.7177,2.41,20,1086,5,
182.048,2.06879,13.7177,2.41,20,1086,5,
182.048,2.0694,13.7161,2.41,20,1086,5,
182.048,2.06879,13.7177,2.41,20,1086,5,
182.049,2.06818,13.7192,2.41,20,1086,5,
182.049,2.06818,13.7177,2.41,20,1086,5,
182.049,2.06757,13.7177,2.41,20,1086,5,
182.049,2.06879,13.7177,2.41,20,1086,5,
182.049,2.06879,13.7192,2.41,20,1086,5,
182.049,2.06848,13.7192,2.41,20,1086,5,
182.049,2.07275,13.7146,2.41,20,1086,5,
182.049,2.07367,13.7192,2.41,20,1086,5,
182.049,2.07306,13.7177,2.41,20,1086,5,
182.049,2.07397,13.7177,2.41,20,1086,5,
182.049,2.07336,13.7039,2.41,20,1086,5,
182.049,2.07367,13.7039,2.41,20,1086,5,
182.049,2.07336,13.707,2.41,20,1086,5,
182.049,2.07367,13.707,2.41,20,1086,5,
182.049,2.07336,13.7024,2.41,20,1086,5,
182.049,2.07367,13.7085,2.41,20,1086,5,
182.049,2.07336,13.7039,2.41,20,1086,5,
182.049,2.07397,13.707,2.41,20,1086,5,
182.049,2.07367,13.7054,2.41,20,1086,5,
182.049,2.07336,13.707,2.41,20,1086,5,
182.049,2.07306,13.7085,2.41,20,1086,5,
182.049,2.07825,13.7039,2.41,20,1086,5,
182.049,2.07794,13.707,2.41,20,1086,5,
182.049,2.07825,13.7054,2.41,20,1086,5,
182.049,2.07886,13.7054,2.41,20,1086,5,
182.049,2.07855,13.7054,2.41,20,1086,5,
182.049,2.07794,13.7054,2.41,20,1086,5,
182.049,2.07855,13.707,2.41,20,1086,5,
182.049,2.07886,13.7054,2.41,20,1086,5,
182.049,2.07825,13.707,2.41,20,1086,5,
182.05,2.07825,13.7054,2.41,20,1086,5,
182.05,2.07825,13.7039,2.41,20,1086,5,
182.05,2.07855,13.7054,2.41,20,1086,5,
182.05,2.08221,13.6993,2.41,20,1086,5,
182.05,2.08344,13.7054,2.41,20,1086,5,
182.05,2.08374,13.7024,2.41,20,1086,5,
182.05,2.08374,13.7085,2.41,20,1086,5,
182.05,2.08344,13.707,2.41,20,1086,5,
182.05,2.08344,13.7039,2.41,20,1086,5,
182.05,2.08313,13.7054,2.41,20,1086,5,
182.05,2.08344,13.7054,2.41,20,1086,5,
182.05,2.08344,13.7085,2.41,20,1086,5,
182.05,2.08374,13.7054,2.41,20,1086,5,
182.05,2.08313,13.7054,2.41,20,1086,5,
182.05,2.08649,13.7054,2.41,20,1086,5,
182.05,2.08832,13.707,2.41,20,1086,5,
182.05,2.08862,13.7054,2.41,20,1086,5,
182.05,2.08771,13.7054,2.41,20,1086,5,
182.05,2.08893,13.6963,2.41,20,1086,5,
182.05,2.08801,13.6932,2.41,20,1086,5,
182.05,2.08801,13.6917,2.41,20,1086,5,
182.05,2.08832,13.6948,2.41,20,1086,5,
182.05,2.08862,13.6917,2.41,20,1086,5,
182.05,2.08832,13.6902,2.41,20,1086,5,
182.05,2.09015,13.6932,2.41,20,1086,5,
182.05,2.09259,13.6917,2.41,20,1086,5,
182.05,2.09351,13.6902,2.41,20,1086,5,
182.05,2.09259,13.6932,2.41,20,1086,5,
182.05,2.0932,13.6948,2.41,20,1086,5,
182.05,2.0932,13.6932,2.41,20,1086,5,
182.051,2.0932,13.6963,2.41,20,1086,5,
182.051,2.0929,13.6948,2.41,20,1086,5,
182.051,2.09381,13.6978,2.41,20,1086,5,
182.051,2.0932,13.6917,2.41,20,1086,5,
182.051,2.09717,13.6948,2.41,20,1086,5,
182.051,2.09808,13.6948,2.41,20,1086,5,
182.051,2.09808,13.6917,2.41,20,1086,5,
182.051,2.09778,13.6917,2.41,20,1086,5,
182.051,2.09747,13.6917,2.41,20,1086,5,
182.051,2.09839,13.6963,2.41,20,1086,5,
182.051,2.09839,13.6963,2.41,20,1086,5,
182.051,2.09808,13.6932,2.41,20,1086,5,
182.051,2.09778,13.6948,2.41,20,1086,5,
182.051,2.09808,13.6948,2.41,20,1086,5,
182.051,2.10297,13.6963,2.41,20,1086,5,
182.051,2.10327,13.6932,2.41,20,1086,5,
182.051,2.10236,13.6917,2.41,20,1086,5,
182.051,2.10297,13.6932,2.41,20,1086,5,
182.051,2.10297,13.6932,2.41,20,1086,5,
182.051,2.10388,13.6917,2.41,20,1086,5,
182.051,2.10327,13.6948,2.41,20,1086,5,
182.051,2.10327,13.6932,2.41,20,1086,5,
182.051,2.10358,13.6948,2.41,20,1086,5,
182.051,2.10327,13.6932,2.41,20,1086,5,
182.051,2.10785,13.6948,2.41,20,1086,5,
182.051,2.10785,13.6917,2.41,20,1086,5,
182.051,2.10876,13.6932,2.41,20,1086,5,
182.051,2.10876,13.6917,2.41,20,1086,5,
182.051,2.10815,13.6963,2.41,20,1086,5,
182.052,2.10785,13.6963,2.41,20,1086,5,
182.052,2.10785,13.6963,2.41,20,1086,5,
182.052,2.10785,13.6917,2.41,20,1086,5,
182.052,2.10815,13.6917,2.41,20,1086,5,
182.052,2.10785,13.6963,2.41,20,1086,5,
182.052,2.10815,13.6932,2.41,20,1086,5,
182.052,2.11273,13.6948,2.41,20,1086,5,
182.052,2.11304,13.6932,2.41,20,1086,5,
182.052,2.11365,13.6932,2.41,20,1086,5,
182.052,2.11243,13.6932,2.41,20,1086,5,
182.052,2.11243,13.6902,2.41,20,1086,5,
182.052,2.11243,13.6795,2.41,20,1086,5,
182.052,2.11273,13.6795,2.41,20,1086,5,
182.052,2.11273,13.681,2.41,20,1086,5,
182.052,2.11334,13.6826,2.41,20,1086,5,
182.052,2.11334,13.681,2.41,20,1086,5,
182.052,2.11273,13.6826,2.41,20,1086,5,
182.052,2.11761,13.678,2.41,20,1086,5,
182.052,2.11761,13.6841,2.41,20,1086,5,
182.052,2.11731,13.681,2.41,20,1086,5,
182.052,2.11792,13.6795,2.41,20,1086,5,
182.052,2.11731,13.681,2.41,20,1086,5,
182.052,2.11761,13.681,2.41,20,1086,5,
182.052,2.11761,13.6826,2.41,20,1086,5,
182.052,2.11731,13.6795,2.41,20,1086,5,
182.052,2.11792,13.6826,2.41,20,1086,5,
182.052,2.11731,13.6749,2.41,20,1086,5,
182.052,2.11761,13.681,2.41,20,1086,5,
182.052,2.11731,13.6841,2.41,20,1086,5,
182.052,2.11731,13.681,2.41,20,1086,5,
182.053,2.12189,13.6826,2.41,20,1086,5,
182.053,2.1225,13.681,2.41,20,1086,5,
182.053,2.1228,13.6826,2.41,20,1086,5,
182.053,2.1225,13.681,2.41,20,1086,5,
182.053,2.1228,13.6765,2.41,20,1086,5,
182.053,2.12311,13.681,2.41,20,1086,5,
182.053,2.1225,13.6826,2.41,20,1086,5,
182.053,2.1228,13.681,2.41,20,1086,5,
182.053,2.12189,13.681,2.41,20,1086,5,
182.053,2.1228,13.681,2.41,20,1086,5,
182.053,2.1228,13.6795,2.41,20,1086,5,
182.053,2.1228,13.6826,2.41,20,1086,5,
182.053,2.1225,13.6826,2.41,20,1086,5,
182.053,2.1228,13.681,2.41,20,1086,5,
182.053,2.12311,13.6826,2.41,20,1086,5,
182.053,2.12219,13.681,2.41,20,1086,5,
182.053,2.12708,13.6841,2.41,20,1086,5,
182.053,2.12738,13.6841,2.41,20,1086,5,
182.053,2.12738,13.681,2.41,20,1086,5,
182.053,2.12738,13.6826,2.41,20,1086,5,
182.053,2.12738,13.681,2.41,20,1086,5,
182.053,2.12738,13.6795,2.41,20,1086,5,
182.053,2.12738,13.6841,2.41,20,1086,5,
182.053,2.12677,13.6841,2.41,20,1086,5,
182.053,2.12799,13.681,2.41,20,1086,5,
182.053,2.12738,13.6826,2.41,20,1086,5,
182.053,2.12769,13.681,2.41,20,1086,5,
182.053,2.12769,13.6856,2.41,20,1086,5,
182.053,2.12769,13.681,2.41,20,1086,5,
182.053,2.12738,13.681,2.41,20,1086,5,
182.054,2.12769,13.681,2.41,20,1086,5,
182.054,2.12769,13.678,2.41,20,1086,5,
182.054,2.12769,13.6826,2.41,20,1086,5,
182.054,2.12799,13.6826,2.41,20,1086,5,
182.054,2.12738,13.6841,2.41,20,1086,5,
182.054,2.1283,13.681,2.41,20,1086,5,
182.054,2.12738,13.681,2.41,20,1086,5,
182.054,2.12708,13.681,2.41,20,1086,5,
182.054,2.13074,13.6841,2.41,20,1086,5,
182.054,2.13287,13.6826,2.41,20,1086,5,
182.054,2.13196,13.681,2.41,20,1086,5,
182.054,2.13257,13.6704,2.41,20,1086,5,
182.054,2.13196,13.6704,2.41,20,1086,5,
182.054,2.13257,13.6688,2.41,20,1086,5,
182.054,2.13287,13.6688,2.41,20,1086,5,
182.054,2.13196,13.6704,2.41,20,1086,5,
182.054,2.13226,13.6704,2.41,20,1086,5,
182.054,2.13257,13.6704,2.41,20,1086,5,
182.054,2.13287,13.6688,2.41,20,1086,5,
182.054,2.13196,13.6673,2.41,20,1086,5,
182.054,2.13226,13.6673,2.41,20,1086,5,
182.054,2.13226,13.6688,2.41,20,1086,5,
182.054,2.13257,13.6688,2.41,20,1086,5,
182.054,2.13257,13.6673,2.41,20,1086,5,
182.054,2.13226,13.6734,2.41,20,1086,5,
182.054,2.13287,13.6688,2.41,20,1086,5,
182.054,2.13226,13.6673,2.41,20,1086,5,
182.054,2.13196,13.6704,2.41,20,1086,5,
182.054,2.13257,13.6688,2.41,20,1086,5,
182.054,2.13196,13.6704,2.41,20,1086,5,
182.054,2.13257,13.6719,2.41,20,1086,5,
182.055,2.13226,13.6704,2.41,20,1086,5,
182.055,2.13257,13.6688,2.41,20,1086,5,
182.055,2.13257,13.6688,2.41,20,1086,5,
182.055,2.13226,13.6734,2.41,20,1086,5,
182.055,2.13257,13.6704,2.41,20,1086,5,
182.055,2.13226,13.6704,2.41,20,1086,5,
182.055,2.13226,13.6704,2.41,20,1086,5,
182.055,2.13287,13.6688,2.41,20,1086,5,
182.055,2.13226,13.6688,2.41,20,1086,5,
182.055,2.13257,13.6688,2.41,20,1086,5,
182.055,2.13196,13.6688,2.41,20,1086,5,
182.055,2.13226,13.6642,2.41,20,1086,5,
182.055,2.13287,13.6704,2.41,20,1086,5,
182.055,2.13287,13.6704,2.41,20,1086,5,
182.055,2.13257,13.6688,2.41,20,1086,5,
182.055,2.13165,13.6658,2.41,20,1086,5,
182.055,2.13226,13.6704,2.41,20,1086,5,
182.055,2.13318,13.6704,2.41,20,1086,5,
182.055,2.13257,13.6688,2.41,0,1086,5,
182.055,2.13287,13.6704,2.41,0,1086,5,
182.055,2.13257,13.6704,2.41,0,1086,5,
182.055,2.13226,13.6688,2.41,0,1086,5,
182.055,2.13257,13.6673,2.41,0,1086,5,
182.055,2.13287,13.6719,2.41,0,1086,5,
182.055,2.13257,13.6688,2.41,0,1086,5,
182.055,2.13226,13.6704,2.41,0,1086,5,
182.055,2.13257,13.6704,2.41,0,1086,5,
182.055,2.13287,13.6658,2.41,0,1086,5,
182.055,2.13226,13.6688,2.41,0,1086,5,
182.055,2.13226,13.6704,2.41,0,1086,5,
182.056,2.13226,13.6704,2.41,0,1086,5,
182.056,2.13226,13.6704,2.41,0,1086,5,
182.056,2.13165,13.6719,2.41,0,1086,5,
182.056,2.13257,13.6627,2.41,0,1086,5,
182.056,2.13196,13.6566,2.41,0,1086,5,
182.056,2.13287,13.6581,2.41,0,1086,5,
182.056,2.13196,13.6627,2.41,0,1086,5,
182.056,2.13196,13.6581,2.41,0,1086,5,
182.056,2.13226,13.6551,2.41,0,1086,5,
182.056,2.13257,13.6551,2.41,0,1086,5,
182.056,2.13257,13.6536,2.41,0,1086,5,
182.056,2.13318,13.6536,2.41,0,1086,5,
182.056,2.13226,13.6551,2.41,0,1086,5,
182.056,2.13196,13.6566,2.41,0,1086,5,
182.056,2.13257,13.6566,2.41,0,1086,5,
182.056,2.13257,13.6551,2.41,0,1086,5,
182.056,2.13226,13.6597,2.41,0,1086,5,
182.056,2.13257,13.6627,2.41,0,1086,5,
182.056,2.13226,13.6566,2.41,0,1086,5,
182.056,2.13257,13.6566,2.41,0,1086,5,
182.056,2.12799,13.6536,2.41,3.99521,1086,5,
182.056,2.12738,13.6597,2.41,3.99521,1086,5,
182.056,2.12708,13.6551,2.41,3.99521,1086,5,
182.056,2.12769,13.6566,2.41,3.99521,1086,5,
182.056,2.12769,13.6551,2.41,3.99521,1086,5,
182.056,2.12769,13.6581,2.41,3.99521,1086,5,
182.056,2.12738,13.6581,2.41,3.99521,1086,5,
182.056,2.12738,13.6597,2.41,3.99521,1086,5,
182.056,2.12769,13.6581,2.41,3.99521,1086,5,
182.056,2.12738,13.6597,2.41,3.99521,1086,5,
182.057,2.12738,13.6566,2.41,3.99521,1086,5,
182.057,2.12738,13.6566,2.41,3.99521,1086,5,
182.057,2.12738,13.6551,2.41,3.99521,1086,5,
182.057,2.12799,13.6551,2.41,3.99521,1086,5,
182.057,2.12799,13.6551,2.41,3.99521,1086,5,
182.057,2.12738,13.6551,2.41,3.99521,1086,5,
182.057,2.12769,13.6551,2.41,3.99521,1086,5,
182.057,2.12769,13.6566,2.41,3.99521,1086,5,
182.057,2.12799,13.6566,2.41,3.99521,1086,5,
182.057,2.12799,13.6597,2.41,3.99521,1086,5,
182.057,2.12799,13.6551,2.41,3.99521,1086,5,
182.057,2.12799,13.6566,2.41,3.99521,1086,5,
182.057,2.12738,13.6566,2.41,3.99521,1086,5,
182.057,2.12769,13.6551,2.41,3.99521,1086,5,
182.057,2.12708,13.6551,2.41,3.99521,1086,5,
182.057,2.12738,13.6597,2.41,3.99521,1086,5,
182.057,2.12769,13.6566,2.41,3.99521,1086,5,
182.057,2.12769,13.6551,2.41,3.99521,1086,5,
182.057,2.12738,13.6581,2.41,3.99521,1086,5,
182.057,2.12769,13.6581,2.41,3.99521,1086,5,
182.057,2.12738,13.6551,2.41,3.99521,1086,5,
182.057,2.12738,13.6429,2.41,3.99521,1086,5,
182.057,2.12738,13.6444,2.41,3.99521,1086,5,
182.057,2.12799,13.6444,2.41,3.99521,1086,5,
182.057,2.12708,13.6429,2.41,3.99521,1086,5,
182.057,2.12799,13.6444,2.41,3.99521,1086,5,
182.057,2.12769,13.6444,2.41,3.99521,1086,5,
182.057,2.12219,13.6444,2.41,3.99521,1086,5,
182.057,2.1228,13.6444,2.41,3.99521,1086,5,
182.058,2.1225,13.6475,2.41,3.99521,1086,5,
182.058,2.1228,13.6429,2.41,3.99521,1086,5,
182.058,2.12311,13.6414,2.41,3.99521,1086,5,
182.058,2.1225,13.6475,2.41,3.99521,1086,5,
182.058,2.1228,13.6444,2.41,3.99521,1086,5,
182.058,2.1228,13.6414,2.41,3.99521,1086,5,
182.058,2.12311,13.6444,2.41,3.99521,1086,5,
182.058,2.1228,13.6444,2.41,3.99521,1086,5,
182.058,2.1228,13.6459,2.41,3.99521,1086,5,
182.058,2.12311,13.6398,2.41,3.99521,1086,5,
182.058,2.1228,13.6414,2.41,3.99521,1086,5,
182.058,2.1225,13.6444,2.41,3.99521,1086,5,
182.058,2.1225,13.6414,2.41,3.99521,1086,5,
182.058,2.12341,13.6429,2.41,3.99521,1086,5,
182.058,2.1228,13.6444,2.41,3.99521,1086,5,
182.058,2.12311,13.6444,2.41,3.99521,1086,5,
182.058,2.12311,13.6444,2.41,3.99521,1086,5,
182.058,2.12372,13.6414,2.41,3.99521,1086,5,
182.058,2.12311,13.6459,2.41,3.99521,1086,5,
182.058,2.12311,13.6444,2.41,3.99521,1086,5,
182.058,2.12341,13.6444,2.41,3.99521,1086,5,
182.058,2.1225,13.6444,2.41,3.99521,1086,5,
182.058,2.12311,13.6429,2.41,3.99521,1086,5,
182.058,2.12219,13.6459,2.41,3.99521,1086,5,
182.058,2.1225,13.6475,2.41,3.99521,1086,5,
182.058,2.12311,13.6475,2.41,3.99521,1086,5,
182.058,2.1228,13.6429,2.41,3.99521,1086,5,
182.058,2.1225,13.6414,2.41,3.99521,1086,5,
182.058,2.1228,13.6444,2.41,3.99521,1086,5,
182.058,2.12189,13.6444,2.41,3.99521,1086,5,
182.059,2.12311,13.6444,2.41,3.99521,1086,5,
182.059,2.12341,13.6444,2.41,3.99521,1086,5,
182.059,2.1228,13.6444,2.41,3.99521,1086,5,
182.059,2.12219,13.6429,2.41,3.99521,1086,5,
182.059,2.12219,13.6444,2.41,3.99521,1086,5,
182.059,2.11792,13.6459,2.41,3.99521,1086,5,
182.059,2.11731,13.6459,2.41,3.99521,1086,5,
182.059,2.11761,13.6322,2.41,3.99521,1086,5,
182.059,2.11792,13.6322,2.41,3.99521,1086,5,
182.059,2.11792,13.6322,2.41,3.99521,1086,5,
182.059,2.11731,13.6322,2.41,3.99521,1086,5,
182.059,2.117,13.6292,2.41,3.99521,1086,5,
182.059,2.11823,13.6322,2.41,3.99521,1086,5,
182.059,2.11792,13.6292,2.41,3.99521,1086,5,
182.059,2.11792,13.6307,2.41,3.99521,1086,5,
182.059,2.11792,13.6292,2.41,3.99521,1086,5,
182.059,2.11731,13.6337,2.41,3.99521,1086,5,
182.059,2.1167,13.6353,2.41,3.99521,1086,5,
182.059,2.11823,13.6307,2.41,3.99521,1086,5,
182.059,2.11792,13.6322,2.41,3.99521,1086,5,
182.059,2.11761,13.6322,2.41,3.99521,1086,5,
182.059,2.11761,13.6307,2.41,3.99521,1086,5,
182.059,2.11761,13.6322,2.41,3.99521,1086,5,
182.059,2.11792,13.6307,2.41,3.99521,1086,5,
182.059,2.11823,13.6307,2.41,3.99521,1086,5,
182.059,2.11731,13.6337,2.41,3.99521,1086,5,
182.059,2.11792,13.6353,2.41,3.99521,1086,5,
182.059,2.11761,13.6337,2.41,3.99521,1086,5,
182.059,2.117,13.6353,2.41,3.99521,1086,5,
182.059,2.11761,13.6322,2.41,3.99521,1086,5,
182.06,2.11761,13.6337,2.41,3.99521,1086,5,
182.06,2.11823,13.6322,2.41,3.99521,1086,5,
182.06,2.11761,13.6307,2.41,3.99521,1086,5,
182.06,2.11792,13.6276,2.41,3.99521,1086,5,
182.06,2.11761,13.6322,2.41,3.99521,1086,5,
182.06,2.11761,13.6337,2.41,3.99521,1086,5,
182.06,2.11731,13.6337,2.41,3.99521,1086,5,
182.06,2.11761,13.6337,2.41,3.99521,1086,5,
182.06,2.11731,13.6322,2.41,3.99521,1086,5,
182.06,2.11823,13.6292,2.41,3.99521,1086,5,
182.06,2.11731,13.6322,2.41,3.99521,1086,5,
182.06,2.117,13.6307,2.41,3.99521,1086,5,
182.06,2.11761,13.6322,2.41,3.99521,1086,5,
182.06,2.11761,13.6292,2.41,3.99521,1086,5,
182.06,2.11731,13.6322,2.41,3.99521,1086,5,
182.06,2.11792,13.6292,2.41,3.99521,1086,5,
182.06,2.117,13.6307,2.41,3.99521,1086,5,
182.06,2.11761,13.6307,2.41,3.99521,1086,5,
182.06,2.11823,13.6292,2.41,3.99521,1086,5,
182.06,2.11761,13.6215,2.41,3.99521,1086,5,
182.06,2.11823,13.6215,2.41,3.99521,1086,5,
182.06,2.11792,13.62,2.41,3.99521,1086,5,
182.06,2.11914,13.6185,2.41,3.99521,1086,5,
182.06,2.11731,13.62,2.41,3.99521,1086,5,
182.06,2.11884,13.6215,2.41,3.99521,1086,5,
182.06,2.11823,13.6215,2.41,3.99521,1086,5,
182.06,2.11853,13.62,2.41,3.99521,1086,5,
182.06,2.11823,13.6185,2.41,3.99521,1086,5,
182.06,2.11792,13.62,2.41,3.99521,1086,5,
182.06,2.11792,13.62,2.41,3.99521,1086,5,
182.06,2.11792,13.6185,2.41,3.99521,1086,5,
182.061,2.11761,13.6215,2.41,3.99521,1086,5,
182.061,2.11792,13.6215,2.41,3.99521,1086,5,
182.061,2.11823,13.62,2.41,3.99521,1086,5,
182.061,2.11761,13.6215,2.41,3.99521,1086,5,
182.061,2.11761,13.6169,2.41,3.99521,1086,5,
182.061,2.11731,13.62,2.41,3.99521,1086,5,
182.061,2.11731,13.6169,2.41,3.99521,1086,5,
182.061,2.11731,13.6215,2.41,3.99521,1086,5,
182.061,2.117,13.62,2.41,3.99521,1086,5,
182.061,2.11792,13.62,2.41,3.99521,1086,5,
182.061,2.11731,13.623,2.41,3.99521,1086,5,
182.061,2.11761,13.6169,2.41,3.99521,1086,5,
182.061,2.11731,13.62,2.41,3.99521,1086,5,
182.061,2.11731,13.6215,2.41,3.99521,1086,5,
182.061,2.11761,13.6215,2.41,3.99521,1086,5,
182.061,2.11761,13.6215,2.41,3.99521,1086,5,
182.061,2.11823,13.6185,2.41,3.99521,1086,5,
182.061,2.11761,13.6185,2.41,3.99521,1086,5,
182.061,2.12158,13.6185,2.41,3.99521,1086,5,
182.061,2.12311,13.62,2.41,3.99521,1086,5,
182.061,2.12219,13.62,2.41,3.99521,1086,5,
182.061,2.12219,13.62,2.41,3.99521,1086,5,
182.061,2.1225,13.6185,2.41,3.99521,1086,5,
182.061,2.12189,13.6185,2.41,3.99521,1086,5,
182.061,2.1225,13.6215,2.41,3.99521,1086,5,
182.061,2.12219,13.62,2.41,3.99521,1086,5,
182.061,2.1228,13.6215,2.41,3.99521,1086,5,
182.061,2.1228,13.6185,2.41,3.99521,1086,5,
182.061,2.1225,13.6215,2.41,3.99521,1086,5,
182.061,2.1225,13.6185,2.41,3.99521,1086,5,
182.062,2.1228,13.6063,2.41,3.99521,1086,5,
182.062,2.1228,13.6047,2.41,3.99521,1086,5,
182.062,2.12311,13.6047,2.41,3.99521,1086,5,
182.062,2.1225,13.6078,2.41,3.99521,1086,5,
182.062,2.1225,13.6047,2.41,3.99521,1086,5,
182.062,2.12372,13.6063,2.41,3.99521,1086,5,
182.062,2.12738,13.6093,2.41,3.99521,1086,5,
182.062,2.12799,13.6047,2.41,3.99521,1086,5,
182.062,2.12677,13.6108,2.41,3.99521,1086,5,
182.062,2.12708,13.6047,2.41,3.99521,1086,5,
182.062,2.12799,13.6063,2.41,3.99521,1086,5,
182.062,2.12769,13.6063,2.41,3.99521,1086,5,
182.062,2.12708,13.6063,2.41,3.99521,1086,5,
182.062,2.12738,13.6063,2.41,3.99521,1086,5,
182.062,2.12799,13.6093,2.41,3.99521,1086,5,
182.062,2.12769,13.6063,2.41,3.99521,1086,5,
182.062,2.1283,13.6093,2.41,3.99521,1086,5,
182.062,2.13226,13.6093,2.41,3.99521,1086,5,
182.062,2.13226,13.6093,2.41,3.99521,1086,5,
182.062,2.13287,13.6063,2.41,3.99521,1086,5,
182.062,2.13196,13.6063,2.41,3.99521,1086,5,
182.062,2.13257,13.6093,2.41,3.99521,1086,5,
182.062,2.13287,13.6078,2.41,3.99521,1086,5,
182.062,2.13196,13.6078,2.41,3.99521,1086,5,
182.062,2.13226,13.6063,2.41,3.99521,1086,5,
182.062,2.13379,13.6093,2.41,3.99521,1086,5,
182.062,2.13745,13.6078,2.41,3.99521,1086,5,
182.062,2.13776,13.6078,2.41,3.99521,1086,5,
182.062,2.13776,13.6063,2.41,3.99521,1086,5,
182.062,2.13806,13.6093,2.41,3.99521,1086,5,
182.063,2.13684,13.6093,2.41,3.99521,1086,5,
182.063,2.13715,13.6093,2.41,3.99521,1086,5,
182.063,2.13715,13.6108,2.41,3.99521,1086,5,
182.063,2.14142,13.6063,2.41,3.99521,1086,5,
182.063,2.14264,13.6093,2.41,3.99521,1086,5,
182.063,2.14203,13.6047,2.41,3.99521,1086,5,
182.063,2.14233,13.6078,2.41,3.99521,1086,5,
182.063,2.14203,13.6108,2.41,3.99521,1086,5,
182.063,2.14203,13.6093,2.41,3.99521,1086,5,
182.063,2.14172,13.6093,2.41,3.99521,1086,5,
182.063,2.14294,13.6093,2.41,3.99521,1086,5,
182.063,2.14752,13.6093,2.41,3.99521,1086,5,
182.063,2.14691,13.5941,2.41,3.99521,1086,5,
182.063,2.14691,13.5956,2.41,3.99521,1086,5,
182.063,2.14752,13.5956,2.41,3.99521,1086,5,
182.063,2.14752,13.5986,2.41,3.99521,1086,5,
182.063,2.14752,13.5941,2.41,3.99521,1086,5,
182.063,2.15088,13.5941,2.41,3.99521,1086,5,
182.063,2.1521,13.5956,2.41,3.99521,1086,5,
182.063,2.1524,13.6002,2.41,3.99521,1086,5,
182.063,2.1524,13.591,2.41,3.99521,1086,5,
182.063,2.1524,13.5925,2.41,3.99521,1086,5,
182.063,2.1524,13.5971,2.41,3.99521,1086,5,
182.063,2.15363,13.5971,2.41,3.99521,1086,5,
182.063,2.15698,13.5925,2.41,3.99521,1086,5,
182.063,2.15698,13.5956,2.41,3.99521,1086,5,
182.063,2.15637,13.5956,2.41,3.99521,1086,5,
182.063,2.15668,13.5925,2.41,3.99521,1086,5,
182.063,2.15729,13.5986,2.41,3.99521,1086,5,
182.064,2.1579,13.5971,2.41,3.99521,1086,5,
182.064,2.16156,13.5956,2.41,3.99521,1086,5,
182.064,2.16248,13.5986,2.41,3.99521,1086,5,
182.064,2.16187,13.5956,2.41,3.99521,1086,5,
182.064,2.16217,13.5971,2.41,3.99521,1086,5,
182.064,2.16187,13.5941,2.41,3.99521,1086,5,
182.064,2.16217,13.5971,2.41,3.99521,1086,5,
182.064,2.16705,13.5971,2.41,3.99521,1086,5,
182.064,2.16675,13.5971,2.41,3.99521,1086,5,
182.064,2.16766,13.5941,2.41,3.99521,1086,5,
182.064,2.16644,13.5941,2.41,3.99521,1086,5,
182.064,2.16705,13.5971,2.41,3.99521,1086,5,
182.064,2.16736,13.5956,2.41,3.99521,1086,5,
182.064,2.17163,13.5956,2.41,3.99521,1086,5,
182.064,2.17194,13.5971,2.41,3.99521,1086,5,
182.064,2.17224,13.5956,2.41,3.99521,1086,5,
182.064,2.17163,13.5941,2.41,3.99521,1086,5,
182.064,2.17133,13.5971,2.41,3.99521,1086,5,
182.064,2.17316,13.5971,2.41,3.99521,1086,5,
182.064,2.17682,13.5956,2.41,3.99521,1086,5,
182.064,2.17743,13.591,2.41,3.99521,1086,5,
182.064,2.17682,13.5956,2.41,3.99521,1086,5,
182.064,2.17712,13.5941,2.41,3.99521,1086,5,
182.064,2.17651,13.5864,2.41,3.99521,1086,5,
182.064,2.18048,13.5818,2.41,3.99521,1086,5,
182.064,2.1817,13.5818,2.41,3.99521,1086,5,
182.064,2.18201,13.5864,2.41,3.99521,1086,5,
182.064,2.18201,13.5834,2.41,3.99521,1086,5,
182.064,2.18109,13.5834,2.41,3.99521,1086,5,
182.064,2.18201,13.5818,2.41,3.99521,1086,5,
182.065,2.18567,13.5849,2.41,3.99521,1086,5,
182.065,2.18628,13.5864,2.41,3.99521,1086,5,
182.065,2.18567,13.5864,2.41,3.99521,1086,5,
182.065,2.18597,13.5803,2.41,3.99521,1086,5,
182.065,2.18628,13.5818,2.41,3.99521,1086,5,
182.065,2.19025,13.5818,2.41,3.99521,1086,5,
182.065,2.19116,13.5834,2.41,3.99521,1086,5,
182.065,2.19086,13.5864,2.41,3.99521,1086,5,
182.065,2.19116,13.5834,2.41,3.99521,1086,5,
182.065,2.19116,13.5834,2.41,3.99521,1086,5,
182.065,2.19147,13.5818,2.41,3.99521,1086,5,
182.065,2.19543,13.5834,2.41,3.99521,1086,5,
182.065,2.19574,13.5864,2.41,3.99521,1086,5,
182.065,2.19666,13.5849,2.41,3.99521,1086,5,
182.065,2.19604,13.5834,2.41,3.99521,1086,5,
182.065,2.19604,13.5834,2.41,3.99521,1086,5,
182.065,2.20001,13.5849,2.41,3.99521,1086,5,
182.065,2.20093,13.5864,2.41,3.99521,1086,5,
182.065,2.20154,13.5818,2.41,3.99521,1086,5,
182.065,2.20154,13.5849,2.41,3.99521,1086,5,
182.065,2.20123,13.5864,2.41,3.99521,1086,5,
182.065,2.20245,13.5864,2.41,3.99521,1086,5,
182.065,2.20551,13.5803,2.41,3.99521,1086,5,
182.065,2.20642,13.5834,2.41,3.99521,1086,5,
182.065,2.20581,13.5834,2.41,3.99521,1086,5,
182.065,2.20612,13.5834,2.41,3.99521,1086,5,
182.065,2.20581,13.5788,2.41,3.99521,1086,5,
182.065,2.21069,13.5818,2.41,3.99521,1086,5,
182.065,2.21069,13.5834,2.41,3.99521,1086,5,
182.065,2.211,13.5834,2.41,3.99521,1086,5,
182.065,2.2113,13.588,2.41,3.99521,1086,5,
182.066,2.211,13.5849,2.41,3.99521,1086,5,
182.066,2.21527,13.5788,2.41,3.99521,1086,5,
182.066,2.21527,13.5712,2.41,3.99521,1086,5,
182.066,2.21588,13.5681,2.41,3.99521,1086,5,
182.066,2.21527,13.5712,2.41,3.99521,1086,5,
182.066,2.21558,13.5712,2.41,3.99521,1086,5,
182.066,2.22046,13.5696,2.41,3.99521,1086,5,
182.066,2.22046,13.5681,2.41,3.99521,1086,5,
182.066,2.21985,13.5712,2.41,3.99521,1086,5,
182.066,2.22046,13.5727,2.41,3.99521,1086,5,
182.066,2.22107,13.5773,2.41,3.99521,1086,5,
182.066,2.22504,13.5727,2.41,3.99521,1086,5,
182.066,2.22534,13.5712,2.41,3.99521,1086,5,
182.066,2.22565,13.5696,2.41,3.99521,1086,5,
182.066,2.22534,13.5727,2.41,3.99521,1086,5,
182.066,2.2287,13.5696,2.41,3.99521,1086,5,
182.066,2.23053,13.5666,2.41,3.99521,1086,5,
182.066,2.23053,13.5712,2.41,3.99521,1086,5,
182.066,2.23053,13.5742,2.41,3.99521,1086,5,
182.066,2.23022,13.5742,2.41,3.99521,1086,5,
182.066,2.23419,13.5681,2.41,3.99521,1086,5,
182.066,2.2345,13.5727,2.41,3.99521,1086,5,
182.066,2.2345,13.5696,2.41,3.99521,1086,5,
182.066,2.2345,13.5727,2.41,3.99521,1086,5,
182.066,2.23663,13.5696,2.41,3.99521,1086,5,
182.066,2.23999,13.5712,2.41,3.99521,1086,5,
182.066,2.23969,13.5727,2.41,3.99521,1086,5,
182.066,2.23969,13.5712,2.41,3.99521,1086,5,
182.066,2.23969,13.5712,2.41,3.99521,1086,5,
182.066,2.24426,13.5712,2.41,3.99521,1086,5,
182.067,2.24548,13.5712,2.41,3.99521,1086,5,
182.067,2.24487,13.5696,2.41,3.99521,1086,5,
182.067,2.24487,13.5696,2.41,3.99521,1086,5,
182.067,2.24609,13.5681,2.41,3.99521,1086,5,
182.067,2.25006,13.5727,2.41,3.99521,1086,5,
182.067,2.24915,13.5681,2.41,3.99521,1086,5,
182.067,2.24976,13.5696,2.41,3.99521,1086,5,
182.067,2.24945,13.5727,2.41,3.99521,1086,5,
182.067,2.25464,13.5696,2.41,3.99521,1086,5,
182.067,2.25494,13.5712,2.41,3.99521,1086,5,
182.067,2.25555,13.5757,2.41,3.99521,1086,5,
182.067,2.25464,13.559,2.41,3.99521,1086,5,
182.067,2.25861,13.5651,2.41,3.99521,1086,5,
182.067,2.26044,13.5574,2.41,3.99521,1086,5,
182.067,2.26013,13.5605,2.41,3.99521,1086,5,
182.067,2.25983,13.559,2.41,3.99521,1086,5,
182.067,2.26105,13.559,2.41,3.99521,1086,5,
182.067,2.2641,13.559,2.41,3.99521,1086,5,
182.067,2.26471,13.559,2.41,3.99521,1086,5,
182.067,2.26471,13.562,2.41,3.99521,1086,5,
182.067,2.26532,13.5574,2.41,3.99521,1086,5,
182.067,2.26929,13.5574,2.41,3.99521,1086,5,
182.067,2.26898,13.5605,2.41,3.99521,1086,5,
182.067,2.26959,13.5605,2.41,3.99521,1086,5,
182.067,2.26959,13.5574,2.41,3.99521,1086,5,
182.067,2.27295,13.5574,2.41,3.99521,1086,5,
182.067,2.27356,13.5605,2.41,3.99521,1086,5,
182.067,2.27448,13.5574,2.41,3.99521,1086,5,
182.067,2.27386,13.5559,2.41,3.99521,1086,5,
182.067,2.2757,13.5605,2.41,3.99521,1086,5,
182.068,2.27905,13.559,2.41,3.99521,1086,5,
182.068,2.27966,13.5559,2.41,3.99521,1086,5,
182.068,2.27966,13.5574,2.41,3.99521,1086,5,
182.068,2.28027,13.559,2.41,3.99521,1086,5,
182.068,2.28394,13.5574,2.41,3.99521,1086,5,
182.068,2.28455,13.5574,2.41,3.99521,1086,5,
182.068,2.28424,13.5605,2.41,3.99521,1086,5,
182.068,2.28424,13.562,2.41,3.99521,1086,5,
182.068,2.28912,13.5574,2.41,3.99521,1086,5,
182.068,2.28851,13.5605,2.41,3.99521,1086,5,
182.068,2.28912,13.559,2.41,3.99521,1086,5,
182.068,2.28943,13.5559,2.41,3.99521,1086,5,
182.068,2.29431,13.559,2.41,3.99521,1086,5,
182.068,2.29462,13.559,2.41,3.99521,1086,5,
182.068,2.29462,13.559,2.41,3.99521,1086,5,
182.068,2.29431,13.5574,2.41,3.99521,1086,5,
182.068,2.29858,13.5574,2.41,3.99521,1086,5,
182.068,2.29919,13.559,2.41,3.99521,1086,5,
182.068,2.29889,13.5605,2.41,3.99521,1086,5,
182.068,2.29889,13.559,2.41,3.99521,1086,5,
182.068,2.30408,13.5529,2.41,3.99521,1086,5,
182.068,2.30377,13.5483,2.41,3.99521,1086,5,
182.068,2.30438,13.5468,2.41,3.99521,1086,5,
182.068,2.30347,13.5498,2.41,3.99521,1086,5,
182.068,2.30865,13.5468,2.41,3.99521,1086,5,
182.068,2.30835,13.5468,2.41,3.99521,1086,5,
182.068,2.30927,13.5468,2.41,3.99521,1086,5,
182.068,2.30865,13.5437,2.41,3.99521,1086,5,
182.068,2.31354,13.5468,2.41,3.99521,1086,5,
182.069,2.31445,13.5498,2.41,3.99521,1086,5,
182.069,2.31445,13.5498,2.41,3.99521,1086,5,
182.069,2.31384,13.5468,2.41,3.99521,1086,5,
182.069,2.31934,13.5452,2.41,3.99521,1086,5,
182.069,2.31934,13.5468,2.41,3.99521,1086,5,
182.069,2.31842,13.5468,2.41,3.99521,1086,5,
182.069,2.31995,13.5468,2.41,3.99521,1086,5,
182.069,2.32452,13.5468,2.41,3.99521,1086,5,
182.069,2.32361,13.5468,2.41,3.99521,1086,5,
182.069,2.32422,13.5452,2.41,3.99521,1086,5,
182.069,2.32849,13.5452,2.41,3.99521,1086,5,
182.069,2.32849,13.5483,2.41,3.99521,1086,5,
182.069,2.32819,13.5498,2.41,3.99521,1086,5,
182.069,2.3288,13.5468,2.41,3.99521,1086,5,
182.069,2.33337,13.5483,2.41,3.99521,1086,5,
182.069,2.33337,13.5483,2.41,3.99521,1086,5,
182.069,2.33368,13.5483,2.41,3.99521,1086,5,
182.069,2.33643,13.5468,2.41,3.99521,1086,5,
182.069,2.33887,13.5483,2.41,3.99521,1086,5,
182.069,2.33795,13.5483,2.41,3.99521,1086,5,
182.069,2.33856,13.5483,2.41,3.99521,1086,5,
182.069,2.34314,13.5452,2.41,3.99521,1086,5,
182.069,2.34283,13.5452,2.41,3.99521,1086,5,
182.069,2.34344,13.5452,2.41,3.99521,1086,5,
182.069,2.34772,13.5452,2.41,3.99521,1086,5,
182.069,2.34741,13.5483,2.41,3.99521,1086,5,
182.069,2.34741,13.5452,2.41,3.99521,1086,5,
182.069,2.35138,13.5452,2.41,3.99521,1086,5,
182.069,2.35291,13.5407,2.41,3.99521,1086,5,
182.069,2.35321,13.5345,2.41,3.99521,1086,5,
182.07,2.35382,13.5315,2.41,3.99521,1086,5,
182.07,2.35748,13.533,2.41,3.99521,1086,5,
182.07,2.35779,13.533,2.41,3.99521,1086,5,
182.07,2.3584,13.533,2.41,3.99521,1086,5,
182.07,2.36328,13.5345,2.41,3.99521,1086,5,
182.07,2.36267,13.5345,2.41,3.99521,1086,5,
182.07,2.36206,13.5345,2.41,3.99521,1086,5,
182.07,2.36725,13.533,2.41,3.99521,1086,5,
182.07,2.36664,13.5315,2.41,3.99521,1086,5,
182.07,2.36694,13.5345,2.41,3.99521,1086,5,
182.07,2.37183,13.533,2.41,3.99521,1086,5,
182.07,2.37274,13.5376,2.41,3.99521,1086,5,
182.07,2.37274,13.533,2.41,3.99521,1086,5,
182.07,2.37793,13.53,2.41,3.99521,1086,5,
182.07,2.37793,13.533,2.41,3.99521,1086,5,
182.07,2.37762,13.5345,2.41,3.99521,1086,5,
182.07,2.3819,13.533,2.41,3.99521,1086,5,
182.07,2.38281,13.5361,2.41,3.99521,1086,5,
182.07,2.38281,13.533,2.41,3.99521,1086,5,
182.07,2.38678,13.5345,2.41,3.99521,1086,5,
182.07,2.38678,13.533,2.41,3.99521,1086,5,
182.07,2.388,13.5376,2.41,3.99521,1086,5,
182.07,2.39227,13.53,2.41,3.99521,1086,5,
182.07,2.39258,13.533,2.41,3.99521,1086,5,
182.07,2.39563,13.5315,2.41,3.99521,1086,5,
182.07,2.39685,13.5345,2.41,3.99521,1086,5,
182.07,2.39685,13.5315,2.41,3.99521,1086,5,
182.07,2.40204,13.533,2.41,3.99521,1086,5,
182.07,2.40234,13.53,2.41,3.99521,1086,5,
182.07,2.40295,13.5345,2.41,3.99521,1086,5,
182.071,2.40723,13.5345,2.41,3.99521,1086,5,
182.071,2.40723,13.5361,2.41,3.99521,1086,5,
182.071,2.40784,13.533,2.41,3.99521,1086,5,
182.071,2.41211,13.5376,2.41,3.99521,1086,5,
182.071,2.41241,13.5345,2.41,3.99521,1086,5,
182.071,2.41669,13.5223,2.41,3.99521,1086,5,
182.071,2.41699,13.5208,2.41,3.99521,1086,5,
182.071,2.4173,13.5223,2.41,3.99521,1086,5,
182.071,2.42188,13.5223,2.41,3.99521,1086,5,
182.071,2.42126,13.5223,2.41,3.99521,1086,5,
182.071,2.42493,13.5193,2.41,3.99521,1086,5,
182.071,2.42615,13.5223,2.41,3.99521,1086,5,
182.071,2.42645,13.5178,2.41,3.99521,1086,5,
182.071,2.43164,13.5223,2.41,3.99521,1086,5,
182.071,2.43103,13.5223,2.41,3.99521,1086,5,
182.071,2.43469,13.5193,2.41,3.99521,1086,5,
182.071,2.43622,13.5254,2.41,3.99521,1086,5,
182.071,2.43652,13.5239,2.41,3.99521,1086,5,
182.071,2.44171,13.5254,2.41,3.99521,1086,5,
182.071,2.4411,13.5208,2.41,3.99521,1086,5,
182.071,2.44598,13.5208,2.41,3.99521,1086,5,
182.071,2.44659,13.5208,2.41,3.99521,1086,5,
182.071,2.44751,13.5223,2.41,3.99521,1086,5,
182.071,2.45117,13.5223,2.41,3.99521,1086,5,
182.071,2.45148,13.5239,2.41,3.99521,1086,5,
182.071,2.45575,13.5254,2.41,3.99521,1086,5,
182.071,2.45605,13.5223,2.41,3.99521,1086,5,
182.071,2.45972,13.5193,2.41,3.99521,1086,5,
182.071,2.46124,13.5239,2.41,3.99521,1086,5,
182.071,2.46216,13.5208,2.41,3.99521,1086,5,
182.071,2.46613,13.5208,2.41,3.99521,1086,5,
182.072,2.46582,13.5223,2.41,3.99521,1086,5,
182.072,2.4704,13.5223,2.41,3.99521,1086,5,
182.072,2.47131,13.5223,2.41,3.99521,1086,5,
182.072,2.47559,13.5239,2.41,3.99521,1086,5,
182.072,2.47559,13.5223,2.41,3.99521,1086,5,
182.072,2.47894,13.5208,2.41,3.99521,1086,5,
182.072,2.48108,13.5254,2.41,3.99521,1086,5,
182.072,2.48413,13.5208,2.41,3.99521,1086,5,
182.072,2.48535,13.5223,2.41,3.99521,1086,5,
182.072,2.48627,13.5239,2.41,3.99521,1086,5,
182.072,2.49023,13.5223,2.41,3.99521,1086,5,
182.072,2.49115,13.5117,2.41,3.99521,1086,5,
182.072,2.49451,13.5101,2.41,3.99521,1086,5,
182.072,2.49573,13.5117,2.41,3.99521,1086,5,
182.072,2.5,13.5086,2.41,3.99521,1086,5,
182.072,2.49969,13.5132,2.41,3.99521,1086,5,
182.072,2.50427,13.5086,2.41,3.99521,1086,5,
182.072,2.50519,13.5101,2.41,3.99521,1086,5,
182.072,2.51007,13.5086,2.41,3.99521,1086,5,
182.072,2.50916,13.5101,2.41,3.99521,1086,5,
182.072,2.51312,13.5101,0,3.99521,1086,5,
182.072,2.51495,13.5117,0,3.99521,1086,5,
182.072,2.5177,13.5117,0,3.99521,1086,5,
182.072,2.52014,13.5056,0,3.99521,1086,5,
182.072,2.52289,13.5086,0,3.99521,1086,5,
182.072,2.52441,13.5056,0,3.99521,1086,5,
182.072,2.52838,13.5101,0,3.99521,1086,5,
182.072,2.5293,13.5086,0,3.99521,1086,5,
182.072,2.52991,13.5086,0,3.99521,1086,5,
182.072,2.53479,13.5101,0,3.99521,1086,5,
182.073,2.53571,13.5086,0,3.99521,1086,5,
182.073,2.53906,13.5056,0,3.99521,1086,5,
182.073,2.53937,13.5086,0,3.99521,1086,5,
182.073,2.54425,13.5086,0,3.99521,1086,5,
182.073,2.54547,13.5101,0,3.99521,1086,5,
182.073,2.54913,13.5056,0,3.99521,1086,5,
182.073,2.54974,13.5071,0,3.99521,1086,5,
182.073,2.55432,13.5117,0,3.99521,1086,5,
182.073,2.55554,13.5086,0,3.99521,1086,5,
182.073,2.55951,13.5086,0,3.99521,1086,5,
182.073,2.56012,13.5086,0,3.99521,1086,5,
182.073,2.56439,13.5101,0,3.99521,1086,5,
182.073,2.565,13.5086,0,3.99521,1086,5,
182.073,2.56958,13.5086,0,3.99521,1086,5,
182.073,2.57019,13.5101,0,3.99521,1086,5,
182.073,2.57416,13.5086,0,3.99521,1086,5,
182.073,2.57782,13.5071,0,3.99521,1086,5,
182.073,2.57812,13.5101,0,3.99521,1086,5,
182.073,2.58118,13.504,0,3.99521,1086,5,
182.073,2.58331,13.4995,0,3.99521,1086,5,
182.073,2.58728,13.4995,0,3.99521,1086,5,
182.073,2.58911,13.4979,0,3.99521,1086,5,
182.073,2.59186,13.4949,0,3.99521,1086,5,
182.073,2.59369,13.4964,0,3.99521,1086,5,
182.073,2.59613,13.4979,0,3.99521,1086,5,
182.073,2.59827,13.4964,0,3.99521,1086,5,
182.073,2.60193,13.4949,0,3.99521,1086,5,
182.073,2.60284,13.4979,0,3.99521,1086,5,
182.073,2.60742,13.4979,0,3.99521,1086,5,
182.073,2.60803,13.4964,0,3.99521,1086,5,
182.074,2.6123,13.4979,0,3.99521,1086,5,
182.074,2.6123,13.4964,0,3.99521,1086,5,
182.074,2.61719,13.4979,0,3.99521,1086,5,
182.074,2.61719,13.4979,0,3.99521,1086,5,
182.074,2.62238,13.4995,0,3.99521,1086,5,
182.074,2.62238,13.4979,0,3.99521,1086,5,
182.074,2.62756,13.4964,0,3.99521,1086,5,
182.074,2.62695,13.4995,0,3.99521,1086,5,
182.074,2.63245,13.4995,0,3.99521,1086,5,
182.074,2.63306,13.4949,0,3.99521,1086,5,
182.074,2.63733,13.4979,0,3.99521,1086,5,
182.074,2.63824,13.501,0,3.99521,1086,5,
182.074,2.6416,13.4964,0,3.99521,1086,5,
182.074,2.64221,13.4979,0,3.99521,1086,5,
182.074,2.6474,13.4995,0,3.99521,1086,5,
182.074,2.6474,13.4964,0,3.99521,1086,5,
182.074,2.65228,13.4964,0,3.99521,1086,5,
182.074,2.65259,13.4979,0,3.99521,1086,5,
182.074,2.65686,13.4949,0,3.99521,1086,5,
182.074,2.66022,13.4964,0,3.99521,1086,5,
182.074,2.66174,13.4995,0,3.99521,1086,5,
182.074,2.66602,13.4979,0,3.99521,1086,5,
182.074,2.66602,13.4964,0,3.99521,1086,5,
182.074,2.66937,13.4995,0,3.99521,1086,5,
182.074,2.6709,13.4964,0,3.99521,1086,5,
182.074,2.67487,13.4949,0,3.99521,1086,5,
182.074,2.67609,13.4933,0,3.99521,1086,5,
182.074,2.67914,13.4842,0,3.99521,1086,5,
182.074,2.68097,13.4842,0,3.99521,1086,5,
182.075,2.68463,13.4827,0,3.99521,1086,5,
182.075,2.68646,13.4842,0,3.99521,1086,5,
182.075,2.69104,13.4842,0,3.99521,1086,5,
182.075,2.69135,13.4857,0,3.99521,1086,5,
182.075,2.69592,13.4827,0,3.99521,1086,5,
182.075,2.69592,13.4827,0,3.99521,1086,5,
182.075,2.70081,13.4842,0,3.99521,1086,5,
182.075,2.7002,13.4857,0,3.99521,1086,5,
182.075,2.70508,13.4827,0,3.99521,1086,5,
182.075,2.70538,13.4842,0,3.99521,1086,5,
182.075,2.71088,13.4827,0,3.99521,1086,5,
182.075,2.71027,13.4842,0,3.99521,1086,5,
182.075,2.71545,13.4842,0,3.99521,1086,5,
182.075,2.71698,13.4842,0,3.99521,1086,5,
182.075,2.72034,13.4857,0,3.99521,1086,5,
182.075,2.72369,13.4827,0,3.99521,1086,5,
182.075,2.72522,13.4857,0,3.99521,1086,5,
182.075,2.72888,13.4872,0,3.99521,1086,5,
182.075,2.73041,13.4842,0,3.99521,1086,5,
182.075,2.73468,13.4827,0,3.99521,1086,5,
182.075,2.73468,13.4827,0,3.99521,1086,5,
182.075,2.73956,13.4857,0,3.99521,1086,5,
182.075,2.74139,13.4857,0,3.99521,1086,5,
182.075,2.74506,13.4827,0,3.99521,1086,5,
182.075,2.74902,13.4842,0,3.99521,1086,5,
182.075,2.74994,13.4857,0,3.99521,1086,5,
182.075,2.7533,13.4857,0,3.99521,1086,5,
182.075,2.75482,13.4857,0,3.99521,1086,5,
182.075,2.7594,13.4811,0,3.99521,1086,5,
182.075,2.7597,13.4842,0,3.99521,1086,5,
182.076,2.76459,13.4842,0,3.99521,1086,5,
182.076,2.76489,13.4842,0,3.99521,1086,5,
182.076,2.76917,13.4842,0,3.99521,1086,5,
182.076,2.77283,13.4842,0,3.99521,1086,5,
182.076,2.77405,13.4766,0,3.99521,1086,5,
182.076,2.77924,13.472,0,3.99521,1086,5,
182.076,2.77954,13.4705,0,3.99521,1086,5,
182.076,2.78412,13.472,0,3.99521,1086,5,
182.076,2.78503,13.472,0,3.99521,1086,5,
182.076,2.789,13.4705,0,3.99521,1086,5,
182.076,2.79205,13.4735,0,3.99521,1086,5,
182.076,2.79388,13.4689,0,3.99521,1086,5,
182.076,2.79907,13.4735,0,3.99521,1086,5,
182.076,2.79938,13.4735,0,3.99521,1086,5,
182.076,2.80396,13.4705,0,3.99521,1086,5,
182.076,2.80457,13.4705,0,3.99521,1086,5,
182.076,2.80914,13.472,0,3.99521,1086,5,
182.076,2.81189,13.4705,0,3.99521,1086,5,
182.076,2.81433,13.472,0,3.99521,1086,5,
182.076,2.8186,13.472,0,3.99521,1086,5,
182.076,2.8183,13.472,0,3.99521,1086,5,
182.076,2.82318,13.4735,0,3.99521,1086,5,
182.076,2.82379,13.4735,0,3.99521,1086,5,
182.076,2.82776,13.475,0,3.99521,1086,5,
182.076,2.82867,13.4735,0,3.99521,1086,5,
182.076,2.83325,13.4735,0,3.99521,1086,5,
182.076,2.83691,13.4735,0,3.99521,1086,5,
182.076,2.83783,13.4705,0,3.99521,1086,5,
182.076,2.84271,13.475,0,3.99521,1086,5,
182.076,2.84363,13.472,0,3.99521,1086,5,
182.077,2.8476,13.4766,0,3.99521,1086,5,
182.077,2.8479,13.4705,0,3.99521,1086,5,
182.077,2.85248,13.4705,0,3.99521,1086,5,
182.077,2.85339,13.472,0,3.99521,1086,5,
182.077,2.85797,13.475,0,3.99521,1086,5,
182.077,2.85767,13.4735,0,3.99521,1086,5,
182.077,2.86194,13.472,0,3.99521,1086,5,
182.077,2.86652,13.4705,0,3.99521,1086,5,
182.077,2.86774,13.475,0,3.99521,1086,5,
182.077,2.87048,13.472,0,3.99521,1086,5,
182.077,2.87201,13.4735,0,3.99521,1086,5,
182.077,2.87781,13.4689,0,3.99521,1086,5,
182.077,2.8775,13.4735,0,3.99521,1086,5,
182.077,2.88208,13.4628,0,3.99521,1086,5,
182.077,2.88269,13.4613,0,3.99521,1086,5,
182.077,2.88727,13.4613,0,3.99521,1086,5,
182.077,2.88696,13.4613,0,3.99521,1086,5,
182.077,2.89215,13.4628,0,3.99521,1086,5,
182.077,2.89246,13.4628,0,3.99521,1086,5,
182.077,2.89703,13.4613,0,3.99521,1086,5,
182.077,2.89703,13.4613,0,3.99521,1086,5,
182.077,2.90192,13.4613,0,3.99521,1086,5,
182.077,2.9007,13.4613,0,3.99521,1086,5,
182.077,2.90649,13.4613,0,3.99521,1086,5,
182.077,2.9068,13.4598,0,3.99521,1086,5,
182.077,2.91168,13.4613,0,3.99521,1086,5,
182.077,2.91168,13.4613,0,3.99521,1086,5,
182.077,2.91595,13.4628,0,3.99521,1086,5,
182.077,2.91656,13.4583,0,3.99521,1086,5,
182.077,2.92114,13.4567,0,3.99521,1086,5,
182.077,2.92175,13.4613,0,3.99521,1086,5,
182.078,2.92511,13.4644,0,3.99521,1086,5,
182.078,2.92694,13.4613,0,3.99521,1086,5,
182.078,2.92725,13.4583,0,3.99521,1086,5,
182.078,2.93091,13.4628,0,3.99521,1086,5,
182.078,2.93213,13.4628,0,3.99521,1086,5,
182.078,2.93549,13.4583,0,3.99521,1086,5,
182.078,2.9364,13.4598,0,3.99521,1086,5,
182.078,2.94098,13.4598,0,3.99521,1086,5,
182.078,2.94067,13.4598,0,3.99521,1086,5,
182.078,2.94556,13.4613,0,3.99521,1086,5,
182.078,2.94556,13.4567,0,3.99521,1086,5,
182.078,2.94647,13.4598,0,3.99521,1086,5,
182.078,2.95044,13.4567,0,3.99521,1086,5,
182.078,2.95074,13.4613,0,3.99521,1086,5,
182.078,2.95593,13.4598,0,3.99521,1086,5,
182.078,2.95593,13.4613,0,3.99521,1086,5,
182.078,2.9599,13.4598,0,3.99521,1086,5,
182.078,2.96021,13.4628,0,3.99521,1086,5,
182.078,2.96173,13.4598,0,3.99521,1086,5,
182.078,2.96509,13.4628,0,3.99521,1086,5,
182.078,2.9657,13.4613,0,3.99521,1086,5,
182.078,2.97028,13.4491,0,3.99521,1086,5,
182.078,2.97089,13.4476,0,3.99521,1086,5,
182.078,2.96967,13.4491,0,3.99521,1086,5,
182.078,2.97485,13.4521,0,3.99521,1086,5,
182.078,2.97516,13.446,0,3.99521,1086,5,
182.078,2.97882,13.4476,0,3.99521,1086,5,
182.078,2.98035,13.4491,0,3.99521,1086,5,
182.078,2.98004,13.4476,0,3.99521,1086,5,
182.078,2.98462,13.446,0,3.99521,1086,5,
182.079,2.98523,13.4491,0,3.99521,1086,5,
182.079,2.98553,13.446,0,3.99521,1086,5,
182.079,2.98981,13.446,0,3.99521,1086,5,
182.079,2.98981,13.4476,0,3.99521,1086,5,
182.079,2.99103,13.4491,0,3.99521,1086,5,
182.079,2.995,13.4506,0,3.99521,1086,5,
182.079,2.99469,13.4491,0,3.99521,1086,5,
182.079,2.9953,13.4506,0,3.99521,1086,5,
182.079,2.99988,13.4476,0,3.99521,1086,5,
182.079,2.99957,13.4506,0,3.99521,1086,5,
182.079,2.99988,13.4476,0,3.99521,1086,5,
182.079,3.00476,13.4491,0,3.99521,1086,5,
182.079,3.00476,13.4506,0,3.99521,1086,5,
182.079,3.00446,13.4476,0,3.99521,1086,5,
182.079,3.00995,13.4491,0,3.99521,1086,5,
182.079,3.00964,13.4476,0,3.99521,1086,5,
182.079,3.00934,13.4476,0,3.99521,1086,5,
182.079,3.0127,13.4476,0,3.99521,1086,5,
182.079,3.01422,13.4491,0,3.99521,1086,5,
182.079,3.01483,13.4476,0,3.99521,1086,5,
182.079,3.01422,13.446,0,3.99521,1086,5,
182.079,3.01971,13.4491,0,3.99521,1086,5,
182.079,3.01971,13.4491,0,3.99521,1086,5,
182.079,3.02063,13.446,0,3.99521,1086,5,
182.079,3.0188,13.4506,0,3.99521,1086,5,
182.079,3.02399,13.4476,0,3.99521,1086,5,
182.079,3.02429,13.4491,0,3.99521,1086,5,
182.079,3.02399,13.4476,0,3.99521,1086,5,
182.079,3.02399,13.4476,0,3.99521,1086,5,
182.079,3.02917,13.4491,0,3.99521,1086,5,
182.08,3.02917,13.4491,0,3.99521,1086,5,
182.08,3.02856,13.4369,0,3.99521,1086,5,
182.08,3.02917,13.4369,0,3.99521,1086,5,
182.08,3.03009,13.4354,2.48,3.99521,1086,5,
182.08,3.03406,13.4369,2.48,3.99521,1086,5,
182.08,3.03406,13.4369,2.48,3.99521,1086,5,
182.08,3.03375,13.4354,2.48,3.99521,1086,5,
182.08,3.03436,13.4369,2.48,3.99521,1086,5,
182.08,3.03406,13.4384,2.48,3.99521,1086,5,
182.08,3.03833,13.4338,2.48,3.99521,1086,5,
182.08,3.03894,13.4338,2.48,3.99521,1086,5,
182.08,3.03925,13.4369,2.48,3.99521,1086,5,
182.08,3.03864,13.4338,2.48,3.99521,1086,5,
182.08,3.03864,13.4369,2.48,3.99521,1086,5,
182.08,3.03864,13.4384,2.48,3.99521,1086,5,
182.08,3.04321,13.4369,2.48,3.99521,1086,5,
182.08,3.04413,13.4369,2.48,3.99521,1086,5,
182.08,3.04382,13.4354,2.48,3.99521,1086,5,
182.08,3.04321,13.4354,2.48,3.99521,1086,5,
182.08,3.04382,13.4323,2.48,3.99521,1086,5,
182.08,3.04382,13.4354,2.48,3.99521,1086,5,
182.08,3.04443,13.4369,2.48,3.99521,1086,5,
182.08,3.04382,13.4384,2.48,3.99521,1086,5,
182.08,3.04321,13.4369,2.48,3.99521,1086,5,
182.08,3.04352,13.4354,2.48,3.99521,1086,5,
182.08,3.0481,13.4354,2.48,3.99521,1086,5,
182.08,3.0484,13.4338,2.48,3.99521,1086,5,
182.08,3.04779,13.4384,2.48,3.99521,1086,5,
182.08,3.04932,13.4369,2.48,3.99521,1086,5,
182.081,3.0484,13.4338,2.48,3.99521,1086,5,
182.081,3.04871,13.4384,2.48,3.99521,1086,5,
182.081,3.04871,13.4354,2.48,3.99521,1086,5,
182.081,3.04932,13.4354,2.48,3.99521,1086,5,
182.081,3.04871,13.4369,2.48,3.99521,1086,5,
182.081,3.04871,13.4354,2.48,3.99521,1086,5,
182.081,3.04932,13.4354,2.48,3.99521,1086,5,
182.081,3.0484,13.4354,2.48,3.99521,1086,5,
182.081,3.0481,13.4369,2.48,3.99521,1086,5,
182.081,3.0484,13.4354,2.48,3.99521,1086,5,
182.081,3.0481,13.4369,2.48,3.99521,1086,5,
182.081,3.04871,13.4369,2.48,3.99521,1086,5,
182.081,3.0481,13.4293,2.48,3.99521,1086,5,
182.081,3.04871,13.4354,2.48,3.99521,1086,5,
182.081,3.0481,13.4338,2.48,3.99521,1086,5,
182.081,3.04901,13.4308,2.48,3.99521,1086,5,
182.081,3.0484,13.4262,2.48,3.99521,1086,5,
182.081,3.04901,13.4216,2.48,3.99521,1086,5,
182.081,3.0484,13.4277,2.48,3.99521,1086,5,
182.081,3.04871,13.4232,2.48,3.99521,1086,5,
182.081,3.04871,13.4232,2.48,3.99521,1086,5,
182.081,3.04871,13.4247,2.48,3.99521,1086,5,
182.081,3.04443,13.4216,2.48,3.99521,1086,5,
182.081,3.04382,13.4262,2.48,3.99521,1086,5,
182.081,3.04382,13.4232,2.48,3.99521,1086,5,
182.081,3.04443,13.4232,2.48,3.99521,1086,5,
182.081,3.04352,13.4232,2.48,3.99521,1086,5,
182.081,3.04443,13.4232,2.48,3.99521,1086,5,
182.081,3.04382,13.4277,2.48,3.99521,1086,5,
182.081,3.04382,13.4232,2.48,3.99521,1086,5,
182.082,3.04382,13.4232,2.48,3.99521,1086,5,
182.082,3.04382,13.4262,2.48,3.99521,1086,5,
182.082,3.04382,13.4262,2.48,3.99521,1086,5,
182.082,3.04321,13.4216,2.48,3.99521,1086,5,
182.082,3.03925,13.4262,2.48,3.99521,1086,5,
182.082,3.03925,13.4262,2.48,3.99521,1086,5,
182.082,3.03925,13.4232,2.48,3.99521,1086,5,
182.082,3.03894,13.4262,2.48,3.99521,1086,5,
182.082,3.03894,13.4232,2.48,3.99521,1086,5,
182.082,3.03833,13.4216,2.48,3.99521,1086,5,
182.082,3.03925,13.4247,2.48,3.99521,1086,5,
182.082,3.03864,13.4216,2.48,3.99521,1086,5,
182.082,3.03497,13.4262,2.48,3.99521,1086,5,
182.082,3.03375,13.4262,2.48,3.99521,1086,5,
182.082,3.03375,13.4247,2.48,3.99521,1086,5,
182.082,3.03436,13.4247,2.48,3.99521,1086,5,
182.082,3.03436,13.4262,2.48,3.99521,1086,5,
182.082,3.03436,13.4247,2.48,3.99521,1086,5,
182.082,3.03406,13.4232,2.48,3.99521,1086,5,
182.082,3.02979,13.4247,2.48,3.99521,1086,5,
182.082,3.02856,13.4232,2.48,3.99521,1086,5,
182.082,3.02887,13.4232,2.48,3.99521,1086,5,
182.082,3.02887,13.4247,2.48,3.99521,1086,5,
182.082,3.02887,13.4262,2.48,3.99521,1086,5,
182.082,3.02887,13.4232,2.48,3.99521,1086,5,
182.082,3.02521,13.4201,2.48,3.99521,1086,5,
182.082,3.02429,13.4262,2.48,3.99521,1086,5,
182.082,3.02429,13.4247,2.48,3.99521,1086,5,
182.082,3.02399,13.4232,2.48,3.99521,1086,5,
182.082,3.02399,13.4232,2.48,3.99521,1086,5,
182.083,3.0246,13.4247,2.48,3.99521,1086,5,
182.083,3.01941,13.4216,2.48,3.99521,1086,5,
182.083,3.01941,13.4232,2.48,3.99521,1086,5,
182.083,3.01941,13.4247,2.48,3.99521,1086,5,
182.083,3.01971,13.4247,2.48,3.99521,1086,5,
182.083,3.01941,13.414,2.48,3.99521,1086,5,
182.083,3.01544,13.4125,2.48,3.99521,1086,5,
182.083,3.01422,13.4094,2.48,3.99521,1086,5,
182.083,3.01483,13.411,2.48,3.99521,1086,5,
182.083,3.01483,13.4125,2.48,3.99521,1086,5,
182.083,3.01422,13.4125,2.48,3.99521,1086,5,
182.083,3.01331,13.4155,2.48,3.99521,1086,5,
182.083,3.00903,13.4094,2.48,3.99521,1086,5,
182.083,3.00903,13.4125,2.48,3.99521,1086,5,
182.083,3.00903,13.4125,2.48,3.99521,1086,5,
182.083,3.00995,13.4094,2.48,3.99521,1086,5,
182.083,3.00598,13.4125,2.48,3.99521,1086,5,
182.083,3.00446,13.411,2.48,3.99521,1086,5,
182.083,3.00476,13.411,2.48,3.99521,1086,5,
182.083,3.00446,13.4125,2.48,3.99521,1086,5,
182.083,3.00476,13.4094,2.48,3.99521,1086,5,
182.083,2.99927,13.4094,2.48,3.99521,1086,5,
182.083,2.99957,13.4125,2.48,3.99521,1086,5,
182.083,2.99957,13.4155,2.48,3.99521,1086,5,
182.083,2.99927,13.414,2.48,3.99521,1086,5,
182.083,2.99652,13.4125,2.48,3.99521,1086,5,
182.083,2.99438,13.414,2.48,3.99521,1086,5,
182.083,2.99469,13.414,2.48,3.99521,1086,5,
182.083,2.99469,13.4125,2.48,3.99521,1086,5,
182.083,2.99408,13.4125,2.48,3.99521,1086,5,
182.083,2.99042,13.414,2.48,3.99521,1086,5,
182.084,2.99011,13.4125,2.48,3.99521,1086,5,
182.084,2.99042,13.4125,2.48,3.99521,1086,5,
182.084,2.99072,13.4125,2.48,3.99521,1086,5,
182.084,2.98523,13.4125,2.48,3.99521,1086,5,
182.084,2.98492,13.411,2.48,3.99521,1086,5,
182.084,2.98401,13.414,2.48,3.99521,1086,5,
182.084,2.98523,13.411,2.48,3.99521,1086,5,
182.084,2.98035,13.4125,2.48,3.99521,1086,5,
182.084,2.98035,13.4125,2.48,3.99521,1086,5,
182.084,2.98004,13.4064,2.48,3.99521,1086,5,
182.084,2.98035,13.4003,2.48,3.99521,1086,5,
182.084,2.97607,13.4003,2.48,3.99521,1086,5,
182.084,2.97577,13.3987,2.48,3.99521,1086,5,
182.084,2.97546,13.3987,2.48,3.99521,1086,5,
182.084,2.97546,13.3972,2.48,3.99521,1086,5,
182.084,2.97058,13.4003,2.48,3.99521,1086,5,
182.084,2.97028,13.4048,2.48,3.99521,1086,5,
182.084,2.97089,13.4003,2.48,3.99521,1086,5,
182.084,2.97089,13.3987,2.48,3.99521,1086,5,
182.084,2.96539,13.4003,2.48,3.99521,1086,5,
182.084,2.966,13.4018,2.48,3.99521,1086,5,
182.084,2.96539,13.4003,2.48,3.99521,1086,5,
182.084,2.96478,13.4018,2.48,3.99521,1086,5,
182.084,2.96082,13.3972,2.48,3.99521,1086,5,
182.084,2.96051,13.3972,2.48,3.99521,1086,5,
182.084,2.96082,13.3987,2.48,3.99521,1086,5,
182.084,2.9599,13.4018,2.48,3.99521,1086,5,
182.084,2.95563,13.4003,2.48,3.99521,1086,5,
182.084,2.95532,13.3987,2.48,3.99521,1086,5,
182.084,2.95593,13.4033,2.48,3.99521,1086,5,
182.085,2.95258,13.3987,2.48,3.99521,1086,5,
182.085,2.95105,13.3987,2.48,3.99521,1086,5,
182.085,2.95044,13.4033,2.48,3.99521,1086,5,
182.085,2.95105,13.4018,2.48,3.99521,1086,5,
182.085,2.94647,13.3987,2.48,3.99521,1086,5,
182.085,2.94586,13.3972,2.48,3.99521,1086,5,
182.085,2.94617,13.4018,2.48,3.99521,1086,5,
182.085,2.94617,13.3987,2.48,3.99521,1086,5,
182.085,2.94159,13.3972,2.48,3.99521,1086,5,
182.085,2.94128,13.4018,2.48,3.99521,1086,5,
182.085,2.94128,13.3957,2.48,3.99521,1086,5,
182.085,2.94098,13.3972,2.48,3.99521,1086,5,
182.085,2.9361,13.4018,2.48,3.99521,1086,5,
182.085,2.9361,13.4018,2.48,3.99521,1086,5,
182.085,2.9364,13.3987,2.48,3.99521,1086,5,
182.085,2.93213,13.4003,2.48,3.99521,1086,5,
182.085,2.93121,13.3987,2.48,3.99521,1086,5,
182.085,2.93121,13.4033,2.48,3.99521,1086,5,
182.085,2.93121,13.3865,2.48,3.99521,1086,5,
182.085,2.92694,13.3896,2.48,3.99521,1086,5,
182.085,2.92572,13.3881,2.48,3.99521,1086,5,
182.085,2.92572,13.385,2.48,3.99521,1086,5,
182.085,2.92542,13.385,2.48,3.99521,1086,5,
182.085,2.92175,13.385,2.48,3.99521,1086,5,
182.085,2.92175,13.3881,2.48,3.99521,1086,5,
182.085,2.92206,13.3881,2.48,3.99521,1086,5,
182.085,2.9184,13.385,2.48,3.99521,1086,5,
182.085,2.91656,13.3881,2.48,3.99521,1086,5,
182.085,2.91687,13.3865,2.48,3.99521,1086,5,
182.085,2.91626,13.3896,2.48,3.99521,1086,5,
182.086,2.91229,13.3881,2.48,3.99521,1086,5,
182.086,2.91138,13.3896,2.48,3.99521,1086,5,
182.086,2.91107,13.3865,2.48,3.99521,1086,5,
182.086,2.91077,13.3865,2.48,3.99521,1086,5,
182.086,2.90619,13.3865,2.48,3.99521,1086,5,
182.086,2.90619,13.3896,2.48,3.99521,1086,5,
182.086,2.9068,13.3881,2.48,3.99521,1086,5,
182.086,2.90253,13.3865,2.48,3.99521,1086,5,
182.086,2.90161,13.3911,2.48,3.99521,1086,5,
182.086,2.90161,13.3865,2.48,3.99521,1086,5,
182.086,2.90131,13.3865,2.48,3.99521,1086,5,
182.086,2.89673,13.3881,2.48,3.99521,1086,5,
182.086,2.89642,13.3865,2.48,3.99521,1086,5,
182.086,2.89734,13.3881,2.48,3.99521,1086,5,
182.086,2.89337,13.3865,2.48,3.99521,1086,5,
182.086,2.89246,13.3865,2.48,3.99521,1086,5,
182.086,2.89185,13.385,2.48,3.99521,1086,5,
182.086,2.89246,13.385,2.48,3.99521,1086,5,
182.086,2.88757,13.3896,2.48,3.99521,1086,5,
182.086,2.88849,13.3881,2.48,3.99521,1086,5,
182.086,2.88727,13.382,2.48,3.99521,1086,5,
182.086,2.883,13.3865,2.48,3.99521,1086,5,
182.086,2.883,13.3896,2.48,3.99521,1086,5,
182.086,2.8833,13.3881,2.48,3.99521,1086,5,
182.086,2.88177,13.3896,2.48,3.99521,1086,5,
182.086,2.87811,13.3896,2.48,3.99521,1086,5,
182.086,2.87781,13.3865,2.48,3.99521,1086,5,
182.086,2.8772,13.385,2.48,3.99521,1086,5,
182.086,2.87262,13.3881,2.48,3.99521,1086,5,
182.087,2.87201,13.3865,2.48,3.99521,1086,5,
182.087,2.87262,13.3881,2.48,3.99521,1086,5,
182.087,2.87109,13.3896,2.48,3.99521,1086,5,
182.087,2.86774,13.3865,2.48,3.99521,1086,5,
182.087,2.86713,13.3865,2.48,3.99521,1086,5,
182.087,2.86652,13.3865,2.48,3.99521,1086,5,
182.087,2.86255,13.3865,2.48,3.99521,1086,5,
182.087,2.86224,13.3896,2.48,3.99521,1086,5,
182.087,2.86224,13.3896,2.48,3.99521,1086,5,
182.087,2.85919,13.3881,2.48,3.99521,1086,5,
182.087,2.85736,13.3881,2.48,3.99521,1086,5,
182.087,2.85797,13.385,2.48,3.99521,1086,5,
182.087,2.85675,13.385,2.48,3.99521,1086,5,
182.087,2.85248,13.3896,2.48,3.99521,1086,5,
182.087,2.85339,13.3881,2.48,3.99521,1086,5,
182.087,2.85217,13.3865,2.48,3.99521,1086,5,
182.087,2.8476,13.385,2.48,3.99521,1086,5,
182.087,2.8476,13.3896,2.48,3.99521,1086,5,
182.087,2.84698,13.3911,2.48,3.99521,1086,5,
182.087,2.84302,13.3865,2.48,3.99521,1086,5,
182.087,2.84302,13.3865,2.48,3.99521,1086,5,
182.087,2.84271,13.385,2.48,3.99521,1086,5,
182.087,2.83813,13.3865,2.48,3.99521,1086,5,
182.087,2.83783,13.3881,2.48,3.99521,1086,5,
182.087,2.83783,13.3865,2.48,3.99521,1086,5,
182.087,2.83508,13.3865,2.48,3.99521,1086,5,
182.087,2.83264,13.3896,2.48,3.99521,1086,5,
182.087,2.83264,13.3881,2.48,3.99521,1086,5,
182.087,2.82898,13.385,2.48,3.99521,1086,5,
182.087,2.82867,13.3881,2.48,3.99521,1086,5,
182.088,2.82776,13.3743,2.48,3.99521,1086,5,
182.088,2.82532,13.3743,2.48,3.99521,1086,5,
182.088,2.82318,13.3789,2.48,3.99521,1086,5,
182.088,2.82318,13.3774,2.48,3.99521,1086,5,
182.088,2.81982,13.3743,2.48,3.99521,1086,5,
182.088,2.8183,13.3743,2.48,3.99521,1086,5,
182.088,2.8186,13.3743,2.48,3.99521,1086,5,
182.088,2.81464,13.3774,2.48,3.99521,1086,5,
182.088,2.81311,13.3743,2.48,3.99521,1086,5,
182.088,2.81372,13.3728,2.48,3.99521,1086,5,
182.088,2.80975,13.3728,2.48,3.99521,1086,5,
182.088,2.80853,13.3743,2.48,3.99521,1086,5,
182.088,2.80945,13.3743,2.48,3.99521,1086,5,
182.088,2.80518,13.3759,2.48,3.99521,1086,5,
182.088,2.80365,13.3743,2.48,3.99521,1086,5,
182.088,2.80457,13.3774,2.48,3.99521,1086,5,
182.088,2.80304,13.3774,2.48,3.99521,1086,5,
182.088,2.79877,13.3743,2.48,3.99521,1086,5,
182.088,2.79877,13.3774,2.48,3.99521,1086,5,
182.088,2.79755,13.3759,2.48,3.99521,1086,5,
182.088,2.79388,13.3774,2.48,3.99521,1086,5,
182.088,2.79419,13.3743,2.48,3.99521,1086,5,
182.088,2.79388,13.3759,2.48,3.99521,1086,5,
182.088,2.7887,13.3743,2.48,3.99521,1086,5,
182.088,2.78931,13.3774,2.48,3.99521,1086,5,
182.088,2.789,13.3774,2.48,3.99521,1086,5,
182.088,2.78412,13.3743,2.48,3.99521,1086,5,
182.088,2.78412,13.3743,2.48,3.99521,1086,5,
182.088,2.78412,13.3774,2.48,3.99521,1086,5,
182.088,2.77924,13.3774,2.48,3.99521,1086,5,
182.089,2.77985,13.3743,2.48,3.99521,1086,5,
182.089,2.77954,13.3759,2.48,3.99521,1086,5,
182.089,2.77588,13.3743,2.48,3.99521,1086,5,
182.089,2.77405,13.3774,2.48,3.99521,1086,5,
182.089,2.77435,13.3774,2.48,3.99521,1086,5,
182.089,2.77374,13.3759,2.48,3.99521,1086,5,
182.089,2.76947,13.3774,2.48,3.99521,1086,5,
182.089,2.76978,13.3743,2.48,3.99521,1086,5,
182.089,2.76947,13.3789,2.48,3.99521,1086,5,
182.089,2.76428,13.3759,2.48,3.99521,1086,5,
182.089,2.76459,13.3728,2.48,3.99521,1086,5,
182.089,2.76489,13.3759,2.48,3.99521,1086,5,
182.089,2.7597,13.3759,2.48,3.99521,1086,5,
182.089,2.7597,13.3743,2.48,3.99521,1086,5,
182.089,2.75909,13.3774,2.48,3.99521,1086,5,
182.089,2.75818,13.3759,2.48,3.99521,1086,5,
182.089,2.75452,13.3774,2.48,3.99521,1086,5,
182.089,2.75543,13.3774,2.48,3.99521,1086,5,
182.089,2.75482,13.3743,2.48,3.99521,1086,5,
182.089,2.75055,13.3743,2.48,3.99521,1086,5,
182.089,2.75024,13.3743,2.48,3.99521,1086,5,
182.089,2.75024,13.3743,2.48,3.99521,1086,5,
182.089,2.74689,13.3743,2.48,3.99521,1086,5,
182.089,2.74506,13.3743,2.48,3.99521,1086,5,
182.089,2.74536,13.3743,2.48,3.99521,1086,5,
182.089,2.74567,13.3743,2.48,3.99521,1086,5,
182.089,2.73987,13.3759,2.48,3.99521,1086,5,
182.089,2.73987,13.3759,2.48,3.99521,1086,5,
182.089,2.74017,13.3759,2.48,3.99521,1086,5,
182.089,2.73895,13.3743,2.48,3.99521,1086,5,
182.089,2.73529,13.3728,2.48,3.99521,1086,5,
182.09,2.7359,13.3743,2.48,3.99521,1086,5,
182.09,2.73499,13.3774,2.48,3.99521,1086,5,
182.09,2.73102,13.3728,2.48,3.99521,1086,5,
182.09,2.73041,13.3774,2.48,3.99521,1086,5,
182.09,2.73041,13.3759,2.48,3.99521,1086,5,
182.09,2.73041,13.3728,2.48,3.99521,1086,5,
182.09,2.72522,13.3774,2.48,3.99521,1086,5,
182.09,2.72522,13.3728,2.48,3.99521,1086,5,
182.09,2.72522,13.3774,2.48,3.99521,1086,5,
182.09,2.72186,13.3774,2.48,3.99521,1086,5,
182.09,2.72064,13.3728,2.48,3.99521,1086,5,
182.09,2.72095,13.3728,2.48,3.99521,1086,5,
182.09,2.72095,13.3743,2.48,3.99521,1086,5,
182.09,2.71606,13.3728,2.48,3.99521,1086,5,
182.09,2.71576,13.3774,2.48,3.99521,1086,5,
182.09,2.71576,13.3759,2.48,3.99521,1086,5,
182.09,2.71515,13.3789,2.48,3.99521,1086,5,
182.09,2.71118,13.3743,2.48,3.99521,1086,5,
182.09,2.71118,13.3774,2.48,3.99521,1086,5,
182.09,2.71057,13.3759,2.48,3.99521,1086,5,
182.09,2.70935,13.3774,2.48,3.99521,1086,5,
182.09,2.70569,13.3759,2.48,3.99521,1086,5,
182.09,2.70599,13.3789,2.48,3.99521,1086,5,
182.09,2.70538,13.3743,2.48,3.99521,1086,5,
182.09,2.70142,13.3774,2.48,3.99521,1086,5,
182.09,2.70081,13.3774,2.48,3.99521,1086,5,
182.09,2.7005,13.3743,2.48,3.99521,1086,5,
182.09,2.70081,13.3774,2.48,3.99521,1086,5,
182.09,2.69592,13.3789,2.48,3.99521,1086,5,
182.09,2.69592,13.3759,2.48,3.99521,1086,5,
182.091,2.69623,13.3743,2.48,3.99521,1086,5,
182.091,2.69562,13.3759,2.48,3.99521,1086,5,
182.091,2.69104,13.3759,2.48,3.99521,1086,5,
182.091,2.69135,13.3743,2.48,3.99521,1086,5,
182.091,2.69104,13.3759,2.48,3.99521,1086,5,
182.091,2.69043,13.3759,2.48,3.99521,1086,5,
182.091,2.68555,13.3743,2.48,3.99521,1086,5,
182.091,2.68585,13.3743,2.48,3.99521,1086,5,
182.091,2.68585,13.3759,2.48,3.99521,1086,5,
182.091,2.68311,13.3743,2.48,3.99521,1086,5,
182.091,2.68097,13.3774,2.48,3.99521,1086,5,
182.091,2.68097,13.3759,2.48,3.99521,1086,5,
182.091,2.68097,13.3743,2.48,3.99521,1086,5,
182.091,2.67792,13.3759,2.48,3.99521,1086,5,
182.091,2.6767,13.3789,2.48,3.99521,1086,5,
182.091,2.67609,13.3774,2.48,3.99521,1086,5,
182.091,2.6767,13.3743,2.48,3.99521,1086,5,
182.091,2.67273,13.3713,2.48,3.99521,1086,5,
182.091,2.67181,13.3759,2.48,3.99521,1086,5,
182.091,2.6712,13.3713,2.48,3.99521,1086,5,
182.091,2.67151,13.3759,2.48,3.99521,1086,5,
182.091,2.66815,13.3759,2.48,3.99521,1086,5,
182.091,2.66632,13.3774,2.48,3.99521,1086,5,
182.091,2.66663,13.3789,2.48,3.99521,1086,5,
182.091,2.66602,13.3728,2.48,3.99521,1086,5,
182.091,2.66327,13.3743,2.48,3.99521,1086,5,
182.091,2.66144,13.3743,2.48,3.99521,1086,5,
182.091,2.66113,13.3728,2.48,3.99521,1086,5,
182.091,2.66144,13.3774,2.48,3.99521,1086,5,
182.091,2.66144,13.3743,2.48,3.99521,1086,5,
182.092,2.65594,13.3774,2.48,3.99521,1086,5,
182.092,2.65686,13.3774,2.48,3.99521,1086,5,
182.092,2.65686,13.3728,2.48,3.99521,1086,5,
182.092,2.65717,13.3728,2.48,3.99521,1086,5,
182.092,2.65167,13.3743,2.48,3.99521,1086,5,
182.092,2.65137,13.3759,2.48,3.99521,1086,5,
182.092,2.65259,13.3743,2.48,3.99521,1086,5,
182.092,2.65198,13.3774,2.48,3.99521,1086,5,
182.092,2.64709,13.3759,2.48,3.99521,1086,5,
182.092,2.64679,13.3774,2.48,3.99521,1086,5,
182.092,2.64771,13.3759,2.48,3.99521,1086,5,
182.092,2.64709,13.3759,2.48,3.99521,1086,5,
182.092,2.64587,13.3774,2.48,3.99521,1086,5,
182.092,2.64221,13.3743,2.48,3.99521,1086,5,
182.092,2.64221,13.3759,2.48,3.99521,1086,5,
182.092,2.64191,13.3774,2.48,3.99521,1086,5,
182.092,2.64191,13.3728,2.48,3.99521,1086,5,
182.092,2.63733,13.3759,2.48,3.99521,1086,5,
182.092,2.63672,13.3789,2.48,3.99521,1086,5,
182.092,2.63733,13.3759,2.48,3.99521,1086,5,
182.092,2.63672,13.3759,2.48,3.99521,1086,5,
182.092,2.63672,13.3743,2.48,3.99521,1086,5,
182.092,2.63245,13.3759,2.48,3.99521,1086,5,
182.092,2.63153,13.3728,2.48,3.99521,1086,5,
182.092,2.63214,13.3774,2.48,3.99521,1086,5,
182.092,2.63214,13.3759,2.48,3.99521,1086,5,
182.092,2.62878,13.3759,2.48,3.99521,1086,5,
182.092,2.62787,13.3759,2.48,3.99521,1086,5,
182.092,2.62726,13.3774,2.48,3.99521,1086,5,
182.093,2.62787,13.3743,2.48,3.99521,1086,5,
182.093,2.62756,13.3789,2.48,3.99521,1086,5,
182.093,2.62238,13.3759,2.48,3.99521,1086,5,
182.093,2.62238,13.3789,2.48,3.99521,1086,5,
182.093,2.62238,13.3743,2.48,3.99521,1086,5,
182.093,2.62238,13.3759,2.48,3.99521,1086,5,
182.093,2.62115,13.3728,2.48,3.99521,1086,5,
182.093,2.6178,13.3774,2.48,3.99521,1086,5,
182.093,2.61749,13.3759,2.48,3.99521,1086,5,
182.093,2.61719,13.3743,2.48,3.99521,1086,5,
182.093,2.61749,13.3759,2.48,3.99521,1086,5,
182.093,2.61383,13.3759,2.48,3.99521,1086,5,
182.093,2.61169,13.3743,2.48,3.99521,1086,5,
182.093,2.61292,13.3759,2.48,3.99521,1086,5,
182.093,2.6123,13.3728,2.48,3.99521,1086,5,
182.093,2.61322,13.3743,2.48,3.99521,1086,5,
182.093,2.60773,13.3759,2.48,3.99521,1086,5,
182.093,2.60803,13.3728,2.48,3.99521,1086,5,
182.093,2.60773,13.3759,2.48,3.99521,1086,5,
182.093,2.60803,13.3713,2.48,3.99521,1086,5,
182.093,2.60834,13.3759,2.48,3.99521,1086,5,
182.093,2.60315,13.3759,2.48,3.99521,1086,5,
182.093,2.60315,13.3728,2.48,3.99521,1086,5,
182.093,2.60284,13.3774,2.48,3.99521,1086,5,
182.093,2.60284,13.3743,2.48,3.99521,1086,5,
182.093,2.60223,13.3743,2.48,3.99521,1086,5,
182.093,2.59735,13.3774,2.48,3.99521,1086,5,
182.093,2.59888,13.3759,2.48,3.99521,1086,5,
182.093,2.59766,13.3728,2.48,3.99521,1086,5,
182.093,2.59766,13.3743,2.48,3.99521,1086,5,
182.094,2.59491,13.3743,2.48,3.99521,1086,5,
182.094,2.59308,13.3728,2.48,3.99521,1086,5,
182.094,2.59308,13.3774,2.48,3.99521,1086,5,
182.094,2.59277,13.3713,2.48,3.99521,1086,5,
182.094,2.59277,13.3713,2.48,3.99521,1086,5,
182.094,2.58881,13.3743,2.48,3.99521,1086,5,
182.094,2.5882,13.3743,2.48,3.99521,1086,5,
182.094,2.58789,13.3728,2.48,3.99521,1086,5,
182.094,2.5882,13.3774,2.48,3.99521,1086,5,
182.094,2.5882,13.3743,2.48,3.99521,1086,5,
182.094,2.58362,13.3759,2.48,3.99521,1086,5,
182.094,2.58301,13.3743,2.48,3.99521,1086,5,
182.094,2.58301,13.3743,2.48,3.99521,1086,5,
182.094,2.58301,13.3713,2.48,3.99521,1086,5,
182.094,2.57965,13.3759,2.48,3.99521,1086,5,
182.094,2.57874,13.3728,2.48,3.99521,1086,5,
182.094,2.57782,13.3743,2.48,3.99521,1086,5,
182.094,2.57874,13.3789,2.48,3.99521,1086,5,
182.094,2.57843,13.3774,2.48,3.99521,1086,5,
182.094,2.57355,13.3774,2.48,3.99521,1086,5,
182.094,2.57385,13.3759,2.48,3.99521,1086,5,
182.094,2.57355,13.3789,2.48,3.99521,1086,5,
182.094,2.57355,13.3789,2.48,3.99521,1086,5,
182.094,2.57355,13.3743,2.48,3.99521,1086,5,
182.094,2.56866,13.3759,2.48,3.99521,1086,5,
182.094,2.56866,13.3743,2.48,3.99521,1086,5,
182.094,2.56897,13.3774,2.48,3.99521,1086,5,
182.094,2.56897,13.3774,2.48,3.99521,1086,5,
182.094,2.56836,13.3774,2.48,3.99521,1086,5,
182.094,2.56378,13.3743,2.48,3.99521,1086,5,
182.095,2.56378,13.3759,2.48,3.99521,1086,5,
182.095,2.56348,13.3774,2.48,3.99521,1086,5,
182.095,2.56409,13.3759,2.48,3.99521,1086,5,
182.095,2.56073,13.3759,2.48,3.99521,1086,5,
182.095,2.5589,13.3743,2.48,3.99521,1086,5,
182.095,2.55859,13.3728,2.48,3.99521,1086,5,
182.095,2.5589,13.3804,2.48,3.99521,1086,5,
182.095,2.55951,13.3728,2.48,3.99521,1086,5,
182.095,2.55493,13.3774,2.48,3.99521,1086,5,
182.095,2.55402,13.3728,2.48,3.99521,1086,5,
182.095,2.55371,13.3759,2.48,3.99521,1086,5,
182.095,2.55463,13.3728,2.48,3.99521,1086,5,
182.095,2.55432,13.3789,2.48,3.99521,1086,5,
182.095,2.54974,13.3774,2.48,3.99521,1086,5,
182.095,2.54944,13.3713,2.48,3.99521,1086,5,
182.095,2.54913,13.3759,2.48,3.99521,1086,5,
182.095,2.54974,13.3743,2.48,3.99521,1086,5,
182.095,2.54974,13.3743,2.48,3.99521,1086,5,
182.095,2.54547,13.3728,2.48,3.99521,1086,5,
182.095,2.54456,13.3728,2.48,3.99521,1086,5,
182.095,2.54425,13.3713,2.48,3.99521,1086,5,
182.095,2.54486,13.3743,2.48,3.99521,1086,5,
182.095,2.54395,13.3759,2.48,3.99521,1086,5,
182.095,2.54028,13.3789,2.48,3.99521,1086,5,
182.095,2.53967,13.3728,2.48,3.99521,1086,5,
182.095,2.53906,13.3743,2.48,3.99521,1086,5,
182.095,2.53906,13.3743,2.48,3.99521,1086,5,
182.095,2.53845,13.3743,2.48,3.99521,1086,5,
182.095,2.53906,13.3743,2.48,3.99521,1086,5,
182.095,2.53357,13.3728,2.48,3.99521,1086,5,
182.095,2.53418,13.3743,2.48,3.99521,1086,5,
182.096,2.53448,13.3743,2.48,3.99521,1086,5,
182.096,2.53387,13.3774,2.48,3.99521,1086,5,
182.096,2.53357,13.3728,2.48,3.99521,1086,5,
182.096,2.53052,13.3759,2.48,3.99521,1086,5,
182.096,2.5296,13.3789,2.48,3.99521,1086,5,
182.096,2.5296,13.3759,2.48,3.99521,1086,5,
182.096,2.5293,13.3759,2.48,3.99521,1086,5,
182.096,2.52899,13.3759,2.48,3.99521,1086,5,
182.096,2.5293,13.3759,2.48,3.99521,1086,5,
182.096,2.52502,13.3759,2.48,3.99521,1086,5,
182.096,2.52441,13.3759,2.48,3.99521,1086,5,
182.096,2.52472,13.3728,2.48,3.99521,1086,5,
182.096,2.52441,13.3728,2.48,3.99521,1086,5,
182.096,2.5238,13.3743,2.48,3.99521,1086,5,
182.096,2.52472,13.3728,2.48,3.99521,1086,5,
182.096,2.52045,13.3743,2.48,3.99521,1086,5,
182.096,2.51862,13.3759,2.48,3.99521,1086,5,
182.096,2.51984,13.3728,2.48,3.99521,1086,5,
182.096,2.51923,13.3743,2.48,3.99521,1086,5,
182.096,2.51984,13.3759,2.48,3.99521,1086,5,
182.096,2.51923,13.3743,2.48,3.99521,1086,5,
182.096,2.51587,13.3743,2.48,3.99521,1086,5,
182.096,2.51495,13.3743,2.48,3.99521,1086,5,
182.096,2.51495,13.3743,2.48,3.99521,1086,5,
182.096,2.51526,13.3743,2.48,3.99521,1086,5,
182.096,2.51526,13.3789,2.48,3.99521,1086,5,
182.096,2.51404,13.3759,2.48,3.99521,1086,5,
182.096,2.51465,13.3743,2.48,3.99521,1086,5,
182.096,2.51038,13.3759,2.48,3.99521,1086,5,
182.096,2.50977,13.3743,2.48,3.99521,1086,5,
182.097,2.50977,13.3743,2.48,3.99521,1086,5,
182.097,2.50885,13.3743,2.48,3.99521,1086,5,
182.097,2.51007,13.3759,2.48,3.99521,1086,5,
182.097,2.51007,13.3743,2.48,3.99521,1086,5,
182.097,2.50946,13.3759,2.48,3.99521,1086,5,
182.097,2.5061,13.3774,2.48,3.99521,1086,5,
182.097,2.50488,13.3774,2.48,3.99521,1086,5,
182.097,2.50488,13.3759,2.48,3.99521,1086,5,
182.097,2.50458,13.3728,2.48,3.99521,1086,5,
182.097,2.50519,13.3759,2.48,3.99521,1086,5,
182.097,2.50458,13.3728,2.48,3.99521,1086,5,
182.097,2.50488,13.3759,2.48,3.99521,1086,5,
182.097,2.50549,13.3774,2.48,3.99521,1086,5,
182.097,2.50092,13.3743,2.48,3.99521,1086,5,
182.097,2.5,13.3743,2.48,3.99521,1086,5,
182.097,2.5,13.3774,2.48,3.99521,1086,5,
182.097,2.49969,13.3759,2.48,3.99521,1086,5,
