6600-SECPT.acq
2 msec/sample
6 channels
RSP, X, RSPEC-R
Volts
EDA, Y, PPGED-R
microsiemens
ECG R-R
Seconds
Respiration Rate
BPM
C7 - EDR
Peaks
C14 - Control
Volts
min,CH1,CH14,CH40,CH42,CH47,CH54,
,90517,90517,90517,90517,90517,90517,
218.081,3.73901,0.894166,4.918,18.9514,670,0,
218.081,3.73901,0.895692,4.918,18.9514,670,0,
218.081,3.73505,0.894166,4.918,18.9514,670,0,
218.081,3.73444,0.889588,4.918,18.9514,670,0,
218.081,3.73505,0.897218,4.918,18.9514,670,0,
218.081,3.73444,0.894166,4.918,18.9514,670,0,
218.081,3.73352,0.894166,4.918,18.9514,670,0,
218.081,3.73444,0.895692,4.918,18.9514,670,0,
218.081,3.73444,0.895692,4.918,18.9514,670,0,
218.081,3.72925,0.895692,4.918,18.9514,670,0,
218.081,3.72986,0.891114,4.918,18.9514,670,0,
218.081,3.73047,0.897218,4.918,18.9514,670,0,
218.081,3.72955,0.897218,4.918,18.9514,670,0,
218.081,3.73047,0.894166,4.918,18.9514,670,0,
218.081,3.72925,0.89264,4.918,18.9514,670,0,
218.081,3.72681,0.895692,4.918,18.9514,670,0,
218.081,3.72467,0.89264,4.918,18.9514,670,0,
218.081,3.72528,0.894166,4.918,18.9514,670,0,
218.081,3.72528,0.895692,4.918,18.9514,670,0,
218.081,3.72498,0.895692,4.918,18.9514,670,0,
218.081,3.72498,0.895692,4.918,18.9514,670,0,
218.081,3.72437,0.89264,4.918,18.9514,670,0,
218.081,3.7207,0.894166,4.918,18.9514,670,0,
218.081,3.71979,0.894166,4.918,18.9514,670,0,
218.081,3.71979,0.894166,4.918,18.9514,670,0,
218.081,3.72009,0.895692,4.918,18.9514,670,0,
218.081,3.71979,0.897218,4.918,18.9514,670,0,
218.081,3.71857,0.891114,4.918,18.9514,670,0,
218.081,3.71765,0.891114,4.918,18.9514,670,0,
218.082,3.7149,0.894166,4.918,18.9514,670,0,
218.082,3.71429,0.894166,4.918,18.9514,670,0,
218.082,3.7149,0.894166,4.918,18.9514,670,0,
218.082,3.71429,0.895692,4.918,18.9514,670,0,
218.082,3.71521,0.891114,4.918,18.9514,670,0,
218.082,3.7149,0.894166,4.918,18.9514,670,0,
218.082,3.71033,0.897218,4.918,18.9514,670,0,
218.082,3.71063,0.89264,4.918,18.9514,670,0,
218.082,3.71033,0.89264,4.918,18.9514,670,0,
218.082,3.70972,0.895692,4.918,18.9514,670,0,
218.082,3.71063,0.894166,4.918,18.9514,670,0,
218.082,3.71002,0.894166,4.918,18.9514,670,0,
218.082,3.70605,0.89264,4.918,18.9514,670,0,
218.082,3.70453,0.894166,4.918,18.9514,670,0,
218.082,3.70544,0.89264,4.918,18.9514,670,0,
218.082,3.70483,0.895692,4.918,18.9514,670,0,
218.082,3.70544,0.89264,4.918,18.9514,670,0,
218.082,3.70483,0.895692,4.918,18.9514,670,0,
218.082,3.70239,0.89264,4.918,18.9514,670,0,
218.082,3.70026,0.894166,4.918,18.9514,670,0,
218.082,3.70026,0.894166,4.918,18.9514,670,0,
218.082,3.69965,0.894166,4.918,18.9514,670,0,
218.082,3.70026,0.894166,4.918,18.9514,670,0,
218.082,3.70056,0.894166,4.918,18.9514,670,0,
218.082,3.6969,0.895692,4.918,18.9514,670,0,
218.082,3.69537,0.894166,4.918,18.9514,670,0,
218.082,3.69537,0.891114,4.918,18.9514,670,0,
218.082,3.69507,0.894166,4.918,18.9514,670,0,
218.082,3.69507,0.89264,4.918,18.9514,670,0,
218.082,3.69507,0.894166,4.918,18.9514,670,0,
218.083,3.69049,0.894166,4.918,18.9514,670,0,
218.083,3.69019,0.895692,4.918,18.9514,670,0,
218.083,3.69019,0.894166,4.918,18.9514,670,0,
218.083,3.6908,0.894166,4.918,18.9514,670,0,
218.083,3.69019,0.891114,4.918,18.9514,670,0,
218.083,3.69019,0.894166,4.918,18.9514,670,0,
218.083,3.6853,0.897218,4.918,18.9514,670,0,
218.083,3.685,0.89264,4.918,18.9514,670,0,
218.083,3.6853,0.894166,4.918,18.9514,670,0,
218.083,3.685,0.897218,4.918,18.9514,670,0,
218.083,3.6853,0.89264,4.918,18.9514,670,0,
218.083,3.68073,0.898744,4.918,18.9514,670,0,
218.083,3.68042,0.894166,4.918,18.9514,670,0,
218.083,3.68042,0.894166,4.918,18.9514,670,0,
218.083,3.68011,0.891114,4.918,18.9514,670,0,
218.083,3.68073,0.897218,4.918,18.9514,670,0,
218.083,3.67767,0.894166,4.918,18.9514,670,0,
218.083,3.67615,0.897218,4.918,18.9514,670,0,
218.083,3.67523,0.897218,4.918,18.9514,670,0,
218.083,3.67584,0.894166,4.918,18.9514,670,0,
218.083,3.67523,0.895692,4.918,18.9514,670,0,
218.083,3.67554,0.895692,4.918,18.9514,670,0,
218.083,3.67096,0.891114,4.918,18.9514,670,0,
218.083,3.67126,0.891114,4.918,18.9514,670,0,
218.083,3.67004,0.894166,4.918,18.9514,670,0,
218.083,3.67096,0.894166,4.918,18.9514,670,0,
218.083,3.67065,0.897218,4.918,18.9514,670,0,
218.083,3.66547,0.894166,4.918,18.9514,670,0,
218.083,3.66547,0.891114,4.918,18.9514,670,0,
218.083,3.66638,0.89264,4.918,18.9514,670,0,
218.083,3.66608,0.894166,4.918,18.9514,670,0,
218.084,3.66577,0.889588,4.918,18.9514,670,0,
218.084,3.66089,0.89264,4.918,18.9514,670,0,
218.084,3.66058,0.907899,4.918,18.9514,670,0,
218.084,3.66089,0.910951,4.918,18.9514,670,0,
218.084,3.66058,0.907899,4.918,18.9514,670,0,
218.084,3.66119,0.904847,4.918,18.9514,670,0,
218.084,3.6557,0.906373,4.918,18.9514,670,0,
218.084,3.65662,0.903321,4.918,18.9514,670,0,
218.084,3.6554,0.909425,4.918,18.9514,670,0,
218.084,3.6557,0.904847,4.918,18.9514,670,0,
218.084,3.6557,0.904847,4.918,18.9514,670,0,
218.084,3.65051,0.907899,4.918,18.9514,670,0,
218.084,3.65112,0.903321,4.918,18.9514,670,0,
218.084,3.65112,0.909425,4.918,18.9514,670,0,
218.084,3.65112,0.907899,4.918,18.9514,670,0,
218.084,3.65143,0.906373,4.918,18.9514,670,0,
218.084,3.64624,0.903321,4.918,18.9514,670,0,
218.084,3.64655,0.906373,4.918,18.9514,670,0,
218.084,3.64655,0.904847,4.918,18.9514,670,0,
218.084,3.64624,0.904847,4.918,18.9514,670,0,
218.084,3.64563,0.906373,4.918,18.9514,670,0,
218.084,3.64166,0.906373,4.918,18.9514,670,0,
218.084,3.64075,0.904847,4.918,18.9514,670,0,
218.084,3.64136,0.897218,4.918,18.9514,670,0,
218.084,3.64166,0.89264,4.918,18.9514,670,0,
218.084,3.64166,0.89264,4.918,18.9514,670,0,
218.084,3.63678,0.894166,4.918,18.9514,670,0,
218.084,3.63647,0.895692,4.918,18.9514,670,0,
218.084,3.63617,0.897218,4.918,18.9514,670,0,
218.084,3.63647,0.894166,4.918,18.9514,670,0,
218.085,3.63373,0.891114,4.918,18.9514,670,0,
218.085,3.6319,0.894166,4.918,18.9514,670,0,
218.085,3.63159,0.89264,4.918,18.9514,670,0,
218.085,3.63098,0.895692,4.918,18.9514,670,0,
218.085,3.63281,0.89264,4.918,18.9514,670,0,
218.085,3.62701,0.894166,4.918,18.9514,670,0,
218.085,3.62671,0.895692,4.918,18.9514,670,0,
218.085,3.62671,0.894166,4.918,18.9514,670,0,
218.085,3.6264,0.89264,4.918,18.9514,670,0,
218.085,3.62671,0.89264,4.918,18.9514,670,0,
218.085,3.62152,0.897218,4.918,18.9514,670,0,
218.085,3.62152,0.894166,4.918,18.9514,670,0,
218.085,3.62152,0.89264,4.918,18.9514,670,0,
218.085,3.62152,0.894166,4.918,18.9514,670,0,
218.085,3.61908,0.894166,4.918,18.9514,670,0,
218.085,3.61633,0.89264,4.918,18.9514,670,0,
218.085,3.61664,0.89264,4.918,18.9514,670,0,
218.085,3.61694,0.89264,4.918,18.9514,670,0,
218.085,3.61694,0.895692,4.918,18.9514,670,0,
218.085,3.61176,0.894166,4.918,18.9514,670,0,
218.085,3.61206,0.895692,4.918,18.9514,670,0,
218.085,3.61145,0.89264,4.918,18.9514,670,0,
218.085,3.61176,0.89264,4.918,18.9514,670,0,
218.085,3.60779,0.89264,4.918,18.9514,670,0,
218.085,3.60626,0.89264,4.918,18.9514,670,0,
218.085,3.60748,0.894166,4.918,18.9514,670,0,
218.085,3.60657,0.89264,4.918,18.9514,670,0,
218.085,3.60382,0.89264,4.918,18.9514,670,0,
218.085,3.60199,0.894166,4.918,18.9514,670,0,
218.085,3.60168,0.894166,4.918,18.9514,670,0,
218.086,3.60199,0.894166,4.918,18.9514,670,0,
218.086,3.60168,0.895692,4.918,18.9514,670,0,
218.086,3.59772,0.891114,4.918,18.9514,670,0,
218.086,3.59772,0.89264,4.918,18.9514,670,0,
218.086,3.59741,0.89264,4.918,18.9514,670,0,
218.086,3.59772,0.897218,0,18.9514,670,0,
218.086,3.59192,0.891114,0,18.9514,670,0,
218.086,3.59253,0.894166,0,18.9514,670,0,
218.086,3.59253,0.895692,0,18.9514,670,0,
218.086,3.59253,0.894166,0,18.9514,670,0,
218.086,3.58795,0.894166,0,18.9514,670,0,
218.086,3.58765,0.891114,0,18.9514,670,0,
218.086,3.58795,0.89264,0,18.9514,670,0,
218.086,3.58734,0.89264,0,18.9514,670,0,
218.086,3.58276,0.89264,0,18.9514,670,0,
218.086,3.58307,0.891114,0,18.9514,670,0,
218.086,3.58215,0.897218,0,18.9514,670,0,
218.086,3.58032,0.894166,0,18.9514,670,0,
218.086,3.57758,0.895692,0,18.9514,670,0,
218.086,3.57819,0.894166,0,18.9514,670,0,
218.086,3.57819,0.894166,0,18.9514,670,0,
218.086,3.57483,0.89264,0,18.9514,670,0,
218.086,3.57208,0.89264,0,18.9514,670,0,
218.086,3.57269,0.89264,0,18.9514,670,0,
218.086,3.57208,0.894166,0,18.9514,670,0,
218.086,3.56812,0.89264,0,18.9514,670,0,
218.086,3.56812,0.89264,0,18.9514,670,0,
218.086,3.56842,0.881959,0,18.9514,670,0,
218.086,3.56842,0.881959,0,18.9514,670,0,
218.087,3.56262,0.880433,0,18.9514,670,0,
218.087,3.56323,0.881959,0,18.9514,670,0,
218.087,3.56323,0.886537,0,18.9514,670,0,
218.087,3.56354,0.880433,0,18.9514,670,0,
218.087,3.55835,0.895692,0,18.9514,670,0,
218.087,3.55804,0.894166,0,18.9514,670,0,
218.087,3.55804,0.89264,0,18.9514,670,0,
218.087,3.55438,0.897218,0,18.9514,670,0,
218.087,3.55286,0.894166,0,18.9514,670,0,
218.087,3.55316,0.895692,0,18.9514,670,0,
218.087,3.55347,0.894166,0,18.9514,670,0,
218.087,3.54858,0.895692,0,18.9514,670,0,
218.087,3.54858,0.89264,0,18.9514,670,0,
218.087,3.54767,0.889588,0,18.9514,670,0,
218.087,3.54858,0.89264,0,18.9514,670,0,
218.087,3.5434,0.89264,0,18.9514,670,0,
218.087,3.5437,0.895692,0,18.9514,670,0,
218.087,3.5437,0.889588,0,18.9514,670,0,
218.087,3.53912,0.895692,0,18.9514,670,0,
218.087,3.5379,0.895692,0,18.9514,670,0,
218.087,3.53882,0.891114,0,18.9514,670,0,
218.087,3.53851,0.895692,0,18.9514,670,0,
218.087,3.53363,0.894166,0,18.9514,670,0,
218.087,3.53363,0.894166,0,18.9514,670,0,
218.087,3.53363,0.895692,0,18.9514,670,0,
218.087,3.53119,0.894166,0,18.9514,670,0,
218.087,3.52844,0.894166,0,18.9514,670,0,
218.087,3.52814,0.895692,0,18.9514,670,0,
218.087,3.52875,0.898744,0,18.9514,670,0,
218.087,3.52448,0.89264,0,18.9514,670,0,
218.088,3.52386,0.89264,0,18.9514,670,0,
218.088,3.52448,0.894166,0,18.9514,670,0,
218.088,3.52142,0.898744,0,18.9514,670,0,
218.088,3.51929,0.891114,0,18.9514,670,0,
218.088,3.51776,0.89264,0,18.9514,670,0,
218.088,3.51898,0.894166,0,18.9514,670,0,
218.088,3.5141,0.89264,0,18.9514,670,0,
218.088,3.5144,0.894166,0,18.9514,670,0,
218.088,3.51471,0.895692,0,18.9514,670,0,
218.088,3.51135,0.891114,0,18.9514,670,0,
218.088,3.50952,0.894166,0,18.9514,670,0,
218.088,3.50922,0.895692,0,18.9514,670,0,
218.088,3.50952,0.891114,0,18.9514,670,0,
218.088,3.50403,0.898744,0,18.9514,670,0,
218.088,3.50342,0.89264,0,18.9514,670,0,
218.088,3.50464,0.894166,0,18.9514,670,0,
218.088,3.49976,0.894166,0,18.9514,670,0,
218.088,3.49976,0.895692,0,18.9514,670,0,
218.088,3.49945,0.891114,0,18.9514,670,0,
218.088,3.49915,0.894166,0,18.9514,670,0,
218.088,3.49426,0.895692,0,18.9514,670,0,
218.088,3.49396,0.891114,0,18.9514,670,0,
218.088,3.49426,0.894166,0,18.9514,670,0,
218.088,3.4903,0.89264,0,18.9514,670,0,
218.088,3.48999,0.895692,0,18.9514,670,0,
218.088,3.48877,0.895692,0,18.9514,670,0,
218.088,3.48663,0.89264,0,18.9514,670,0,
218.088,3.48541,0.894166,0,18.9514,670,0,
218.088,3.4848,0.89264,0,18.9514,670,0,
218.088,3.4845,0.894166,0,18.9514,670,0,
218.089,3.47961,0.89264,0,18.9514,670,0,
218.089,3.47961,0.891114,0,18.9514,670,0,
218.089,3.47992,0.895692,0,18.9514,670,0,
218.089,3.47534,0.89264,0,18.9514,670,0,
218.089,3.47473,0.895692,0,18.9514,670,0,
218.089,3.47504,0.894166,0,18.9514,670,0,
218.089,3.47198,0.894166,0,18.9514,670,0,
218.089,3.47015,0.894166,0,18.9514,670,0,
218.089,3.46985,0.894166,0,18.9514,670,0,
218.089,3.46985,0.894166,0,18.9514,670,0,
218.089,3.46527,0.894166,0,18.9514,670,0,
218.089,3.46558,0.895692,0,18.9514,670,0,
218.089,3.46466,0.894166,0,18.9514,670,0,
218.089,3.46008,0.894166,0,18.9514,670,0,
218.089,3.45978,0.897218,0,18.9514,670,0,
218.089,3.46008,0.89264,0,18.9514,670,0,
218.089,3.4549,0.891114,0,18.9514,670,0,
218.089,3.45459,0.895692,0,18.9514,670,0,
218.089,3.4549,0.89264,0,18.9514,670,0,
218.089,3.45001,0.89264,0,18.9514,670,0,
218.089,3.45032,0.895692,0,18.9514,670,0,
218.089,3.45032,0.894166,0,18.9514,670,0,
218.089,3.44788,0.89264,0,18.9514,670,0,
218.089,3.44513,0.897218,0,18.9514,670,0,
218.089,3.44482,0.894166,0,18.9514,670,0,
218.089,3.44238,0.89264,0,18.9514,670,0,
218.089,3.44025,0.89264,0,18.9514,670,0,
218.089,3.44025,0.894166,0,18.9514,670,0,
218.089,3.43781,0.894166,0,18.9514,670,0,
218.089,3.43506,0.889588,0,18.9514,670,0,
218.089,3.43597,0.895692,0,18.9514,670,0,
218.09,3.43323,0.89264,0,18.9514,670,0,
218.09,3.43018,0.897218,0,18.9514,670,0,
218.09,3.43079,0.894166,0,18.9514,670,0,
218.09,3.43109,0.894166,0,18.9514,670,0,
218.09,3.4256,0.897218,0,18.9514,670,0,
218.09,3.42621,0.895692,0,18.9514,670,0,
218.09,3.4256,0.894166,0,18.9514,670,0,
218.09,3.42102,0.894166,0,18.9514,670,0,
218.09,3.42102,0.89264,0,18.9514,670,0,
218.09,3.42041,0.891114,0,18.9514,670,0,
218.09,3.41553,0.894166,0,18.9514,670,0,
218.09,3.41644,0.894166,0,18.9514,670,0,
218.09,3.41675,0.894166,0,18.9514,670,0,
218.09,3.41156,0.89264,0,18.9514,670,0,
218.09,3.41156,0.891114,0,18.9514,670,0,
218.09,3.41156,0.89264,0,18.9514,670,0,
218.09,3.40668,0.894166,0,18.9514,670,0,
218.09,3.40607,0.89264,0,18.9514,670,0,
218.09,3.40698,0.883485,0,18.9514,670,0,
218.09,3.4021,0.881959,0,18.9514,670,0,
218.09,3.4024,0.881959,0,18.9514,670,0,
218.09,3.4021,0.888062,0,18.9514,670,0,
218.09,3.39722,0.881959,0,18.9514,670,0,
218.09,3.39691,0.880433,0,18.9514,670,0,
218.09,3.39691,0.881959,0,18.9514,670,0,
218.09,3.39172,0.886537,0,18.9514,670,0,
218.09,3.39172,0.883485,0,18.9514,670,0,
218.09,3.39203,0.883485,0,18.9514,670,0,
218.09,3.38684,0.883485,0,18.9514,670,0,
218.09,3.38623,0.881959,0,18.9514,670,0,
218.091,3.38654,0.880433,0,18.9514,670,0,
218.091,3.38135,0.880433,0,18.9514,670,0,
218.091,3.38165,0.883485,0,18.9514,670,0,
218.091,3.38135,0.883485,0,18.9514,670,0,
218.091,3.37646,0.881959,0,18.9514,670,0,
218.091,3.37646,0.880433,0,18.9514,670,0,
218.091,3.37616,0.878907,0,18.9514,670,0,
218.091,3.3728,0.883485,0,18.9514,670,0,
218.091,3.37158,0.888062,0,18.9514,670,0,
218.091,3.37189,0.881959,0,18.9514,670,0,
218.091,3.3667,0.880433,0,18.9514,670,0,
218.091,3.3667,0.881959,0,18.9514,670,0,
218.091,3.3667,0.881959,0,18.9514,670,0,
218.091,3.36243,0.881959,0,18.9514,670,0,
218.091,3.36182,0.880433,0,18.9514,670,0,
218.091,3.36182,0.880433,0,18.9514,670,0,
218.091,3.35754,0.883485,0,18.9514,670,0,
218.091,3.35693,0.883485,0,18.9514,670,0,
218.091,3.35724,0.880433,0,18.9514,670,0,
218.091,3.3548,0.878907,0,18.9514,670,0,
218.091,3.35266,0.883485,0,18.9514,670,0,
218.091,3.35236,0.880433,0,18.9514,670,0,
218.091,3.34961,0.881959,0,18.9514,670,0,
218.091,3.34686,0.883485,0,18.9514,670,0,
218.091,3.34747,0.881959,0,18.9514,670,0,
218.091,3.34747,0.881959,0,18.9514,670,0,
218.091,3.34229,0.883485,0,18.9514,670,0,
218.091,3.34229,0.881959,0,18.9514,670,0,
218.091,3.34259,0.881959,0,18.9514,670,0,
218.091,3.3374,0.880433,0,18.9514,670,0,
218.092,3.3371,0.881959,0,18.9514,670,0,
218.092,3.3371,0.881959,0,18.9514,670,0,
218.092,3.33344,0.881959,0,18.9514,670,0,
218.092,3.33252,0.881959,0,18.9514,670,0,
218.092,3.33313,0.883485,0,18.9514,670,0,
218.092,3.32825,0.881959,0,18.9514,670,0,
218.092,3.32764,0.881959,0,18.9514,670,0,
218.092,3.32764,0.881959,0,18.9514,670,0,
218.092,3.32428,0.883485,0,18.9514,670,0,
218.092,3.32306,0.880433,0,18.9514,670,0,
218.092,3.32306,0.894166,0,18.9514,670,0,
218.092,3.32214,0.89264,0,18.9514,670,0,
218.092,3.31818,0.894166,0,18.9514,670,0,
218.092,3.31879,0.89264,0,18.9514,670,0,
218.092,3.31787,0.894166,0,18.9514,670,0,
218.092,3.31299,0.895692,0,18.9514,670,0,
218.092,3.31299,0.894166,0,18.9514,670,0,
218.092,3.31299,0.897218,0,18.9514,670,0,
218.092,3.3078,0.895692,0,18.9514,670,0,
218.092,3.3078,0.894166,0,18.9514,670,0,
218.092,3.30811,0.895692,0,18.9514,670,0,
218.092,3.30383,0.89264,0,18.9514,670,0,
218.092,3.30322,0.895692,0,18.9514,670,0,
218.092,3.30292,0.895692,0,18.9514,670,0,
218.092,3.29987,0.898744,0,18.9514,670,0,
218.092,3.29834,0.89264,0,18.9514,670,0,
218.092,3.29803,0.889588,0,18.9514,670,0,
218.092,3.29498,0.897218,0,18.9514,670,0,
218.092,3.29315,0.89264,0,18.9514,670,0,
218.093,3.29346,0.894166,0,18.9514,670,0,
218.093,3.29315,0.89264,0,18.9514,670,0,
218.093,3.28857,0.89264,0,18.9514,670,0,
218.093,3.28827,0.894166,0,18.9514,670,0,
218.093,3.28918,0.894166,0,18.9514,670,0,
218.093,3.2843,0.894166,0,18.9514,670,0,
218.093,3.284,0.894166,0,18.9514,670,0,
218.093,3.2843,0.891114,0,18.9514,670,0,
218.093,3.27972,0.891114,0,18.9514,670,0,
218.093,3.27942,0.89264,0,18.9514,670,0,
218.093,3.27911,0.89264,0,18.9514,670,0,
218.093,3.27637,0.895692,0,18.9514,670,0,
218.093,3.27423,0.89264,0,18.9514,670,0,
218.093,3.27423,0.897218,0,18.9514,670,0,
218.093,3.27454,0.89264,0,18.9514,670,0,
218.093,3.26935,0.894166,0,18.9514,670,0,
218.093,3.26965,0.89264,0,18.9514,670,0,
218.093,3.26935,0.895692,0,18.9514,670,0,
218.093,3.26385,0.894166,0,18.9514,670,0,
218.093,3.26385,0.89264,0,18.9514,670,0,
218.093,3.26477,0.89264,0,18.9514,670,0,
218.093,3.26172,0.89264,0,18.9514,670,0,
218.093,3.2605,0.89264,0,18.9514,670,0,
218.093,3.25958,0.89264,0,18.9514,670,0,
218.093,3.25928,0.895692,0,18.9514,670,0,
218.093,3.255,0.89264,0,18.9514,670,0,
218.093,3.2547,0.895692,0,18.9514,670,0,
218.093,3.2547,0.89264,0,18.9514,670,0,
218.093,3.25073,0.880433,0,18.9514,670,0,
218.093,3.24921,0.881959,0,18.9514,670,0,
218.094,3.24982,0.883485,0,18.9514,670,0,
218.094,3.24554,0.880433,0,18.9514,670,0,
218.094,3.24463,0.878907,0,18.9514,670,0,
218.094,3.24493,0.885011,0,18.9514,670,0,
218.094,3.24463,0.883485,0,18.9514,670,0,
218.094,3.24005,0.878907,0,18.9514,670,0,
218.094,3.24005,0.881959,0,18.9514,670,0,
218.094,3.23975,0.880433,0,18.9514,670,0,
218.094,3.23486,0.883485,0,18.9514,670,0,
218.094,3.23517,0.878907,0,18.9514,670,0,
218.094,3.23486,0.883485,0,18.9514,670,0,
218.094,3.23059,0.885011,0,18.9514,670,0,
218.094,3.22998,0.885011,0,18.9514,670,0,
218.094,3.22998,0.878907,0,18.9514,670,0,
218.094,3.23029,0.878907,0,18.9514,670,0,
218.094,3.22479,0.880433,0,18.9514,670,0,
218.094,3.2251,0.881959,0,18.9514,670,0,
218.094,3.2254,0.878907,0,18.9514,670,0,
218.094,3.22021,0.880433,0,18.9514,670,0,
218.094,3.22021,0.883485,0,18.9514,670,0,
218.094,3.22083,0.880433,0,18.9514,670,0,
218.094,3.21747,0.877381,0,18.9514,670,0,
218.094,3.21472,0.881959,0,18.9514,670,0,
218.094,3.21625,0.878907,0,18.9514,670,0,
218.094,3.21503,0.880433,0,18.9514,670,0,
218.094,3.21014,0.883485,0,18.9514,670,0,
218.094,3.21014,0.883485,0,18.9514,670,0,
218.094,3.21014,0.883485,0,18.9514,670,0,
218.094,3.20557,0.880433,0,18.9514,670,0,
218.094,3.20587,0.880433,0,18.9514,670,0,
218.095,3.20496,0.881959,0,18.9514,670,0,
218.095,3.20557,0.894166,0,18.9514,670,0,
218.095,3.20068,0.89264,0,18.9514,670,0,
218.095,3.19977,0.897218,0,18.9514,670,0,
218.095,3.20038,0.89264,0,18.9514,670,0,
218.095,3.19611,0.89264,0,18.9514,670,0,
218.095,3.19519,0.894166,0,18.9514,670,0,
218.095,3.1955,0.894166,0,18.9514,670,0,
218.095,3.1955,0.89264,0,18.9514,670,0,
218.095,3.19,0.894166,0,18.9514,670,0,
218.095,3.19092,0.891114,0,18.9514,670,0,
218.095,3.19092,0.89264,0,18.9514,670,0,
218.095,3.18756,0.894166,0,18.9514,670,0,
218.095,3.18542,0.89264,0,18.9514,670,0,
218.095,3.18573,0.891114,0,18.9514,670,0,
218.095,3.18604,0.89264,0,18.9514,670,0,
218.095,3.18146,0.89264,0,18.9514,670,0,
218.095,3.18024,0.891114,0,18.9514,670,0,
218.095,3.18054,0.89264,0,18.9514,670,0,
218.095,3.18054,0.89264,0,18.9514,670,0,
218.095,3.17657,0.894166,0,18.9514,670,0,
218.095,3.17596,0.89264,0,18.9514,670,0,
218.095,3.17566,0.894166,0,18.9514,670,0,
218.095,3.17596,0.895692,0,18.9514,670,0,
218.095,3.17078,0.894166,0,18.9514,670,0,
218.095,3.17078,0.89264,0,18.9514,670,0,
218.095,3.17139,0.895692,0,18.9514,670,0,
218.095,3.16772,0.89264,0,18.9514,670,0,
218.095,3.16589,0.894166,0,18.9514,670,0,
218.095,3.16559,0.894166,0,18.9514,670,0,
218.095,3.16589,0.89264,0,18.9514,670,0,
218.096,3.16345,0.895692,0,18.9514,670,0,
218.096,3.16071,0.895692,0,18.9514,670,0,
218.096,3.16071,0.89264,0,18.9514,670,0,
218.096,3.16162,0.89264,0,18.9514,670,0,
218.096,3.15857,0.894166,0,18.9514,670,0,
218.096,3.15643,0.897218,0,18.9514,670,0,
218.096,3.15613,0.894166,0,18.9514,670,0,
218.096,3.15674,0.895692,0,18.9514,670,0,
218.096,3.15704,0.891114,0,18.9514,670,0,
218.096,3.15155,0.891114,0,18.9514,670,0,
218.096,3.15125,0.898744,0,18.9514,670,0,
218.096,3.15186,0.891114,0,18.9514,670,0,
218.096,3.15155,0.891114,0,18.9514,670,0,
218.096,3.14667,0.895692,0,18.9514,670,0,
218.096,3.14667,0.895692,0,18.9514,670,0,
218.096,3.14636,0.895692,0,18.9514,670,0,
218.096,3.14606,0.895692,0,18.9514,670,0,
218.096,3.14178,0.897218,0,18.9514,670,0,
218.096,3.14178,0.894166,0,18.9514,670,0,
218.096,3.14178,0.89264,0,18.9514,670,0,
218.096,3.14117,0.89264,0,18.9514,670,0,
218.096,3.14117,0.89264,0,18.9514,670,0,
218.096,3.13721,0.894166,0,18.9514,670,0,
218.096,3.13629,0.894166,0,18.9514,670,0,
218.096,3.13721,0.89264,0,18.9514,670,0,
218.096,3.13721,0.89264,0,18.9514,670,0,
218.096,3.13385,0.89264,0,18.9514,670,0,
218.096,3.13202,0.891114,0,18.9514,670,0,
218.096,3.13202,0.894166,0,18.9514,670,0,
218.096,3.13202,0.895692,0,18.9514,670,0,
218.097,3.13141,0.894166,0,18.9514,670,0,
218.097,3.12958,0.894166,0,18.9514,670,0,
218.097,3.12683,0.894166,0,18.9514,670,0,
218.097,3.12653,0.891114,0,18.9514,670,0,
218.097,3.12744,0.891114,0,18.9514,670,0,
218.097,3.12653,0.894166,0,18.9514,670,0,
218.097,3.12317,0.89264,0,18.9514,670,0,
218.097,3.12225,0.894166,0,18.9514,670,0,
218.097,3.12164,0.89264,0,18.9514,670,0,
218.097,3.12195,0.891114,0,18.9514,670,0,
218.097,3.12225,0.895692,0,18.9514,670,0,
218.097,3.12195,0.894166,0,18.9514,670,0,
218.097,3.11707,0.895692,0,18.9514,670,0,
218.097,3.11798,0.894166,0,18.9514,670,0,
218.097,3.11768,0.894166,0,18.9514,670,0,
218.097,3.11737,0.89264,0,18.9514,670,0,
218.097,3.11707,0.895692,0,18.9514,670,0,
218.097,3.11768,0.895692,0,18.9514,670,0,
218.097,3.11218,0.894166,0,18.9514,670,0,
218.097,3.11218,0.889588,0,18.9514,670,0,
218.097,3.11249,0.894166,0,18.9514,670,0,
218.097,3.11249,0.895692,0,18.9514,670,0,
218.097,3.11218,0.895692,0,18.9514,670,0,
218.097,3.11218,0.89264,0,18.9514,670,0,
218.097,3.1076,0.895692,0,18.9514,670,0,
218.097,3.1076,0.895692,0,18.9514,670,0,
218.097,3.1076,0.89264,0,18.9514,670,0,
218.097,3.1076,0.894166,0,18.9514,670,0,
218.097,3.10699,0.889588,0,18.9514,670,0,
218.097,3.1076,0.89264,0,18.9514,670,0,
218.098,3.10822,0.89264,0,18.9514,670,0,
218.098,3.10272,0.894166,0,18.9514,670,0,
218.098,3.10211,0.895692,0,18.9514,670,0,
218.098,3.10272,0.895692,0,18.9514,670,0,
218.098,3.10272,0.891114,0,18.9514,670,0,
218.098,3.10272,0.894166,0,18.9514,670,0,
218.098,3.10272,0.894166,0,18.9514,670,0,
218.098,3.10211,0.891114,0,18.9514,670,0,
218.098,3.09784,0.89264,0,18.9514,670,0,
218.098,3.09723,0.89264,0,18.9514,670,0,
218.098,3.09784,0.89264,0,18.9514,670,0,
218.098,3.09784,0.89264,0,18.9514,670,0,
218.098,3.09784,0.886537,0,18.9514,670,0,
218.098,3.09814,0.883485,0,18.9514,670,0,
218.098,3.09814,0.881959,0,18.9514,670,0,
218.098,3.09814,0.880433,0,18.9514,670,0,
218.098,3.09509,0.880433,0,18.9514,670,0,
218.098,3.09265,0.883485,0,18.9514,670,0,
218.098,3.09235,0.883485,0,18.9514,670,0,
218.098,3.09204,0.878907,0,18.9514,670,0,
218.098,3.09296,0.888062,0,18.9514,670,0,
218.098,3.09265,0.885011,0,18.9514,670,0,
218.098,3.09235,0.881959,0,18.9514,670,0,
218.098,3.09296,0.880433,0,18.9514,670,0,
218.098,3.09296,0.881959,0,18.9514,670,0,
218.098,3.09296,0.880433,0,18.9514,670,0,
218.098,3.08777,0.881959,0,18.9514,670,0,
218.098,3.08838,0.883485,0,18.9514,670,0,
218.098,3.08746,0.880433,0,18.9514,670,0,
218.099,3.08838,0.878907,0,18.9514,670,0,
218.099,3.08838,0.881959,0,18.9514,670,0,
218.099,3.08685,0.883485,0,18.9514,670,0,
218.099,3.08807,0.881959,0,18.9514,670,0,
218.099,3.08777,0.881959,0,18.9514,670,0,
218.099,3.08777,0.881959,0,18.9514,670,0,
218.099,3.08807,0.881959,0,18.9514,670,0,
218.099,3.08746,0.883485,0,18.9514,670,0,
218.099,3.0835,0.881959,0,18.9514,670,0,
218.099,3.08289,0.880433,0,18.9514,670,0,
218.099,3.08289,0.878907,0,18.9514,670,0,
218.099,3.08289,0.880433,0,18.9514,670,0,
218.099,3.08258,0.881959,0,18.9514,670,0,
218.099,3.0835,0.878907,0,18.9514,670,0,
218.099,3.0835,0.880433,0,18.9514,670,0,
218.099,3.08289,0.881959,0,18.9514,670,0,
218.099,3.08319,0.881959,0,18.9514,670,0,
218.099,3.08289,0.880433,0,18.9514,670,0,
218.099,3.08289,0.878907,0,18.9514,670,0,
218.099,3.08289,0.883485,0,18.9514,670,0,
218.099,3.07861,0.883485,0,18.9514,670,0,
218.099,3.078,0.881959,0,18.9514,670,0,
218.099,3.07861,0.880433,0,18.9514,670,0,
218.099,3.078,0.881959,0,18.9514,670,0,
218.099,3.0777,0.883485,0,18.9514,670,0,
218.099,3.07831,0.883485,0,18.9514,670,0,
218.099,3.07831,0.881959,0,18.9514,670,0,
218.099,3.07861,0.881959,0,18.9514,670,0,
218.099,3.07831,0.871278,0,18.9514,670,0,
218.099,3.07739,0.871278,0,18.9514,670,0,
218.1,3.07739,0.865174,0,18.9514,670,0,
218.1,3.07861,0.872804,0,18.9514,670,0,
218.1,3.07556,0.869752,0,18.9514,670,0,
218.1,3.07312,0.868226,3.082,18.9514,670,0,
218.1,3.07312,0.869752,3.082,18.9514,670,0,
218.1,3.07312,0.868226,3.082,18.9514,670,0,
218.1,3.07312,0.869752,3.082,18.9514,670,0,
218.1,3.07404,0.869752,3.082,18.9514,670,0,
218.1,3.07281,0.871278,3.082,18.9514,670,0,
218.1,3.07312,0.869752,3.082,18.9514,670,0,
218.1,3.07281,0.871278,3.082,18.9514,670,0,
218.1,3.07373,0.868226,3.082,18.9514,670,0,
218.1,3.07251,0.868226,3.082,18.9514,670,0,
218.1,3.07343,0.869752,3.082,18.9514,670,0,
218.1,3.07312,0.869752,3.082,18.9514,670,0,
218.1,3.07037,0.868226,3.082,18.9514,670,0,
218.1,3.06824,0.868226,3.082,18.9514,670,0,
218.1,3.06763,0.868226,3.082,18.9514,670,0,
218.1,3.06854,0.869752,3.082,18.9514,670,0,
218.1,3.06824,0.869752,3.082,18.9514,670,0,
218.1,3.06763,0.869752,3.082,18.9514,670,0,
218.1,3.06854,0.860597,3.082,18.9514,670,0,
218.1,3.06793,0.856019,3.082,18.9514,670,0,
218.1,3.06824,0.859071,3.082,18.9514,670,0,
218.1,3.06824,0.857545,3.082,18.9514,670,0,
218.1,3.06885,0.857545,3.082,18.9514,670,0,
218.1,3.06824,0.852967,3.082,18.9514,670,0,
218.1,3.06519,0.854493,3.082,18.9514,670,0,
218.1,3.06305,0.856019,3.082,18.9514,670,0,
218.1,3.06335,0.859071,3.082,18.9514,670,0,
218.101,3.06366,0.857545,3.082,18.9514,670,0,
218.101,3.06244,0.857545,3.082,18.9514,670,0,
218.101,3.06305,0.856019,3.082,18.9514,670,0,
218.101,3.06335,0.859071,3.082,18.9514,670,0,
218.101,3.06335,0.856019,3.082,18.9514,670,0,
218.101,3.06335,0.859071,3.082,18.9514,670,0,
218.101,3.06335,0.854493,3.082,18.9514,670,0,
218.101,3.06335,0.856019,3.082,18.9514,670,0,
218.101,3.06091,0.856019,3.082,18.9514,670,0,
218.101,3.05817,0.859071,3.082,18.9514,670,0,
218.101,3.05878,0.860597,3.082,18.9514,670,0,
218.101,3.05847,0.856019,3.082,18.9514,670,0,
218.101,3.05817,0.859071,3.082,18.9514,670,0,
218.101,3.05847,0.854493,3.082,18.9514,670,0,
218.101,3.05817,0.857545,3.082,18.9514,670,0,
218.101,3.05878,0.859071,3.082,18.9514,670,0,
218.101,3.05908,0.856019,3.082,18.9514,670,0,
218.101,3.05847,0.859071,3.082,18.9514,670,0,
218.101,3.05389,0.859071,3.082,18.9514,670,0,
218.101,3.05359,0.860597,3.082,18.9514,670,0,
218.101,3.05389,0.856019,3.082,18.9514,670,0,
218.101,3.05389,0.857545,3.082,18.9514,670,0,
218.101,3.05328,0.857545,3.082,18.9514,670,0,
218.101,3.05328,0.857545,3.082,18.9514,670,0,
218.101,3.05359,0.857545,3.082,18.9514,670,0,
218.101,3.05389,0.856019,3.082,18.9514,670,0,
218.101,3.04993,0.859071,3.082,18.9514,670,0,
218.101,3.04901,0.857545,3.082,18.9514,670,0,
218.101,3.0481,0.851441,3.082,18.9514,670,0,
218.101,3.0481,0.846864,3.082,18.9514,670,0,
218.101,3.0484,0.846864,3.082,18.9514,670,0,
218.102,3.04932,0.846864,3.082,18.9514,670,0,
218.102,3.04901,0.843812,3.082,18.9514,670,0,
218.102,3.04901,0.845338,3.082,18.9514,670,0,
218.102,3.04382,0.845338,3.082,18.9514,670,0,
218.102,3.04382,0.845338,3.082,18.9514,670,0,
218.102,3.04382,0.842286,3.082,18.9514,670,0,
218.102,3.04352,0.842286,3.082,18.9514,670,0,
218.102,3.04413,0.845338,3.082,18.9514,670,0,
218.102,3.04413,0.84839,3.082,18.9514,670,0,
218.102,3.04382,0.843812,3.082,18.9514,670,0,
218.102,3.03894,0.845338,3.082,18.9514,670,0,
218.102,3.03894,0.845338,3.082,18.9514,670,0,
218.102,3.03864,0.846864,3.082,18.9514,670,0,
218.102,3.03925,0.846864,3.082,18.9514,670,0,
218.102,3.03864,0.845338,3.082,18.9514,670,0,
218.102,3.03864,0.846864,3.082,18.9514,670,0,
218.102,3.03925,0.846864,3.082,18.9514,670,0,
218.102,3.03375,0.845338,3.082,18.9514,670,0,
218.102,3.03406,0.84839,3.082,18.9514,670,0,
218.102,3.03467,0.843812,3.082,18.9514,670,0,
218.102,3.03406,0.845338,3.082,18.9514,670,0,
218.102,3.03375,0.845338,3.082,18.9514,670,0,
218.102,3.03375,0.846864,3.082,18.9514,670,0,
218.102,3.03406,0.846864,3.082,18.9514,670,0,
218.102,3.02917,0.845338,3.082,18.9514,670,0,
218.102,3.02887,0.845338,3.082,18.9514,670,0,
218.102,3.02979,0.845338,3.082,18.9514,670,0,
218.102,3.02948,0.845338,3.082,18.9514,670,0,
218.102,3.02917,0.842286,3.082,18.9514,670,0,
218.102,3.02948,0.846864,3.082,18.9514,670,0,
218.103,3.0246,0.843812,3.082,18.9514,670,0,
218.103,3.02429,0.84839,3.082,18.9514,670,0,
218.103,3.02429,0.843812,3.082,18.9514,670,0,
218.103,3.02429,0.843812,3.082,18.9514,670,0,
218.103,3.02429,0.842286,3.082,18.9514,670,0,
218.103,3.02429,0.846864,3.082,18.9514,670,0,
218.103,3.01971,0.845338,3.082,18.9514,670,0,
218.103,3.01971,0.846864,3.082,18.9514,670,0,
218.103,3.01849,0.845338,3.082,18.9514,670,0,
218.103,3.0191,0.84839,3.082,18.9514,670,0,
218.103,3.01971,0.845338,3.082,18.9514,670,0,
218.103,3.01605,0.846864,3.082,18.9514,670,0,
218.103,3.01422,0.842286,3.082,18.9514,670,0,
218.103,3.01453,0.84839,3.082,18.9514,670,0,
218.103,3.01392,0.845338,3.082,18.9514,670,0,
218.103,3.01483,0.845338,3.082,18.9514,670,0,
218.103,3.01422,0.84839,3.082,18.9514,670,0,
218.103,3.00995,0.846864,3.082,18.9514,670,0,
218.103,3.00964,0.842286,3.082,18.9514,670,0,
218.103,3.00903,0.845338,3.082,18.9514,670,0,
218.103,3.00964,0.846864,3.082,18.9514,670,0,
218.103,3.00964,0.845338,3.082,18.9514,670,0,
218.103,3.00507,0.845338,3.082,18.9514,670,0,
218.103,3.00415,0.845338,3.082,18.9514,670,0,
218.103,3.00507,0.846864,3.082,18.9514,670,0,
218.103,3.00415,0.845338,3.082,18.9514,670,0,
218.103,3.00232,0.846864,3.082,18.9514,670,0,
218.103,2.99896,0.845338,3.082,18.9514,670,0,
218.103,2.99957,0.845338,3.082,18.9514,670,0,
218.103,2.99957,0.84839,3.082,18.9514,670,0,
218.104,3.00018,0.845338,3.082,18.9514,670,0,
218.104,2.99438,0.845338,3.082,18.9514,670,0,
218.104,2.99469,0.84839,3.082,18.9514,670,0,
218.104,2.99469,0.846864,3.082,18.9514,670,0,
218.104,2.99438,0.842286,3.082,18.9514,670,0,
218.104,2.99072,0.843812,3.082,18.9514,670,0,
218.104,2.99011,0.843812,3.082,18.9514,670,0,
218.104,2.9895,0.842286,3.082,18.9514,670,0,
218.104,2.99011,0.846864,3.082,18.9514,670,0,
218.104,2.98553,0.846864,3.082,18.9514,670,0,
218.104,2.98523,0.842286,3.082,18.9514,670,0,
218.104,2.98584,0.843812,3.082,18.9514,670,0,
218.104,2.98462,0.843812,3.082,18.9514,670,0,
218.104,2.98004,0.845338,3.082,18.9514,670,0,
218.104,2.98035,0.845338,3.082,18.9514,670,0,
218.104,2.98035,0.849915,3.082,18.9514,670,0,
218.104,2.98035,0.845338,3.082,18.9514,670,0,
218.104,2.97638,0.845338,3.082,18.9514,670,0,
218.104,2.97516,0.846864,3.082,18.9514,670,0,
218.104,2.97546,0.845338,3.082,18.9514,670,0,
218.104,2.97546,0.843812,3.082,18.9514,670,0,
218.104,2.97028,0.845338,3.082,18.9514,670,0,
218.104,2.9715,0.843812,3.082,18.9514,670,0,
218.104,2.97058,0.845338,3.082,18.9514,670,0,
218.104,2.96783,0.84839,3.082,18.9514,670,0,
218.104,2.9657,0.845338,3.082,18.9514,670,0,
218.104,2.9657,0.849915,3.082,18.9514,670,0,
218.104,2.96631,0.842286,3.082,18.9514,670,0,
218.104,2.96173,0.843812,3.082,18.9514,670,0,
218.105,2.96143,0.845338,3.082,18.9514,670,0,
218.105,2.96082,0.846864,3.082,18.9514,670,0,
218.105,2.95807,0.842286,3.082,18.9514,670,0,
218.105,2.95593,0.846864,3.082,18.9514,670,0,
218.105,2.95593,0.845338,3.082,18.9514,670,0,
218.105,2.95593,0.846864,3.082,18.9514,670,0,
218.105,2.95105,0.843812,3.082,18.9514,670,0,
218.105,2.95135,0.846864,3.082,18.9514,670,0,
218.105,2.95013,0.852967,3.082,18.9514,670,0,
218.105,2.94586,0.857545,3.082,18.9514,670,0,
218.105,2.94586,0.857545,3.082,18.9514,670,0,
218.105,2.94586,0.860597,3.082,18.9514,670,0,
218.105,2.94189,0.859071,3.082,18.9514,670,0,
218.105,2.94067,0.856019,3.082,18.9514,670,0,
218.105,2.94098,0.856019,3.082,18.9514,670,0,
218.105,2.9364,0.856019,3.082,18.9514,670,0,
218.105,2.93579,0.857545,3.082,18.9514,670,0,
218.105,2.93579,0.854493,3.082,18.9514,670,0,
218.105,2.93152,0.859071,3.082,18.9514,670,0,
218.105,2.9303,0.857545,3.082,18.9514,670,0,
218.105,2.93091,0.856019,3.082,18.9514,670,0,
218.105,2.92603,0.857545,3.082,18.9514,670,0,
218.105,2.92603,0.860597,3.082,18.9514,670,0,
218.105,2.92603,0.860597,3.082,18.9514,670,0,
218.105,2.92145,0.860597,3.082,18.9514,670,0,
218.105,2.92114,0.859071,3.082,18.9514,670,0,
218.105,2.91809,0.860597,3.082,18.9514,670,0,
218.105,2.91595,0.857545,3.082,18.9514,670,0,
218.105,2.91626,0.859071,3.082,18.9514,670,0,
218.105,2.91107,0.857545,3.082,18.9514,670,0,
218.106,2.91107,0.852967,3.082,18.9514,670,0,
218.106,2.91077,0.857545,3.082,18.9514,670,0,
218.106,2.9068,0.856019,3.082,18.9514,670,0,
218.106,2.90649,0.8667,3.082,18.9514,670,0,
218.106,2.90131,0.868226,3.082,18.9514,670,0,
218.106,2.90161,0.869752,3.082,18.9514,670,0,
218.106,2.89856,0.868226,3.082,18.9514,670,0,
218.106,2.89673,0.871278,3.082,18.9514,670,0,
218.106,2.89673,0.869752,3.082,18.9514,670,0,
218.106,2.89215,0.871278,3.082,18.9514,670,0,
218.106,2.89154,0.8667,3.082,18.9514,670,0,
218.106,2.88696,0.871278,3.082,18.9514,670,0,
218.106,2.88727,0.869752,3.082,18.9514,670,0,
218.106,2.8833,0.871278,3.082,18.9514,670,0,
218.106,2.88177,0.869752,3.082,18.9514,670,0,
218.106,2.88208,0.869752,3.082,18.9514,670,0,
218.106,2.8775,0.869752,3.082,18.9514,670,0,
218.106,2.87689,0.869752,3.082,18.9514,670,0,
218.106,2.87201,0.871278,3.082,18.9514,670,0,
218.106,2.87292,0.868226,3.082,18.9514,670,0,
218.106,2.86713,0.869752,3.082,18.9514,670,0,
218.106,2.86804,0.869752,3.082,18.9514,670,0,
218.106,2.86255,0.868226,3.082,18.9514,670,0,
218.106,2.86255,0.8667,3.082,18.9514,670,0,
218.106,2.85797,0.8667,3.082,18.9514,670,0,
218.106,2.85736,0.868226,3.082,18.9514,670,0,
218.106,2.85339,0.872804,3.082,18.9514,670,0,
218.106,2.85278,0.871278,3.082,18.9514,670,0,
218.106,2.8479,0.868226,3.082,18.9514,670,0,
218.106,2.8479,0.869752,3.082,18.9514,670,0,
218.107,2.84332,0.869752,3.082,18.9514,670,0,
218.107,2.84332,0.868226,3.082,18.9514,670,0,
218.107,2.83875,0.869752,3.082,18.9514,670,0,
218.107,2.83844,0.872804,3.082,18.9514,670,0,
218.107,2.83478,0.868226,3.082,18.9514,670,0,
218.107,2.83295,0.869752,3.082,18.9514,670,0,
218.107,2.82867,0.869752,3.082,18.9514,670,0,
218.107,2.82776,0.865174,3.082,18.9514,670,0,
218.107,2.82379,0.868226,3.082,18.9514,670,0,
218.107,2.82288,0.872804,3.082,18.9514,670,0,
218.107,2.8186,0.868226,3.082,18.9514,670,0,
218.107,2.8183,0.872804,3.082,18.9514,670,0,
218.107,2.81403,0.871278,3.082,18.9514,670,0,
218.107,2.81372,0.868226,3.082,18.9514,670,0,
218.107,2.80884,0.869752,3.082,18.9514,670,0,
218.107,2.80853,0.869752,3.082,18.9514,670,0,
218.107,2.80396,0.874329,3.082,18.9514,670,0,
218.107,2.80304,0.868226,3.082,18.9514,670,0,
218.107,2.79938,0.871278,3.082,18.9514,670,0,
218.107,2.79633,0.865174,3.082,18.9514,670,0,
218.107,2.79388,0.872804,3.082,18.9514,670,0,
218.107,2.78961,0.868226,3.082,18.9514,670,0,
218.107,2.789,0.868226,3.082,18.9514,670,0,
218.107,2.78503,0.869752,3.082,18.9514,670,0,
218.107,2.78442,0.871278,3.082,18.9514,670,0,
218.107,2.77954,0.869752,3.082,18.9514,670,0,
218.107,2.77893,0.868226,3.082,18.9514,670,0,
218.107,2.77435,0.8667,3.082,18.9514,670,0,
218.107,2.77191,0.868226,3.082,18.9514,670,0,
218.107,2.76947,0.869752,3.082,18.9514,670,0,
218.107,2.76459,0.868226,3.082,18.9514,670,0,
218.108,2.76489,0.869752,3.082,18.9514,670,0,
218.108,2.76062,0.871278,3.082,18.9514,670,0,
218.108,2.7597,0.8667,3.082,18.9514,670,0,
218.108,2.75452,0.868226,3.082,18.9514,670,0,
218.108,2.75055,0.872804,3.082,18.9514,670,0,
218.108,2.75085,0.874329,3.082,18.9514,670,0,
218.108,2.74506,0.869752,3.082,18.9514,670,0,
218.108,2.74536,0.868226,3.082,18.9514,670,0,
218.108,2.73926,0.869752,3.082,18.9514,670,0,
218.108,2.73682,0.869752,3.082,18.9514,670,0,
218.108,2.7356,0.872804,3.082,18.9514,670,0,
218.108,2.73041,0.869752,3.082,18.9514,670,0,
218.108,2.73102,0.868226,3.082,18.9514,670,0,
218.108,2.72522,0.869752,3.082,18.9514,670,0,
218.108,2.72064,0.871278,3.082,18.9514,670,0,
218.108,2.72064,0.871278,3.082,18.9514,670,0,
218.108,2.71576,0.869752,3.082,18.9514,670,0,
218.108,2.71545,0.871278,3.082,18.9514,670,0,
218.108,2.71057,0.868226,3.082,18.9514,670,0,
218.108,2.70599,0.869752,3.082,18.9514,670,0,
218.108,2.7066,0.871278,3.082,18.9514,670,0,
218.108,2.70111,0.868226,3.082,18.9514,670,0,
218.108,2.69745,0.868226,3.082,18.9514,670,0,
218.108,2.69623,0.871278,3.082,18.9514,670,0,
218.108,2.69135,0.871278,3.082,18.9514,670,0,
218.108,2.69135,0.871278,3.082,18.9514,670,0,
218.108,2.68707,0.865174,3.082,18.9514,670,0,
218.108,2.68158,0.868226,3.082,18.9514,670,0,
218.108,2.68127,0.869752,3.082,18.9514,670,0,
218.108,2.67609,0.868226,3.082,18.9514,670,0,
218.109,2.67426,0.865174,3.082,18.9514,670,0,
218.109,2.67151,0.874329,3.082,18.9514,670,0,
218.109,2.66663,0.871278,3.082,18.9514,670,0,
218.109,2.66418,0.868226,3.082,18.9514,670,0,
218.109,2.66174,0.871278,3.082,18.9514,670,0,
218.109,2.65747,0.869752,3.082,18.9514,670,0,
218.109,2.65686,0.871278,3.082,18.9514,670,0,
218.109,2.65228,0.871278,3.082,18.9514,670,0,
218.109,2.64771,0.871278,3.082,18.9514,670,0,
218.109,2.64679,0.869752,3.082,18.9514,670,0,
218.109,2.64282,0.868226,3.082,18.9514,670,0,
218.109,2.63733,0.869752,3.082,18.9514,670,0,
218.109,2.63733,0.872804,3.082,18.9514,670,0,
218.109,2.63214,0.868226,3.082,18.9514,670,0,
218.109,2.62756,0.869752,3.082,18.9514,670,0,
218.109,2.62756,0.869752,3.082,18.9514,670,0,
218.109,2.62299,0.872804,3.082,18.9514,670,0,
218.109,2.61749,0.8667,3.082,18.9514,670,0,
218.109,2.61719,0.871278,3.082,18.9514,670,0,
218.109,2.6123,0.871278,3.082,18.9514,670,0,
218.109,2.60773,0.869752,3.082,18.9514,670,0,
218.109,2.60742,0.871278,3.082,18.9514,670,0,
218.109,2.60193,0.869752,3.082,18.9514,670,0,
218.109,2.59827,0.872804,3.082,18.9514,670,0,
218.109,2.5946,0.868226,3.082,19.698,670,0,
218.109,2.59247,0.868226,3.082,19.698,670,0,
218.109,2.58789,0.868226,3.082,19.698,670,0,
218.109,2.58453,0.869752,3.082,19.698,670,0,
218.109,2.58331,0.869752,3.082,19.698,670,0,
218.109,2.57812,0.868226,3.082,19.698,670,0,
218.11,2.57385,0.869752,3.082,19.698,670,0,
218.11,2.57019,0.868226,3.082,19.698,670,0,
218.11,2.56897,0.871278,3.082,19.698,670,0,
218.11,2.56348,0.871278,3.082,19.698,670,0,
218.11,2.55859,0.869752,3.082,19.698,670,0,
218.11,2.5589,0.8667,3.082,19.698,670,0,
218.11,2.55371,0.869752,3.082,19.698,670,0,
218.11,2.54913,0.8667,3.082,19.698,670,0,
218.11,2.54639,0.869752,3.082,19.698,670,0,
218.11,2.54395,0.868226,3.082,19.698,670,0,
218.11,2.53967,0.872804,3.082,19.698,670,0,
218.11,2.53418,0.869752,3.082,19.698,670,0,
218.11,2.53113,0.868226,3.082,19.698,670,0,
218.11,2.52838,0.871278,3.082,19.698,670,0,
218.11,2.52441,0.859071,3.082,19.698,670,0,
218.11,2.52014,0.860597,3.082,19.698,670,0,
218.11,2.51678,0.857545,3.082,19.698,670,0,
218.11,2.51434,0.857545,3.082,19.698,670,0,
218.11,2.51007,0.856019,3.082,19.698,670,0,
218.11,2.50519,0.856019,3.082,19.698,670,0,
218.11,2.50153,0.854493,3.082,19.698,670,0,
218.11,2.49969,0.854493,3.082,19.698,670,0,
218.11,2.49542,0.859071,3.082,19.698,670,0,
218.11,2.49023,0.856019,3.082,19.698,670,0,
218.11,2.48718,0.859071,3.082,19.698,670,0,
218.11,2.48566,0.857545,3.082,19.698,670,0,
218.11,2.48016,0.856019,3.082,19.698,670,0,
218.11,2.47559,0.856019,3.082,19.698,670,0,
218.11,2.47253,0.857545,3.082,19.698,670,0,
218.111,2.47009,0.857545,3.082,19.698,670,0,
218.111,2.46613,0.856019,3.082,19.698,670,0,
218.111,2.46155,0.857545,3.082,19.698,670,0,
218.111,2.45789,0.856019,3.082,19.698,670,0,
218.111,2.45605,0.854493,3.082,19.698,670,0,
218.111,2.45148,0.856019,3.082,19.698,670,0,
218.111,2.44568,0.857545,3.082,19.698,670,0,
218.111,2.44141,0.854493,3.082,19.698,670,0,
218.111,2.44202,0.856019,3.082,19.698,670,0,
218.111,2.43683,0.856019,3.082,19.698,670,0,
218.111,2.43164,0.857545,3.082,19.698,670,0,
218.111,2.42676,0.856019,3.082,19.698,670,0,
218.111,2.42615,0.859071,3.082,19.698,670,0,
218.111,2.42188,0.857545,3.082,19.698,670,0,
218.111,2.41699,0.857545,3.082,19.698,670,0,
218.111,2.4118,0.854493,3.082,19.698,670,0,
218.111,2.41211,0.856019,3.082,19.698,670,0,
218.111,2.40662,0.854493,3.082,19.698,670,0,
218.111,2.40204,0.859071,3.082,19.698,670,0,
218.111,2.39899,0.856019,3.082,19.698,670,0,
218.111,2.39716,0.857545,3.082,19.698,670,0,
218.111,2.39227,0.857545,3.082,19.698,670,0,
218.111,2.3877,0.857545,3.082,19.698,670,0,
218.111,2.38464,0.856019,3.082,19.698,670,0,
218.111,2.3822,0.856019,3.082,19.698,670,0,
218.111,2.37762,0.860597,3.082,19.698,670,0,
218.111,2.37305,0.857545,3.082,19.698,670,0,
218.111,2.37305,0.854493,3.082,19.698,670,0,
218.111,2.36694,0.854493,3.082,19.698,670,0,
218.111,2.36267,0.859071,3.082,19.698,670,0,
218.112,2.36023,0.856019,3.082,19.698,670,0,
218.112,2.35748,0.857545,3.082,19.698,670,0,
218.112,2.35321,0.846864,3.082,19.698,670,0,
218.112,2.34833,0.843812,3.082,19.698,670,0,
218.112,2.34802,0.846864,3.082,19.698,670,0,
218.112,2.34222,0.846864,3.082,19.698,670,0,
218.112,2.33887,0.84839,3.082,19.698,670,0,
218.112,2.33521,0.846864,3.082,19.698,670,0,
218.112,2.33337,0.843812,3.082,19.698,670,0,
218.112,2.3288,0.846864,3.082,19.698,670,0,
218.112,2.32574,0.845338,3.082,19.698,670,0,
218.112,2.32452,0.846864,3.082,19.698,670,0,
218.112,2.31934,0.84076,3.082,19.698,670,0,
218.112,2.31567,0.843812,3.082,19.698,670,0,
218.112,2.31323,0.84839,3.082,19.698,670,0,
218.112,2.30927,0.845338,3.082,19.698,670,0,
218.112,2.30621,0.845338,3.082,19.698,670,0,
218.112,2.30316,0.842286,3.082,19.698,670,0,
218.112,2.2998,0.846864,3.082,19.698,670,0,
218.112,2.29614,0.845338,3.082,19.698,670,0,
218.112,2.29462,0.845338,3.082,19.698,670,0,
218.112,2.29004,0.84839,3.082,19.698,670,0,
218.112,2.28882,0.846864,3.082,19.698,670,0,
218.112,2.28455,0.845338,3.082,19.698,670,0,
218.112,2.28027,0.846864,3.082,19.698,670,0,
218.112,2.27936,0.846864,3.082,19.698,670,0,
218.112,2.27356,0.84839,3.082,19.698,670,0,
218.112,2.27142,0.842286,3.082,19.698,670,0,
218.112,2.26959,0.846864,3.082,19.698,670,0,
218.112,2.2644,0.84839,3.082,19.698,670,0,
218.113,2.26471,0.843812,3.082,19.698,670,0,
218.113,2.26013,0.84839,3.082,19.698,670,0,
218.113,2.25525,0.843812,3.082,19.698,670,0,
218.113,2.25494,0.84839,3.082,19.698,670,0,
218.113,2.24976,0.845338,3.082,19.698,670,0,
218.113,2.24945,0.845338,3.082,19.698,670,0,
218.113,2.24457,0.846864,3.082,19.698,670,0,
218.113,2.24121,0.843812,3.082,19.698,670,0,
218.113,2.2406,0.846864,3.082,19.698,670,0,
218.113,2.2348,0.846864,3.082,19.698,670,0,
218.113,2.23511,0.846864,3.082,19.698,670,0,
218.113,2.23114,0.843812,3.082,19.698,670,0,
218.113,2.22748,0.846864,3.082,19.698,670,0,
218.113,2.22534,0.846864,3.082,19.698,670,0,
218.113,2.22107,0.845338,3.082,19.698,670,0,
218.113,2.22015,0.846864,3.082,19.698,670,0,
218.113,2.21588,0.846864,3.082,19.698,670,0,
218.113,2.21588,0.846864,3.082,19.698,670,0,
218.113,2.211,0.842286,3.082,19.698,670,0,
218.113,2.21069,0.845338,3.082,19.698,670,0,
218.113,2.20612,0.846864,3.082,19.698,670,0,
218.113,2.20276,0.846864,3.082,19.698,670,0,
218.113,2.20062,0.846864,3.082,19.698,670,0,
218.113,2.19788,0.845338,3.082,19.698,670,0,
218.113,2.19604,0.843812,3.082,19.698,670,0,
218.113,2.19208,0.846864,3.082,19.698,670,0,
218.113,2.19086,0.843812,3.082,19.698,670,0,
218.113,2.18689,0.846864,3.082,19.698,670,0,
218.113,2.18628,0.845338,3.082,19.698,670,0,
218.113,2.18201,0.845338,3.082,19.698,670,0,
218.113,2.1814,0.843812,3.082,19.698,670,0,
218.114,2.17773,0.845338,3.082,19.698,670,0,
218.114,2.1759,0.842286,3.082,19.698,670,0,
218.114,2.17255,0.846864,3.082,19.698,670,0,
218.114,2.17255,0.845338,3.082,19.698,670,0,
218.114,2.16858,0.846864,3.082,19.698,670,0,
218.114,2.16675,0.843812,3.082,19.698,670,0,
218.114,2.16431,0.845338,3.082,19.698,670,0,
218.114,2.16125,0.845338,3.082,19.698,670,0,
218.114,2.15851,0.845338,3.082,19.698,670,0,
218.114,2.15698,0.845338,3.082,19.698,670,0,
218.114,2.15424,0.842286,3.082,19.698,670,0,
218.114,2.1521,0.845338,3.082,19.698,670,0,
218.114,2.1521,0.843812,3.082,19.698,670,0,
218.114,2.14752,0.845338,3.082,19.698,670,0,
218.114,2.14722,0.846864,3.082,19.698,670,0,
218.114,2.14203,0.845338,3.082,19.698,670,0,
218.114,2.14233,0.842286,3.082,19.698,670,0,
218.114,2.13715,0.845338,3.082,19.698,670,0,
218.114,2.13745,0.843812,3.082,19.698,670,0,
218.114,2.13318,0.843812,3.082,19.698,670,0,
218.114,2.13257,0.845338,3.082,19.698,670,0,
218.114,2.12921,0.846864,3.082,19.698,670,0,
218.114,2.12799,0.846864,3.082,19.698,670,0,
218.114,2.12799,0.846864,3.082,19.698,670,0,
218.114,2.1228,0.846864,3.082,19.698,670,0,
218.114,2.1225,0.845338,3.082,19.698,670,0,
218.114,2.11731,0.846864,3.082,19.698,670,0,
218.114,2.11761,0.836183,3.082,19.698,670,0,
218.114,2.11334,0.833131,3.082,19.698,670,0,
218.114,2.11334,0.833131,3.082,19.698,670,0,
218.115,2.1106,0.831605,3.082,19.698,670,0,
218.115,2.10754,0.834657,3.082,19.698,670,0,
218.115,2.10846,0.836183,3.082,19.698,670,0,
218.115,2.10297,0.834657,3.082,19.698,670,0,
218.115,2.10327,0.830079,3.082,19.698,670,0,
218.115,2.099,0.831605,3.082,19.698,670,0,
218.115,2.09778,0.833131,3.082,19.698,670,0,
218.115,2.09564,0.831605,3.082,19.698,670,0,
218.115,2.0932,0.833131,3.082,19.698,670,0,
218.115,2.0932,0.831605,3.082,19.698,670,0,
218.115,2.08893,0.831605,3.082,19.698,670,0,
218.115,2.08832,0.833131,3.082,19.698,670,0,
218.115,2.08374,0.833131,3.082,19.698,670,0,
218.115,2.08344,0.833131,3.082,19.698,670,0,
218.115,2.08099,0.834657,3.082,19.698,670,0,
218.115,2.07825,0.831605,3.082,19.698,670,0,
218.115,2.07916,0.834657,3.082,19.698,670,0,
218.115,2.07367,0.833131,3.082,19.698,670,0,
218.115,2.07367,0.836183,3.082,19.698,670,0,
218.115,2.06879,0.836183,3.082,19.698,670,0,
218.115,2.06421,0.834657,3.082,19.698,670,0,
218.115,2.06329,0.831605,3.082,19.698,670,0,
218.115,2.0636,0.834657,3.082,19.698,670,0,
218.115,2.05841,0.831605,3.082,19.698,670,0,
218.115,2.05902,0.833131,3.082,19.698,670,0,
218.115,2.05353,0.831605,3.082,19.698,670,0,
218.115,2.05383,0.830079,3.082,19.698,670,0,
218.115,2.04987,0.833131,3.082,19.698,670,0,
218.115,2.04895,0.833131,3.082,19.698,670,0,
218.115,2.04865,0.833131,3.082,19.698,670,0,
218.116,2.04376,0.836183,3.082,19.698,670,0,
218.116,2.04468,0.833131,3.082,19.698,670,0,
218.116,2.03918,0.834657,3.082,19.698,670,0,
218.116,2.03888,0.834657,3.082,19.698,670,0,
218.116,2.03674,0.831605,3.082,19.698,670,0,
218.116,2.0343,0.833131,3.082,19.698,670,0,
218.116,2.03461,0.833131,3.082,19.698,670,0,
218.116,2.02972,0.833131,3.082,19.698,670,0,
218.116,2.02972,0.834657,3.082,19.698,670,0,
218.116,2.02484,0.819398,3.082,19.698,670,0,
218.116,2.02484,0.820924,3.082,19.698,670,0,
218.116,2.01996,0.819398,3.082,19.698,670,0,
218.116,2.01965,0.820924,3.082,19.698,670,0,
218.116,2.01508,0.820924,3.082,19.698,670,0,
218.116,2.01447,0.820924,3.082,19.698,670,0,
218.116,2.01202,0.820924,3.082,19.698,670,0,
218.116,2.00989,0.82245,3.082,19.698,670,0,
218.116,2.00745,0.820924,3.082,19.698,670,0,
218.116,2.0047,0.82245,3.082,19.698,670,0,
218.116,2.00226,0.819398,3.082,19.698,670,0,
218.116,1.99951,0.820924,3.082,19.698,670,0,
218.116,1.99768,0.819398,3.082,19.698,670,0,
218.116,1.99585,0.82245,3.082,19.698,670,0,
218.116,1.99219,0.820924,3.082,19.698,670,0,
218.116,1.99097,0.823975,3.082,19.698,670,0,
218.116,1.9873,0.82245,3.082,19.698,670,0,
218.116,1.98517,0.819398,3.082,19.698,670,0,
218.116,1.9812,0.819398,3.082,19.698,670,0,
218.116,1.98059,0.819398,3.082,19.698,670,0,
218.117,1.97632,0.82245,3.082,19.698,670,0,
218.117,1.97571,0.820924,3.082,19.698,670,0,
218.117,1.97052,0.819398,3.082,19.698,670,0,
218.117,1.97083,0.82245,3.082,19.698,670,0,
218.117,1.96625,0.819398,3.082,19.698,670,0,
218.117,1.9635,0.820924,3.082,19.698,670,0,
218.117,1.96136,0.819398,3.082,19.698,670,0,
218.117,1.95648,0.82245,3.082,19.698,670,0,
218.117,1.95557,0.823975,3.082,19.698,670,0,
218.117,1.95099,0.82245,3.082,19.698,670,0,
218.117,1.94885,0.817872,3.082,19.698,670,0,
218.117,1.94611,0.820924,3.082,19.698,670,0,
218.117,1.94153,0.82245,3.082,19.698,670,0,
218.117,1.94122,0.819398,3.082,19.698,670,0,
218.117,1.93665,0.817872,3.082,19.698,670,0,
218.117,1.93298,0.820924,3.082,19.698,670,0,
218.117,1.93085,0.819398,3.082,19.698,670,0,
218.117,1.92688,0.830079,3.082,19.698,670,0,
218.117,1.92291,0.831605,3.082,19.698,670,0,
218.117,1.92139,0.833131,3.082,19.698,670,0,
218.117,1.91681,0.834657,3.082,19.698,670,0,
218.117,1.91193,0.831605,3.082,19.698,670,0,
218.117,1.91162,0.833131,3.082,19.698,670,0,
218.117,1.90704,0.833131,3.082,19.698,670,0,
218.117,1.90186,0.831605,3.082,19.698,670,0,
218.117,1.89972,0.834657,3.082,19.698,670,0,
218.117,1.89758,0.833131,3.082,19.698,670,0,
218.117,1.8924,0.834657,3.082,19.698,670,0,
218.117,1.88812,0.831605,3.082,19.698,670,0,
218.117,1.88477,0.831605,3.082,19.698,670,0,
218.118,1.88263,0.833131,3.082,19.698,670,0,
218.118,1.87775,0.837708,3.082,19.698,670,0,
218.118,1.87286,0.831605,3.082,19.698,670,0,
218.118,1.87042,0.845338,3.082,19.698,670,0,
218.118,1.86798,0.845338,3.082,19.698,670,0,
218.118,1.86279,0.842286,3.082,19.698,670,0,
218.118,1.85852,0.843812,3.082,19.698,670,0,
218.118,1.85425,0.845338,3.082,19.698,670,0,
218.118,1.84814,0.845338,3.082,19.698,670,0,
218.118,1.8457,0.845338,3.082,19.698,670,0,
218.118,1.84326,0.842286,3.082,19.698,670,0,
218.118,1.83838,0.846864,3.082,19.698,670,0,
218.118,1.8335,0.842286,3.082,19.698,670,0,
218.118,1.82861,0.845338,3.082,19.698,670,0,
218.118,1.82404,0.845338,3.082,19.698,670,0,
218.118,1.82312,0.843812,3.082,19.698,670,0,
218.118,1.81854,0.846864,3.082,19.698,670,0,
218.118,1.81335,0.843812,3.082,19.698,670,0,
218.118,1.80908,0.845338,3.082,19.698,670,0,
218.118,1.80359,0.856019,3.082,19.698,670,0,
218.118,1.79932,0.857545,3.082,19.698,670,0,
218.118,1.79504,0.859071,3.082,19.698,670,0,
218.118,1.78986,0.857545,3.082,19.698,670,0,
218.118,1.78467,0.857545,3.082,19.698,670,0,
218.118,1.78192,0.856019,3.082,19.698,670,0,
218.118,1.77643,0.859071,3.082,19.698,670,0,
218.118,1.77185,0.854493,3.082,19.698,670,0,
218.118,1.76605,0.857545,3.082,19.698,670,0,
218.118,1.76208,0.859071,3.082,19.698,670,0,
218.118,1.75659,0.859071,3.082,19.698,670,0,
218.119,1.75201,0.859071,3.082,19.698,670,0,
218.119,1.74805,0.859071,3.082,19.698,670,0,
218.119,1.74316,0.856019,3.082,19.698,670,0,
218.119,1.73828,0.857545,3.082,19.698,670,0,
218.119,1.73248,0.856019,3.082,19.698,670,0,
218.119,1.72791,0.856019,3.082,19.698,670,0,
218.119,1.72272,0.857545,3.082,19.698,670,0,
218.119,1.71814,0.854493,3.082,19.698,670,0,
218.119,1.71173,0.859071,3.082,19.698,670,0,
218.119,1.70746,0.856019,3.082,19.698,670,0,
218.119,1.70227,0.868226,3.082,19.698,670,0,
218.119,1.69708,0.871278,3.082,19.698,670,0,
218.119,1.69189,0.871278,3.082,19.698,670,0,
218.119,1.69128,0.872804,3.082,19.698,670,0,
218.119,1.68701,0.868226,3.082,19.698,670,0,
218.119,1.67969,0.869752,3.082,19.698,670,0,
218.119,1.6748,0.871278,3.082,19.698,670,0,
218.119,1.6684,0.868226,3.082,19.698,670,0,
218.119,1.66351,0.869752,3.082,19.698,670,0,
218.119,1.65802,0.869752,3.082,19.698,670,0,
218.119,1.65253,0.868226,3.082,19.698,670,0,
218.119,1.64764,0.871278,3.082,19.698,670,0,
218.119,1.64215,0.871278,3.082,19.698,670,0,
218.119,1.63452,0.869752,3.082,19.698,670,0,
218.119,1.62964,0.868226,3.082,19.698,670,0,
218.119,1.62262,0.869752,3.082,19.698,670,0,
218.119,1.61835,0.871278,3.082,19.698,670,0,
218.119,1.61224,0.868226,3.082,19.698,670,0,
218.119,1.60767,0.869752,3.082,19.698,670,0,
218.119,1.60004,0.869752,3.082,19.698,670,0,
218.119,1.59485,0.868226,3.082,19.698,670,0,
218.12,1.58875,0.869752,3.082,19.698,670,0,
218.12,1.58325,0.871278,3.082,19.698,670,0,
218.12,1.57837,0.868226,3.082,19.698,670,0,
218.12,1.57166,0.871278,3.082,19.698,670,0,
218.12,1.56555,0.871278,3.082,19.698,670,0,
218.12,1.55914,0.872804,3.082,19.698,670,0,
218.12,1.55396,0.869752,3.082,19.698,670,0,
218.12,1.54877,0.869752,3.082,19.698,670,0,
218.12,1.54144,0.869752,3.082,19.698,670,0,
218.12,1.53503,0.869752,3.082,19.698,670,0,
218.12,1.52985,0.868226,3.082,19.698,670,0,
218.12,1.52466,0.868226,3.082,19.698,670,0,
218.12,1.51611,0.868226,3.082,19.698,670,0,
218.12,1.51031,0.869752,3.082,19.698,670,0,
218.12,1.50513,0.872804,3.082,19.698,670,0,
218.12,1.50055,0.869752,3.082,19.698,670,0,
218.12,1.49231,0.868226,3.082,19.698,670,0,
218.12,1.48651,0.868226,3.082,19.698,670,0,
218.12,1.48102,0.869752,3.082,19.698,670,0,
218.12,1.47583,0.8667,3.082,19.698,670,0,
218.12,1.46729,0.869752,3.082,19.698,670,0,
218.12,1.46149,0.874329,3.082,19.698,670,0,
218.12,1.4566,0.871278,3.082,19.698,670,0,
218.12,1.45111,0.869752,3.082,19.698,670,0,
218.12,1.44318,0.8667,3.082,19.698,670,0,
218.12,1.43677,0.868226,3.082,19.698,670,0,
218.12,1.43097,0.869752,3.082,19.698,670,0,
218.12,1.42609,0.868226,3.082,19.698,670,0,
218.12,1.41876,0.868226,3.082,19.698,670,0,
218.12,1.41205,0.869752,3.082,19.698,670,0,
218.121,1.40625,0.871278,3.082,19.698,670,0,
218.121,1.39923,0.871278,3.082,19.698,670,0,
218.121,1.39343,0.869752,3.082,19.698,670,0,
218.121,1.38763,0.868226,3.082,19.698,670,0,
218.121,1.3797,0.868226,3.082,19.698,670,0,
218.121,1.3736,0.869752,3.082,19.698,670,0,
218.121,1.36841,0.869752,3.082,19.698,670,0,
218.121,1.36322,0.871278,3.082,19.698,670,0,
218.121,1.35559,0.869752,3.082,19.698,670,0,
218.121,1.34888,0.871278,3.082,19.698,670,0,
218.121,1.34338,0.868226,3.082,19.698,670,0,
218.121,1.33514,0.868226,3.082,19.698,670,0,
218.121,1.32904,0.869752,3.082,19.698,670,0,
218.121,1.32385,0.871278,3.082,19.698,670,0,
218.121,1.31592,0.871278,3.082,19.698,670,0,
218.121,1.31042,0.869752,3.082,19.698,670,0,
218.121,1.30402,0.865174,3.082,19.698,670,0,
218.121,1.29639,0.872804,3.082,19.698,670,0,
218.121,1.28998,0.871278,3.082,19.698,670,0,
218.121,1.28479,0.868226,3.082,19.698,670,0,
218.121,1.27655,0.871278,3.082,19.698,670,0,
218.121,1.27045,0.869752,3.082,19.698,670,0,
218.121,1.26495,0.869752,3.082,19.698,670,0,
218.121,1.25763,0.871278,3.082,19.698,670,0,
218.121,1.25061,0.869752,3.082,19.698,670,0,
218.121,1.24603,0.871278,3.082,19.698,670,0,
218.121,1.23718,0.868226,3.082,19.698,670,0,
218.121,1.23138,0.868226,3.082,19.698,670,0,
218.121,1.22345,0.869752,3.082,19.698,670,0,
218.121,1.21674,0.8667,3.082,19.698,670,0,
218.122,1.21185,0.871278,3.082,19.698,670,0,
218.122,1.20361,0.872804,3.082,19.698,670,0,
218.122,1.19751,0.868226,3.082,19.698,670,0,
218.122,1.19141,0.871278,3.082,19.698,670,0,
218.122,1.18408,0.869752,3.082,19.698,670,0,
218.122,1.17706,0.869752,3.082,19.698,670,0,
218.122,1.17188,0.868226,3.082,19.698,670,0,
218.122,1.16425,0.869752,3.082,19.698,670,0,
218.122,1.15814,0.868226,3.082,19.698,670,0,
218.122,1.1499,0.869752,3.082,19.698,670,0,
218.122,1.14288,0.868226,3.082,19.698,670,0,
218.122,1.1377,0.869752,3.082,19.698,670,0,
218.122,1.13037,0.856019,3.082,19.698,670,0,
218.122,1.12335,0.856019,3.082,19.698,670,0,
218.122,1.11816,0.856019,3.082,19.698,670,0,
218.122,1.11023,0.856019,3.082,19.698,670,0,
218.122,1.10382,0.856019,3.082,19.698,670,0,
218.122,1.09528,0.859071,3.082,19.698,670,0,
218.122,1.09039,0.860597,3.082,19.698,670,0,
218.122,1.08337,0.859071,3.082,19.698,670,0,
218.122,1.07605,0.857545,3.082,19.698,670,0,
218.122,1.06995,0.859071,3.082,19.698,670,0,
218.122,1.06415,0.857545,3.082,19.698,670,0,
218.122,1.05652,0.860597,3.082,19.698,670,0,
218.122,1.05042,0.856019,3.082,19.698,670,0,
218.122,1.04187,0.859071,3.082,19.698,670,0,
218.122,1.03546,0.856019,3.082,19.698,670,0,
218.122,1.02997,0.856019,3.082,19.698,670,0,
218.122,1.02203,0.856019,3.082,19.698,670,0,
218.123,1.01593,0.857545,3.082,19.698,670,0,
218.123,1.01074,0.859071,3.082,19.698,670,0,
218.123,1.00189,0.859071,3.082,19.698,670,0,
218.123,0.996094,0.859071,3.082,19.698,670,0,
218.123,0.988159,0.854493,3.082,19.698,670,0,
218.123,0.98114,0.856019,3.082,19.698,670,0,
218.123,0.975647,0.859071,3.082,19.698,670,0,
218.123,0.967712,0.857545,3.082,19.698,670,0,
218.123,0.961914,0.859071,3.082,19.698,670,0,
218.123,0.953369,0.856019,3.082,19.698,670,0,
218.123,0.947266,0.859071,3.082,19.698,670,0,
218.123,0.941467,0.856019,3.082,19.698,670,0,
218.123,0.934753,0.856019,3.082,19.698,670,0,
218.123,0.927429,0.859071,3.082,19.698,670,0,
218.123,0.9198,0.857545,3.082,19.698,670,0,
218.123,0.913086,0.852967,3.082,19.698,670,0,
218.123,0.906982,0.860597,3.082,19.698,670,0,
218.123,0.899963,0.857545,3.082,19.698,670,0,
218.123,0.893555,0.857545,3.082,19.698,670,0,
218.123,0.88501,0.856019,3.082,19.698,670,0,
218.123,0.878601,0.857545,3.082,19.698,670,0,
218.123,0.873108,0.854493,3.082,19.698,670,0,
218.123,0.865479,0.856019,3.082,19.698,670,0,
218.123,0.859375,0.857545,3.082,19.698,670,0,
218.123,0.85144,0.859071,3.082,19.698,670,0,
218.123,0.843811,0.859071,3.082,19.698,670,0,
218.123,0.838623,0.856019,3.082,19.698,670,0,
218.123,0.830383,0.852967,3.082,19.698,670,0,
218.123,0.823975,0.860597,3.082,19.698,670,0,
218.123,0.81604,0.859071,3.082,19.698,670,0,
218.124,0.809326,0.856019,3.082,19.698,670,0,
218.124,0.804138,0.859071,3.082,19.698,670,0,
218.124,0.796509,0.857545,3.082,19.698,670,0,
218.124,0.788879,0.860597,3.082,19.698,670,0,
218.124,0.78125,0.856019,3.082,19.698,670,0,
218.124,0.775452,0.857545,3.082,19.698,670,0,
218.124,0.769653,0.859071,3.082,19.698,670,0,
218.124,0.760498,0.859071,3.082,19.698,670,0,
218.124,0.75531,0.857545,3.082,19.698,670,0,
218.124,0.747986,0.857545,3.082,19.698,670,0,
218.124,0.740356,0.859071,3.082,19.698,670,0,
218.124,0.735168,0.859071,3.082,19.698,670,0,
218.124,0.726013,0.857545,3.082,19.698,670,0,
218.124,0.720215,0.856019,3.082,19.698,670,0,
218.124,0.713196,0.857545,3.082,19.698,670,0,
218.124,0.706787,0.856019,3.082,19.698,670,0,
218.124,0.701599,0.856019,3.082,19.698,670,0,
218.124,0.693665,0.856019,3.082,19.698,670,0,
218.124,0.686951,0.857545,3.082,19.698,670,0,
218.124,0.679016,0.857545,3.082,19.698,670,0,
218.124,0.671997,0.856019,3.082,19.698,670,0,
218.124,0.667725,0.859071,3.082,19.698,670,0,
218.124,0.658875,0.856019,3.082,19.698,670,0,
218.124,0.653076,0.856019,3.082,19.698,670,0,
218.124,0.646667,0.857545,3.082,19.698,670,0,
218.124,0.638123,0.860597,3.082,19.698,670,0,
218.124,0.632629,0.856019,3.082,19.698,670,0,
218.124,0.625305,0.857545,3.082,19.698,670,0,
218.124,0.617676,0.856019,3.082,19.698,670,0,
218.124,0.612793,0.856019,3.082,19.698,670,0,
218.125,0.605774,0.859071,3.082,19.698,670,0,
218.125,0.599365,0.857545,3.082,19.698,670,0,
218.125,0.593567,0.857545,3.082,19.698,670,0,
218.125,0.586243,0.859071,3.082,19.698,670,0,
218.125,0.579529,0.857545,3.082,19.698,670,0,
218.125,0.574036,0.856019,3.082,19.698,670,0,
218.125,0.566406,0.856019,3.082,19.698,670,0,
218.125,0.559998,0.854493,3.082,19.698,670,0,
218.125,0.553894,0.843812,3.082,19.698,670,0,
218.125,0.54657,0.845338,3.082,19.698,670,0,
218.125,0.540161,0.845338,3.082,19.698,670,0,
218.125,0.534668,0.845338,3.082,19.698,670,0,
218.125,0.526733,0.845338,3.082,19.698,670,0,
218.125,0.52063,0.845338,3.082,19.698,670,0,
218.125,0.515137,0.846864,3.082,19.698,670,0,
218.125,0.507812,0.843812,3.082,19.698,670,0,
218.125,0.501099,0.846864,3.082,19.698,670,0,
218.125,0.496826,0.845338,3.082,19.698,670,0,
218.125,0.491028,0.845338,3.082,19.698,670,0,
218.125,0.482178,0.846864,3.082,19.698,670,0,
218.125,0.476379,0.846864,3.082,19.698,670,0,
218.125,0.470886,0.842286,3.082,19.698,670,0,
218.125,0.463257,0.842286,3.082,19.698,670,0,
218.125,0.458679,0.843812,3.082,19.698,670,0,
218.125,0.451965,0.84839,3.082,19.698,670,0,
218.125,0.447083,0.845338,3.082,19.698,670,0,
218.125,0.438538,0.845338,3.082,19.698,670,0,
218.125,0.43396,0.846864,3.082,19.698,670,0,
218.125,0.426941,0.846864,3.082,19.698,670,0,
218.125,0.422363,0.842286,3.082,19.698,670,0,
218.125,0.41687,0.849915,3.082,19.698,670,0,
218.126,0.412292,0.845338,3.082,19.698,670,0,
218.126,0.403748,0.843812,3.082,19.698,670,0,
218.126,0.390625,0.84839,3.082,19.698,670,0,
218.126,0.384521,0.84839,3.082,19.698,670,0,
218.126,0.380249,0.846864,3.082,19.698,670,0,
218.126,0.374146,0.845338,3.082,19.698,670,0,
218.126,0.368652,0.846864,3.082,19.698,670,0,
218.126,0.363159,0.842286,3.082,19.698,670,0,
218.126,0.357971,0.846864,3.082,19.698,670,0,
218.126,0.353088,0.843812,3.082,19.698,670,0,
218.126,0.346375,0.845338,3.082,19.698,670,0,
218.126,0.340881,0.843812,3.082,19.698,670,0,
218.126,0.333862,0.843812,3.082,19.698,670,0,
218.126,0.329285,0.846864,3.082,19.698,670,0,
218.126,0.324097,0.845338,3.082,19.698,670,0,
218.126,0.319214,0.842286,3.082,19.698,670,0,
218.126,0.314331,0.845338,3.082,19.698,670,0,
218.126,0.309448,0.846864,3.082,19.698,670,0,
218.126,0.301208,0.842286,3.082,19.698,670,0,
218.126,0.296631,0.845338,3.082,19.698,670,0,
218.126,0.291748,0.845338,3.082,19.698,670,0,
218.126,0.286865,0.846864,3.082,19.698,670,0,
218.126,0.280457,0.845338,3.082,19.698,670,0,
218.126,0.276184,0.846864,3.082,19.698,670,0,
218.126,0.270081,0.843812,3.082,19.698,670,0,
218.126,0.265808,0.846864,3.082,19.698,670,0,
218.126,0.26062,0.84839,3.082,19.698,670,0,
218.126,0.256042,0.845338,3.082,19.698,670,0,
218.126,0.250549,0.84839,3.082,19.698,670,0,
218.126,0.245972,0.845338,3.082,19.698,670,0,
218.127,0.241089,0.845338,3.082,19.698,670,0,
218.127,0.236511,0.849915,3.082,19.698,670,0,
218.127,0.231323,0.846864,3.082,19.698,670,0,
218.127,0.226135,0.843812,3.082,19.698,670,0,
218.127,0.221252,0.842286,3.082,19.698,670,0,
218.127,0.21637,0.846864,3.082,19.698,670,0,
218.127,0.213013,0.846864,3.082,19.698,670,0,
218.127,0.20874,0.856019,3.082,19.698,670,0,
218.127,0.203247,0.857545,3.082,19.698,670,0,
218.127,0.201111,0.859071,3.082,19.698,670,0,
218.127,0.195618,0.859071,3.082,19.698,670,0,
218.127,0.191956,0.856019,3.082,19.698,670,0,
218.127,0.186462,0.859071,3.082,19.698,670,0,
218.127,0.18219,0.859071,3.082,19.698,670,0,
218.127,0.177612,0.856019,3.082,19.698,670,0,
218.127,0.17395,0.859071,3.082,19.698,670,0,
218.127,0.169067,0.857545,3.082,19.698,670,0,
218.127,0.166931,0.84839,3.082,19.698,670,0,
218.127,0.166931,0.84839,3.082,19.698,670,0,
218.127,0.162354,0.84839,3.082,19.698,670,0,
218.127,0.157776,0.842286,3.082,19.698,670,0,
218.127,0.152893,0.845338,3.082,19.698,670,0,
218.127,0.149841,0.842286,3.082,19.698,670,0,
218.127,0.148315,0.846864,3.082,19.698,670,0,
218.127,0.142517,0.845338,3.082,19.698,670,0,
218.127,0.138245,0.846864,3.082,19.698,670,0,
218.127,0.134888,0.845338,3.082,19.698,670,0,
218.127,0.133057,0.845338,3.082,19.698,670,0,
218.127,0.127869,0.845338,3.082,19.698,670,0,
218.127,0.123291,0.843812,3.082,19.698,670,0,
218.128,0.120239,0.84839,3.082,19.698,670,0,
218.128,0.118103,0.845338,3.082,19.698,670,0,
218.128,0.113525,0.845338,3.082,19.698,670,0,
218.128,0.109863,0.842286,3.082,19.698,670,0,
218.128,0.108337,0.846864,3.082,19.698,670,0,
218.128,0.103455,0.843812,3.082,19.698,670,0,
218.128,0.0997925,0.843812,3.082,19.698,670,0,
218.128,0.0982666,0.833131,3.082,19.698,670,0,
218.128,0.093689,0.831605,3.082,19.698,670,0,
218.128,0.0933838,0.834657,3.082,19.698,670,0,
218.128,0.0888062,0.834657,3.082,19.698,670,0,
218.128,0.0857544,0.828553,3.082,19.698,670,0,
218.128,0.0845337,0.834657,3.082,19.698,670,0,
218.128,0.0796509,0.830079,3.082,19.698,670,0,
218.128,0.0796509,0.833131,3.082,19.698,670,0,
218.128,0.0741577,0.836183,3.082,19.698,670,0,
218.128,0.0750732,0.831605,3.082,19.698,670,0,
218.128,0.0698853,0.830079,3.082,19.698,670,0,
218.128,0.0698853,0.836183,3.082,19.698,670,0,
218.128,0.0643921,0.834657,3.082,19.698,670,0,
218.128,0.0650024,0.831605,3.082,19.698,670,0,
218.128,0.06073,0.820924,3.082,19.698,670,0,
218.128,0.0601196,0.823975,3.082,19.698,670,0,
218.128,0.0570679,0.819398,3.082,19.698,670,0,
218.128,0.0552368,0.823975,3.082,19.698,670,0,
218.128,0.0543213,0.820924,3.082,19.698,670,0,
218.128,0.0500488,0.82245,3.082,19.698,670,0,
218.128,0.0491333,0.819398,3.082,19.698,670,0,
218.128,0.0473022,0.819398,3.082,19.698,670,0,
218.129,0.0460815,0.820924,3.082,19.698,670,0,
218.129,0.0454712,0.819398,3.082,19.698,670,0,
218.129,0.0418091,0.82245,3.082,19.698,670,0,
218.129,0.039978,0.82245,3.082,19.698,670,0,
218.129,0.0405884,0.819398,3.082,19.698,670,0,
218.129,0.0402832,0.82245,3.082,19.698,670,0,
218.129,0.0350952,0.820924,3.082,19.698,670,0,
218.129,0.0354004,0.810243,3.082,19.698,670,0,
218.129,0.0350952,0.805665,3.082,19.698,670,0,
218.129,0.0350952,0.808717,3.082,19.698,670,0,
218.129,0.0311279,0.807191,3.082,19.698,670,0,
218.129,0.0305176,0.807191,3.082,19.698,670,0,
218.129,0.0305176,0.807191,3.082,19.698,670,0,
218.129,0.0305176,0.810243,3.082,19.698,670,0,
218.129,0.0302124,0.808717,3.082,19.698,670,0,
218.129,0.0308228,0.802613,3.082,19.698,670,0,
218.129,0.0308228,0.807191,3.082,19.698,670,0,
218.129,0.0250244,0.805665,3.082,19.698,670,0,
218.129,0.0256348,0.805665,3.082,19.698,670,0,
218.129,0.0259399,0.807191,3.082,19.698,670,0,
218.129,0.0256348,0.805665,3.082,19.698,670,0,
218.129,0.0253296,0.810243,3.082,19.698,670,0,
218.129,0.0259399,0.807191,3.082,19.698,670,0,
218.129,0.0253296,0.807191,3.082,19.698,670,0,
218.129,0.0253296,0.808717,3.082,19.698,670,0,
218.129,0.0253296,0.810243,3.082,19.698,670,0,
218.129,0.0256348,0.810243,3.082,19.698,670,0,
218.129,0.0250244,0.805665,3.082,19.698,670,0,
218.129,0.0305176,0.798036,3.082,19.698,670,0,
218.129,0.0308228,0.799561,3.082,19.698,670,0,
218.13,0.0305176,0.798036,3.082,19.698,670,0,
218.13,0.0311279,0.79651,3.082,19.698,670,0,
218.13,0.0296021,0.799561,3.082,19.698,670,0,
218.13,0.0308228,0.798036,3.082,19.698,670,0,
218.13,0.0350952,0.798036,3.082,19.698,670,0,
218.13,0.0350952,0.79651,3.082,19.698,670,0,
218.13,0.0357056,0.79651,3.082,19.698,670,0,
218.13,0.0350952,0.79651,3.082,19.698,670,0,
218.13,0.0396729,0.79651,3.082,19.698,670,0,
218.13,0.039978,0.794984,3.082,19.698,670,0,
218.13,0.0393677,0.801087,3.082,19.698,670,0,
218.13,0.0430298,0.79651,3.082,19.698,670,0,
218.13,0.0454712,0.793458,3.082,19.698,670,0,
218.13,0.045166,0.794984,3.082,19.698,670,0,
218.13,0.0500488,0.79651,3.082,19.698,670,0,
218.13,0.0500488,0.794984,3.082,19.698,670,0,
218.13,0.0524902,0.794984,3.082,19.698,670,0,
218.13,0.0549316,0.79651,3.082,19.698,670,0,
218.13,0.0552368,0.798036,3.082,19.698,670,0,
218.13,0.0598145,0.794984,3.082,19.698,670,0,
218.13,0.0595093,0.79651,3.082,19.698,670,0,
218.13,0.0646973,0.798036,3.082,19.698,670,0,
218.13,0.0640869,0.799561,3.082,19.698,670,0,
218.13,0.0698853,0.798036,3.082,19.698,670,0,
218.13,0.0726318,0.799561,3.082,19.698,670,0,
218.13,0.0747681,0.793458,3.082,19.698,670,0,
218.13,0.0790405,0.798036,3.082,19.698,670,0,
218.13,0.0793457,0.794984,3.082,19.698,670,0,
218.13,0.0839233,0.79651,3.082,19.698,670,0,
218.13,0.0869751,0.79651,3.082,19.698,670,0,
218.131,0.088501,0.79651,3.082,19.698,670,0,
218.131,0.0930786,0.798036,3.082,19.698,670,0,
218.131,0.0967407,0.798036,3.082,19.698,670,0,
218.131,0.0979614,0.793458,3.082,19.698,670,0,
218.131,0.104065,0.79651,3.082,19.698,670,0,
218.131,0.107422,0.794984,3.082,19.698,670,0,
218.131,0.108337,0.793458,3.082,19.698,670,0,
218.131,0.11322,0.793458,3.082,19.698,670,0,
218.131,0.118408,0.794984,3.082,19.698,670,0,
218.131,0.122986,0.798036,3.082,19.698,670,0,
218.131,0.126343,0.807191,3.082,19.698,670,0,
218.131,0.128784,0.808717,3.082,19.698,670,0,
218.131,0.133667,0.808717,3.082,19.698,670,0,
218.131,0.137939,0.811768,3.082,19.698,670,0,
218.131,0.142517,0.808717,3.082,19.698,670,0,
218.131,0.14679,0.807191,3.082,19.698,670,0,
218.131,0.152283,0.807191,3.082,19.698,670,0,
218.131,0.15564,0.808717,3.082,19.698,670,0,
218.131,0.160217,0.807191,3.082,19.698,670,0,
218.131,0.164795,0.808717,3.082,19.698,670,0,
218.131,0.169678,0.807191,3.082,19.698,670,0,
218.131,0.171814,0.810243,3.082,19.698,670,0,
218.131,0.177307,0.808717,3.082,19.698,670,0,
218.131,0.181885,0.808717,3.082,19.698,670,0,
218.131,0.189819,0.808717,3.082,19.698,670,0,
218.131,0.194092,0.808717,3.082,19.698,670,0,
218.131,0.19928,0.807191,3.082,19.698,670,0,
218.131,0.204468,0.807191,3.082,19.698,670,0,
218.131,0.209656,0.807191,3.082,19.698,670,0,
218.131,0.215759,0.82245,3.082,19.698,670,0,
218.131,0.220337,0.82245,3.082,19.698,670,0,
218.132,0.22644,0.82245,3.082,19.698,670,0,
218.132,0.230713,0.819398,3.082,19.698,670,0,
218.132,0.235901,0.82245,3.082,19.698,670,0,
218.132,0.240784,0.823975,3.082,19.698,670,0,
218.132,0.248413,0.819398,3.082,19.698,670,0,
218.132,0.253296,0.82245,3.082,19.698,670,0,
218.132,0.259399,0.819398,3.082,19.698,670,0,
218.132,0.265503,0.82245,3.082,19.698,670,0,
218.132,0.270081,0.82245,3.082,19.698,670,0,
218.132,0.277405,0.819398,3.082,19.698,670,0,
218.132,0.283813,0.82245,3.082,19.698,670,0,
218.132,0.289917,0.817872,3.082,19.698,670,0,
218.132,0.294495,0.820924,3.082,19.698,670,0,
218.132,0.301819,0.82245,3.082,19.698,670,0,
218.132,0.309143,0.817872,3.082,19.698,670,0,
218.132,0.314026,0.817872,3.082,19.698,670,0,
218.132,0.318909,0.820924,3.082,19.698,670,0,
218.132,0.327148,0.820924,3.082,19.698,670,0,
218.132,0.332947,0.82245,3.082,19.698,670,0,
218.132,0.33905,0.828553,3.082,19.698,670,0,
218.132,0.346985,0.828553,3.082,19.698,670,0,
218.132,0.352783,0.830079,3.082,19.698,670,0,
218.132,0.357971,0.830079,3.082,19.698,670,0,
218.132,0.366821,0.831605,3.082,19.698,670,0,
218.132,0.37262,0.831605,3.082,19.698,670,0,
218.132,0.381165,0.831605,3.082,19.698,670,0,
218.132,0.387268,0.831605,3.082,19.698,670,0,
218.132,0.392761,0.833131,3.082,19.698,670,0,
218.132,0.400085,0.831605,3.082,19.698,670,0,
218.132,0.407104,0.834657,3.082,19.698,670,0,
218.133,0.414734,0.831605,3.082,19.698,670,0,
218.133,0.422363,0.830079,3.082,19.698,670,0,
218.133,0.427246,0.830079,3.082,19.698,670,0,
218.133,0.436401,0.833131,3.082,19.698,670,0,
218.133,0.4422,0.834657,3.082,19.698,670,0,
218.133,0.449524,0.830079,3.082,19.698,670,0,
218.133,0.456543,0.833131,3.082,19.698,670,0,
218.133,0.464478,0.834657,3.082,19.698,670,0,
218.133,0.471497,0.834657,3.082,19.698,670,0,
218.133,0.478516,0.834657,3.082,19.698,670,0,
218.133,0.486145,0.831605,3.082,19.698,670,0,
218.133,0.493469,0.831605,3.082,19.698,670,0,
218.133,0.500488,0.833131,3.082,19.698,670,0,
218.133,0.507812,0.831605,3.082,19.698,670,0,
218.133,0.515442,0.831605,3.082,19.698,670,0,
218.133,0.524902,0.831605,3.082,19.698,670,0,
218.133,0.530701,0.834657,3.082,19.698,670,0,
218.133,0.539246,0.836183,3.082,19.698,670,0,
218.133,0.547485,0.831605,3.082,19.698,670,0,
218.133,0.554199,0.833131,3.082,19.698,670,0,
218.133,0.562744,0.831605,3.082,19.698,670,0,
218.133,0.568848,0.831605,3.082,19.698,670,0,
218.133,0.578918,0.833131,3.082,19.698,670,0,
218.133,0.587158,0.834657,3.082,19.698,670,0,
218.133,0.593872,0.833131,3.082,19.698,670,0,
218.133,0.602417,0.831605,3.082,19.698,670,0,
218.133,0.609131,0.833131,3.082,19.698,670,0,
218.133,0.618896,0.834657,3.082,19.698,670,0,
218.133,0.626221,0.834657,3.082,19.698,670,0,
218.133,0.632935,0.833131,3.082,19.698,670,0,
218.134,0.640869,0.831605,3.082,19.698,670,0,
218.134,0.65094,0.831605,3.082,19.698,670,0,
218.134,0.657043,0.831605,3.082,19.698,670,0,
218.134,0.665283,0.833131,3.082,19.698,670,0,
218.134,0.671997,0.833131,3.082,19.698,670,0,
218.134,0.681458,0.831605,3.082,19.698,670,0,
218.134,0.689697,0.833131,3.082,19.698,670,0,
218.134,0.696106,0.830079,3.082,19.698,670,0,
218.134,0.705566,0.833131,3.082,19.698,670,0,
218.134,0.714111,0.831605,3.082,19.698,670,0,
218.134,0.72113,0.833131,3.082,19.698,670,0,
218.134,0.730286,0.833131,3.082,19.698,670,0,
218.134,0.737915,0.831605,3.082,19.698,670,0,
218.134,0.74585,0.830079,3.082,19.698,670,0,
218.134,0.7547,0.831605,3.082,19.698,670,0,
218.134,0.762939,0.834657,3.082,19.698,670,0,
218.134,0.770874,0.830079,3.082,19.698,670,0,
218.134,0.779419,0.834657,3.082,19.698,670,0,
218.134,0.787659,0.833131,3.082,19.698,670,0,
218.134,0.794678,0.833131,3.082,19.698,670,0,
218.134,0.803223,0.831605,3.082,19.698,670,0,
218.134,0.812073,0.834657,3.082,19.698,670,0,
218.134,0.819092,0.828553,3.082,19.698,670,0,
218.134,0.828857,0.833131,3.082,19.698,670,0,
218.134,0.836487,0.833131,3.082,19.698,670,0,
218.134,0.845947,0.834657,3.082,19.698,670,0,
218.134,0.852661,0.833131,3.082,19.698,670,0,
218.134,0.861511,0.830079,3.082,19.698,670,0,
218.134,0.871277,0.831605,3.082,19.698,670,0,
218.135,0.877686,0.836183,3.082,19.698,670,0,
218.135,0.88501,0.837708,3.082,19.698,670,0,
218.135,0.895081,0.830079,3.082,19.698,670,0,
218.135,0.9021,0.833131,3.082,19.698,670,0,
218.135,0.910339,0.833131,3.082,19.698,670,0,
218.135,0.9198,0.833131,3.082,19.698,670,0,
218.135,0.926819,0.833131,3.082,19.698,670,0,
218.135,0.936584,0.833131,3.082,19.698,670,0,
218.135,0.943604,0.831605,3.082,19.698,670,0,
218.135,0.950928,0.831605,3.082,19.698,670,0,
218.135,0.961304,0.834657,3.082,19.698,670,0,
218.135,0.969238,0.833131,3.082,19.698,670,0,
218.135,0.975952,0.830079,3.082,19.698,670,0,
218.135,0.984802,0.831605,3.082,19.698,670,0,
218.135,0.993958,0.834657,3.082,19.698,670,0,
218.135,1.00006,0.817872,3.082,19.698,670,0,
218.135,1.00861,0.82245,3.082,19.698,670,0,
218.135,1.01776,0.82245,3.082,19.698,670,0,
218.135,1.02448,0.820924,3.082,19.698,670,0,
218.135,1.03241,0.823975,3.082,19.698,670,0,
218.135,1.04218,0.82245,3.082,19.698,670,0,
218.135,1.04858,0.817872,3.082,19.698,670,0,
218.135,1.05652,0.82245,3.082,19.698,670,0,
218.135,1.06323,0.82245,3.082,19.698,670,0,
218.135,1.07361,0.819398,3.082,19.698,670,0,
218.135,1.08185,0.819398,3.082,19.698,670,0,
218.135,1.08887,0.819398,3.082,19.698,670,0,
218.135,1.09772,0.820924,3.082,19.698,670,0,
218.135,1.10626,0.817872,3.082,19.698,670,0,
218.135,1.11298,0.82245,3.082,19.698,670,0,
218.136,1.12061,0.819398,3.082,19.698,670,0,
218.136,1.13037,0.820924,3.082,19.698,670,0,
218.136,1.13739,0.82245,3.082,19.698,670,0,
218.136,1.14563,0.820924,3.082,19.698,670,0,
218.136,1.15173,0.820924,3.082,19.698,670,0,
218.136,1.16211,0.82245,3.082,19.698,670,0,
218.136,1.17004,0.819398,3.082,19.698,670,0,
218.136,1.17615,0.82245,3.082,19.698,670,0,
218.136,1.18439,0.819398,3.082,19.698,670,0,
218.136,1.19171,0.820924,3.082,19.698,670,0,
218.136,1.20117,0.819398,3.082,19.698,670,0,
218.136,1.20972,0.823975,3.082,19.698,670,0,
218.136,1.21582,0.820924,3.082,19.698,670,0,
218.136,1.22375,0.820924,3.082,19.698,670,0,
218.136,1.23077,0.82245,3.082,19.698,670,0,
218.136,1.23871,0.82245,3.082,19.698,670,0,
218.136,1.24542,0.819398,3.082,19.698,670,0,
218.136,1.25427,0.817872,3.082,19.698,670,0,
218.136,1.26251,0.819398,3.082,19.698,670,0,
218.136,1.26953,0.819398,3.082,19.698,670,0,
218.136,1.27777,0.820924,3.082,19.698,670,0,
218.136,1.28418,0.82245,3.082,19.698,670,0,
218.136,1.29211,0.82245,3.082,19.698,670,0,
218.136,1.29944,0.82245,3.082,19.698,670,0,
218.136,1.30707,0.823975,3.082,19.698,670,0,
218.136,1.31439,0.817872,3.082,19.698,670,0,
218.136,1.32355,0.82245,3.082,19.698,670,0,
218.136,1.32904,0.820924,3.082,19.698,670,0,
218.136,1.33789,0.82245,3.082,19.698,670,0,
218.136,1.34369,0.819398,3.082,19.698,670,0,
218.137,1.35315,0.820924,3.082,19.698,670,0,
218.137,1.35803,0.820924,3.082,19.698,670,0,
218.137,1.36749,0.819398,3.082,19.698,670,0,
218.137,1.37329,0.82245,3.082,19.698,670,0,
218.137,1.38214,0.819398,3.082,19.698,670,0,
218.137,1.38794,0.819398,3.082,19.698,670,0,
218.137,1.39709,0.819398,3.082,19.698,670,0,
218.137,1.40198,0.820924,3.082,19.698,670,0,
218.137,1.40991,0.820924,3.082,19.698,670,0,
218.137,1.41724,0.82245,3.082,19.698,670,0,
218.137,1.42426,0.823975,3.082,19.698,670,0,
218.137,1.43127,0.819398,3.082,19.698,670,0,
218.137,1.43921,0.820924,3.082,19.698,670,0,
218.137,1.44592,0.819398,3.082,19.698,670,0,
218.137,1.45386,0.820924,3.082,19.698,670,0,
218.137,1.46027,0.819398,3.082,19.698,670,0,
218.137,1.46606,0.820924,3.082,19.698,670,0,
218.137,1.47461,0.820924,0,19.698,670,0,
218.137,1.48071,0.81482,0,19.698,670,0,
218.137,1.48834,0.825501,0,19.698,670,0,
218.137,1.49506,0.820924,0,19.698,670,0,
218.137,1.50116,0.819398,0,19.698,670,0,
218.137,1.50787,0.82245,0,19.698,670,0,
218.137,1.51428,0.82245,0,19.698,670,0,
218.137,1.51947,0.820924,0,19.698,670,0,
218.137,1.52954,0.820924,0,19.698,670,0,
218.137,1.53534,0.82245,0,19.698,670,0,
218.137,1.54205,0.820924,0,19.698,670,0,
218.137,1.54877,0.82245,0,19.698,670,0,
218.137,1.55426,0.82245,0,19.698,670,0,
218.137,1.56189,0.819398,0,19.698,670,0,
218.138,1.5683,0.820924,0,19.698,670,0,
218.138,1.5741,0.819398,0,19.698,670,0,
218.138,1.58203,0.820924,0,19.698,670,0,
218.138,1.58813,0.82245,0,19.698,670,0,
218.138,1.59363,0.82245,0,19.698,670,0,
218.138,1.60187,0.820924,0,19.698,670,0,
218.138,1.60767,0.817872,0,19.698,670,0,
218.138,1.61346,0.820924,0,19.698,670,0,
218.138,1.62048,0.820924,0,19.698,670,0,
218.138,1.6275,0.820924,0,19.698,670,0,
218.138,1.63269,0.819398,0,19.698,670,0,
218.138,1.63757,0.823975,0,19.698,670,0,
218.138,1.6449,0.82245,0,19.698,670,0,
218.138,1.65161,0.819398,0,19.698,670,0,
218.138,1.65741,0.819398,0,19.698,670,0,
218.138,1.66473,0.820924,0,19.698,670,0,
218.138,1.67114,0.819398,0,19.698,670,0,
218.138,1.67694,0.82245,0,19.698,670,0,
218.138,1.68152,0.819398,0,19.698,670,0,
218.138,1.68945,0.819398,0,19.698,670,0,
218.138,1.69556,0.820924,0,19.698,670,0,
218.138,1.70166,0.82245,0,19.698,670,0,
218.138,1.70563,0.820924,0,19.698,670,0,
218.138,1.71387,0.82245,0,19.698,670,0,
218.138,1.72058,0.816346,0,19.698,670,0,
218.138,1.72516,0.82245,0,19.698,670,0,
218.138,1.73187,0.819398,0,19.698,670,0,
218.138,1.73798,0.820924,0,19.698,670,0,
218.138,1.74469,0.820924,0,19.698,670,0,
218.138,1.74957,0.819398,0,19.698,670,0,
218.139,1.75537,0.819398,0,19.698,670,0,
218.139,1.763,0.820924,0,19.698,670,0,
218.139,1.76727,0.82245,0,19.698,670,0,
218.139,1.77399,0.820924,0,19.698,670,0,
218.139,1.77948,0.82245,0,19.698,670,0,
218.139,1.78436,0.819398,0,19.698,670,0,
218.139,1.7923,0.816346,0,19.698,670,0,
218.139,1.79688,0.817872,0,19.698,670,0,
218.139,1.80389,0.820924,0,19.698,670,0,
218.139,1.80878,0.820924,0,19.698,670,0,
218.139,1.81396,0.82245,0,19.698,670,0,
218.139,1.82129,0.820924,0,19.698,670,0,
218.139,1.82648,0.820924,0,19.698,670,0,
218.139,1.83289,0.82245,0,19.698,670,0,
218.139,1.83746,0.819398,0,19.698,670,0,
218.139,1.84296,0.82245,0,19.698,670,0,
218.139,1.84723,0.819398,0,19.698,670,0,
218.139,1.85608,0.816346,0,19.698,670,0,
218.139,1.86066,0.82245,0,19.698,670,0,
218.139,1.86737,0.82245,0,19.698,670,0,
218.139,1.87256,0.820924,0,19.698,670,0,
218.139,1.87714,0.819398,0,19.698,670,0,
218.139,1.88171,0.82245,0,19.698,670,0,
218.139,1.88721,0.819398,0,19.698,670,0,
218.139,1.8927,0.817872,0,19.698,670,0,
218.139,1.89972,0.82245,0,19.698,670,0,
218.139,1.9043,0.82245,0,19.698,670,0,
218.139,1.91162,0.82245,0,19.698,670,0,
218.139,1.9162,0.82245,0,19.698,670,0,
218.139,1.92078,0.819398,0,19.698,670,0,
218.14,1.92627,0.819398,0,19.698,670,0,
218.14,1.93146,0.825501,0,19.698,670,0,
218.14,1.93634,0.82245,0,19.698,670,0,
218.14,1.94366,0.82245,0,19.698,670,0,
218.14,1.94855,0.817872,0,19.698,670,0,
218.14,1.95374,0.82245,0,19.698,670,0,
218.14,1.96014,0.817872,0,19.698,670,0,
218.14,1.96472,0.816346,0,19.698,670,0,
218.14,1.97021,0.82245,0,19.698,670,0,
218.14,1.97571,0.819398,0,19.698,670,0,
218.14,1.98029,0.82245,0,19.698,670,0,
218.14,1.98486,0.817872,0,19.698,670,0,
218.14,1.99097,0.82245,0,19.698,670,0,
218.14,1.99524,0.82245,0,19.698,670,0,
218.14,2.00287,0.820924,0,19.698,670,0,
218.14,2.00806,0.820924,0,19.698,670,0,
218.14,2.01263,0.820924,0,19.698,670,0,
218.14,2.01752,0.82245,0,19.698,670,0,
218.14,2.02393,0.820924,0,19.698,670,0,
218.14,2.02881,0.819398,0,19.698,670,0,
218.14,2.03339,0.819398,0,19.698,670,0,
218.14,2.03918,0.820924,0,19.698,670,0,
218.14,2.04376,0.819398,0,19.698,670,0,
218.14,2.04865,0.825501,0,19.698,670,0,
218.14,2.05414,0.820924,0,19.698,670,0,
218.14,2.05872,0.819398,0,19.698,670,0,
218.14,2.06421,0.82245,0,19.698,670,0,
218.14,2.06909,0.817872,0,19.698,670,0,
218.14,2.07611,0.819398,0,19.698,670,0,
218.141,2.08038,0.823975,0,19.698,670,0,
218.141,2.08588,0.820924,0,19.698,670,0,
218.141,2.09137,0.819398,0,19.698,670,0,
218.141,2.09717,0.819398,0,19.698,670,0,
218.141,2.10236,0.819398,0,19.698,670,0,
218.141,2.10785,0.819398,0,19.698,670,0,
218.141,2.11243,0.820924,0,19.698,670,0,
218.141,2.11792,0.820924,0,19.698,670,0,
218.141,2.1225,0.820924,0,19.698,670,0,
218.141,2.12769,0.823975,0,19.698,670,0,
218.141,2.13226,0.817872,0,19.698,670,0,
218.141,2.13776,0.82245,0,19.698,670,0,
218.141,2.14264,0.82245,0,19.698,670,0,
218.141,2.14752,0.817872,0,19.698,670,0,
218.141,2.1524,0.820924,0,19.698,670,0,
218.141,2.16034,0.819398,0,19.698,670,0,
218.141,2.16431,0.820924,0,19.698,670,0,
218.141,2.16949,0.819398,0,19.698,670,0,
218.141,2.17499,0.819398,0,19.698,670,0,
218.141,2.18079,0.82245,0,19.698,670,0,
218.141,2.18597,0.819398,0,19.698,670,0,
218.141,2.19055,0.82245,0,19.698,670,0,
218.141,2.19574,0.817872,0,19.698,670,0,
218.141,2.20001,0.819398,0,19.698,670,0,
218.141,2.2052,0.820924,0,19.698,670,0,
218.141,2.21008,0.819398,0,19.698,670,0,
218.141,2.21497,0.820924,0,19.698,670,0,
218.141,2.22076,0.820924,0,19.698,670,0,
218.141,2.22595,0.819398,0,19.698,670,0,
218.141,2.23053,0.816346,0,19.698,670,0,
218.142,2.23572,0.820924,0,19.698,670,0,
218.142,2.24091,0.831605,0,19.698,670,0,
218.142,2.24823,0.833131,0,19.698,670,0,
218.142,2.2522,0.834657,0,19.698,670,0,
218.142,2.25769,0.831605,0,19.698,670,0,
218.142,2.26288,0.833131,0,19.698,670,0,
218.142,2.26929,0.834657,0,19.698,670,0,
218.142,2.27386,0.834657,0,19.698,670,0,
218.142,2.27966,0.831605,0,19.698,670,0,
218.142,2.28394,0.836183,0,19.698,670,0,
218.142,2.28912,0.833131,0,19.698,670,0,
218.142,2.2934,0.834657,0,19.698,670,0,
218.142,2.29889,0.833131,0,19.698,670,0,
218.142,2.30469,0.836183,0,19.698,670,0,
218.142,2.30865,0.831605,0,19.698,670,0,
218.142,2.31354,0.831605,0,19.698,670,0,
218.142,2.31873,0.833131,0,19.698,670,0,
218.142,2.32635,0.834657,0,19.698,670,0,
218.142,2.33093,0.834657,0,19.698,670,0,
218.142,2.33643,0.834657,0,19.698,670,0,
218.142,2.34131,0.830079,0,19.698,670,0,
218.142,2.34772,0.831605,0,19.698,670,0,
218.142,2.35229,0.831605,0,19.698,670,0,
218.142,2.35718,0.831605,0,19.698,670,0,
218.142,2.36237,0.828553,0,19.698,670,0,
218.142,2.36694,0.833131,0,19.698,670,0,
218.142,2.37213,0.833131,0,19.698,670,0,
218.142,2.37732,0.831605,0,19.698,670,0,
218.142,2.38281,0.833131,0,19.698,670,0,
218.142,2.38739,0.830079,0,19.698,670,0,
218.143,2.39563,0.836183,0,19.698,670,0,
218.143,2.3996,0.831605,0,19.698,670,0,
218.143,2.40479,0.833131,0,19.698,670,0,
218.143,2.40906,0.831605,0,19.698,670,0,
218.143,2.41547,0.833131,0,19.698,670,0,
218.143,2.42126,0.830079,0,19.698,670,0,
218.143,2.42584,0.830079,0,19.698,670,0,
218.143,2.43164,0.830079,0,19.698,670,0,
218.143,2.43561,0.836183,0,19.698,670,0,
218.143,2.44141,0.831605,0,19.698,670,0,
218.143,2.44659,0.834657,0,19.698,670,0,
218.143,2.45117,0.833131,0,19.698,670,0,
218.143,2.45575,0.833131,0,19.698,670,0,
218.143,2.46368,0.833131,0,19.698,670,0,
218.143,2.46826,0.833131,0,19.698,670,0,
218.143,2.47314,0.833131,0,19.698,670,0,
218.143,2.47925,0.833131,0,19.698,670,0,
218.143,2.48474,0.833131,0,19.698,670,0,
218.143,2.49023,0.830079,0,19.698,670,0,
218.143,2.49451,0.834657,0,19.698,670,0,
218.143,2.5,0.837708,0,19.698,670,0,
218.143,2.50427,0.834657,0,19.698,670,0,
218.143,2.50977,0.830079,0,19.698,670,0,
218.143,2.51465,0.833131,0,19.698,670,0,
218.143,2.51892,0.831605,0,19.698,670,0,
218.143,2.52747,0.833131,0,19.698,670,0,
218.143,2.53174,0.831605,0,19.698,670,0,
218.143,2.53784,0.831605,0,19.698,670,0,
218.143,2.5412,0.836183,0,19.698,670,0,
218.143,2.54791,0.833131,0,19.698,670,0,
218.143,2.55371,0.830079,0,19.698,670,0,
218.144,2.55859,0.833131,0,19.698,670,0,
218.144,2.56409,0.831605,0,19.698,670,0,
218.144,2.56897,0.831605,0,19.698,670,0,
218.144,2.57355,0.833131,0,19.698,670,0,
218.144,2.57874,0.831605,0,19.698,670,0,
218.144,2.58301,0.831605,0,19.698,670,0,
218.144,2.5882,0.833131,0,19.698,670,0,
218.144,2.59613,0.828553,0,19.698,670,0,
218.144,2.60071,0.836183,0,19.698,670,0,
218.144,2.60559,0.833131,0,19.698,670,0,
218.144,2.6123,0.831605,0,19.698,670,0,
218.144,2.61658,0.831605,0,19.698,670,0,
218.144,2.62207,0.827027,0,19.698,670,0,
218.144,2.62604,0.828553,0,19.698,670,0,
218.144,2.63214,0.833131,0,19.698,670,0,
218.144,2.63702,0.836183,0,19.698,670,0,
218.144,2.6413,0.831605,0,19.698,670,0,
218.144,2.6474,0.833131,0,19.698,670,0,
218.144,2.65198,0.833131,0,19.698,670,0,
218.144,2.65717,0.833131,0,19.698,670,0,
218.144,2.66418,0.833131,0,19.698,670,0,
218.144,2.66907,0.834657,0,19.698,670,0,
218.144,2.67395,0.831605,0,19.698,670,0,
218.144,2.68036,0.831605,0,19.698,670,0,
218.144,2.68555,0.836183,0,19.698,670,0,
218.144,2.68982,0.833131,0,19.698,670,0,
218.144,2.69592,0.834657,0,19.698,670,0,
218.144,2.7002,0.830079,0,19.698,670,0,
218.144,2.70569,0.830079,0,19.698,670,0,
218.144,2.71088,0.831605,0,19.698,670,0,
218.145,2.71545,0.830079,0,19.698,670,0,
218.145,2.72003,0.833131,0,19.698,670,0,
218.145,2.72552,0.833131,0,19.698,670,0,
218.145,2.73041,0.834657,0,19.698,670,0,
218.145,2.73804,0.833131,0,19.698,670,0,
218.145,2.74292,0.830079,0,19.698,670,0,
218.145,2.7475,0.831605,0,19.698,670,0,
218.145,2.75238,0.836183,0,19.698,670,0,
218.145,2.7597,0.833131,0,19.698,670,0,
218.145,2.7652,0.834657,0,19.698,670,0,
218.145,2.76886,0.834657,0,19.698,670,0,
218.145,2.77374,0.834657,0,19.698,670,0,
218.145,2.77893,0.828553,0,19.698,670,0,
218.145,2.78381,0.831605,0,19.698,670,0,
218.145,2.789,0.833131,0,19.698,670,0,
218.145,2.79358,0.831605,0,19.698,670,0,
218.145,2.79846,0.831605,0,19.698,670,0,
218.145,2.80365,0.834657,0,19.698,670,0,
218.145,2.80884,0.833131,0,19.698,670,0,
218.145,2.81372,0.833131,0,19.698,670,0,
218.145,2.81921,0.830079,0,19.698,670,0,
218.145,2.82288,0.831605,0,19.698,670,0,
218.145,2.82867,0.833131,0,19.698,670,0,
218.145,2.83325,0.827027,0,19.698,670,0,
218.145,2.84058,0.833131,0,19.698,670,0,
218.145,2.84576,0.833131,0,19.698,670,0,
218.145,2.85065,0.833131,0,19.698,670,0,
218.145,2.85492,0.831605,0,19.698,670,0,
218.145,2.86011,0.831605,0,19.698,670,0,
218.145,2.86499,0.831605,0,19.698,670,0,
218.146,2.87018,0.831605,0,19.698,670,0,
218.146,2.87476,0.833131,0,19.698,670,0,
218.146,2.87964,0.831605,0,19.698,670,0,
218.146,2.88605,0.831605,0,19.698,670,0,
218.146,2.89154,0.831605,0,19.698,670,0,
218.146,2.89734,0.831605,0,19.698,670,0,
218.146,2.901,0.831605,0,19.698,670,0,
218.146,2.90619,0.833131,0,19.698,670,0,
218.146,2.91077,0.831605,0,19.698,670,0,
218.146,2.91626,0.831605,0,19.698,670,0,
218.146,2.92053,0.833131,0,19.698,670,0,
218.146,2.92572,0.831605,0,19.698,670,0,
218.146,2.9306,0.833131,0,19.698,670,0,
218.146,2.93549,0.831605,0,19.698,670,0,
218.146,2.94067,0.831605,0,19.698,670,0,
218.146,2.94556,0.834657,0,19.698,670,0,
218.146,2.95044,0.833131,0,19.698,670,0,
218.146,2.95319,0.834657,0,19.698,670,0,
218.146,2.95807,0.834657,0,19.698,670,0,
218.146,2.96326,0.831605,0,19.698,670,0,
218.146,2.96844,0.834657,0,19.698,670,0,
218.146,2.97241,0.833131,0,19.698,670,0,
218.146,2.97791,0.833131,0,19.698,670,0,
218.146,2.9834,0.833131,0,19.698,670,0,
218.146,2.98798,0.833131,0,19.698,670,0,
218.146,2.99103,0.831605,0,19.698,670,0,
218.146,2.99469,0.831605,0,19.698,670,0,
218.146,2.99988,0.831605,0,19.698,670,0,
218.146,3.00446,0.833131,0,19.698,670,0,
218.147,3.00934,0.834657,0,19.698,670,0,
218.147,3.01453,0.830079,0,19.698,670,0,
218.147,3.0191,0.830079,0,19.698,670,0,
218.147,3.02399,0.82245,0,19.698,670,0,
218.147,3.02887,0.82245,0,19.698,670,0,
218.147,3.03314,0.819398,0,19.698,670,0,
218.147,3.03802,0.823975,0,19.698,670,0,
218.147,3.04382,0.820924,0,19.698,670,0,
218.147,3.0484,0.82245,0,19.698,670,0,
218.147,3.05176,0.823975,0,19.698,670,0,
218.147,3.05664,0.82245,0,19.698,670,0,
218.147,3.05878,0.82245,0,19.698,670,0,
218.147,3.06335,0.819398,0,19.698,670,0,
218.147,3.06854,0.820924,0,19.698,670,0,
218.147,3.07343,0.823975,0,19.698,670,0,
218.147,3.07861,0.819398,0,19.698,670,0,
218.147,3.08411,0.820924,0,19.698,670,0,
218.147,3.08746,0.820924,0,19.698,670,0,
218.147,3.09265,0.819398,0,19.698,670,0,
218.147,3.09662,0.820924,0,19.698,670,0,
218.147,3.1012,0.820924,0,19.698,670,0,
218.147,3.10303,0.82245,0,19.698,670,0,
218.147,3.10791,0.819398,0,19.698,670,0,
218.147,3.11157,0.820924,0,19.698,670,0,
218.147,3.11676,0.82245,0,19.698,670,0,
218.147,3.12195,0.819398,0,19.698,670,0,
218.147,3.12653,0.820924,0,19.698,670,0,
218.147,3.13141,0.820924,0,19.698,670,0,
218.147,3.13446,0.820924,0,19.698,670,0,
218.147,3.13721,0.820924,0,19.698,670,0,
218.148,3.14209,0.819398,0,19.698,670,0,
218.148,3.14636,0.82245,0,19.698,670,0,
218.148,3.15155,0.819398,0,19.698,670,0,
218.148,3.15582,0.82245,0,19.698,670,0,
218.148,3.16101,0.820924,0,19.698,670,0,
218.148,3.16437,0.820924,0,19.698,670,0,
218.148,3.16589,0.820924,0,19.698,670,0,
218.148,3.17078,0.820924,0,19.698,670,0,
218.148,3.17566,0.820924,0,19.698,670,0,
218.148,3.18054,0.825501,0,19.698,670,0,
218.148,3.18512,0.820924,0,19.698,670,0,
218.148,3.18848,0.82245,0,19.698,670,0,
218.148,3.19427,0.819398,0,19.698,670,0,
218.148,3.1958,0.820924,0,19.698,670,0,
218.148,3.20068,0.820924,0,19.698,670,0,
218.148,3.20526,0.817872,0,19.698,670,0,
218.148,3.21014,0.823975,0,19.698,670,0,
218.148,3.2132,0.820924,0,19.698,670,0,
218.148,3.21503,0.819398,0,19.698,670,0,
218.148,3.21991,0.82245,0,19.698,670,0,
218.148,3.2254,0.825501,0,19.698,670,0,
218.148,3.22876,0.82245,0,19.698,670,0,
218.148,3.23395,0.82245,0,19.698,670,0,
218.148,3.23792,0.819398,0,19.698,670,0,
218.148,3.23914,0.817872,0,19.698,670,0,
218.148,3.24432,0.823975,0,19.698,670,0,
218.148,3.24921,0.819398,0,19.698,670,0,
218.148,3.25165,0.823975,0,19.698,670,0,
218.148,3.2547,0.817872,0,19.698,670,0,
218.148,3.25928,0.819398,0,19.698,670,0,
218.149,3.26355,0.823975,0,19.698,670,0,
218.149,3.26813,0.819398,0,19.698,670,0,
218.149,3.2724,0.820924,0,19.698,670,0,
218.149,3.27423,0.819398,0,19.698,670,0,
218.149,3.27881,0.82245,0,19.698,670,0,
218.149,3.28369,0.819398,0,19.698,670,0,
218.149,3.28705,0.820924,0,19.698,670,0,
218.149,3.28888,0.820924,0,19.698,670,0,
218.149,3.29407,0.817872,0,19.698,670,0,
218.149,3.29865,0.819398,0,19.698,670,0,
218.149,3.30109,0.819398,0,19.698,670,0,
218.149,3.30353,0.82245,0,19.698,670,0,
218.149,3.30811,0.819398,0,19.698,670,0,
218.149,3.3136,0.82245,0,19.698,670,0,
218.149,3.31635,0.819398,0,19.698,670,0,
218.149,3.31818,0.817872,0,19.698,670,0,
218.149,3.32245,0.819398,0,19.698,670,0,
218.149,3.32794,0.82245,0,19.698,670,0,
218.149,3.33038,0.819398,0,19.698,670,0,
218.149,3.33252,0.820924,0,19.698,670,0,
218.149,3.3374,0.817872,0,19.698,670,0,
218.149,3.34198,0.820924,0,19.698,670,0,
218.149,3.34503,0.820924,0,19.698,670,0,
218.149,3.34747,0.819398,0,19.698,670,0,
218.149,3.35205,0.82245,0,19.698,670,0,
218.149,3.35632,0.819398,0,19.698,670,0,
218.149,3.35693,0.82245,0,19.698,670,0,
218.149,3.36243,0.820924,0,19.698,670,0,
218.149,3.3667,0.82245,0,19.698,670,0,
218.149,3.37006,0.820924,0,19.698,670,0,
218.149,3.37189,0.819398,0,19.698,670,0,
218.15,3.37646,0.819398,0,19.698,670,0,
218.15,3.37982,0.817872,0,19.698,670,0,
218.15,3.38165,0.817872,0,19.698,670,0,
218.15,3.38654,0.820924,0,19.698,670,0,
218.15,3.39111,0.819398,0,19.698,670,0,
218.15,3.39203,0.819398,0,19.698,670,0,
218.15,3.39722,0.819398,0,19.698,670,0,
218.15,3.40149,0.820924,0,19.698,670,0,
218.15,3.40454,0.820924,0,19.698,670,0,
218.15,3.40668,0.817872,0,19.698,670,0,
218.15,3.41156,0.820924,0,19.698,670,0,
218.15,3.41431,0.82245,0,19.698,670,0,
218.15,3.41644,0.82245,0,19.698,670,0,
218.15,3.42102,0.817872,0,19.698,670,0,
218.15,3.42407,0.82245,0,19.698,670,0,
218.15,3.4259,0.819398,0,19.698,670,0,
218.15,3.43109,0.820924,0,19.698,670,0,
218.15,3.43353,0.82245,0,19.698,670,0,
218.15,3.43567,0.820924,0,19.698,670,0,
218.15,3.44025,0.819398,0,19.698,670,0,
218.15,3.44086,0.820924,0,19.698,670,0,
218.15,3.44574,0.820924,0,19.698,670,0,
218.15,3.44971,0.820924,0,19.698,670,0,
218.15,3.45062,0.820924,0,19.698,670,0,
218.15,3.4552,0.820924,0,19.698,670,0,
218.15,3.45825,0.82245,0,19.698,670,0,
218.15,3.46039,0.820924,0,19.698,670,0,
218.15,3.46497,0.833131,0,19.698,670,0,
218.15,3.46863,0.833131,0,19.698,670,0,
218.15,3.46985,0.834657,0,19.698,670,0,
218.151,3.47473,0.833131,0,19.698,670,0,
218.151,3.47534,0.831605,0,19.698,670,0,
218.151,3.48022,0.833131,0,19.698,670,0,
218.151,3.48297,0.831605,0,19.698,670,0,
218.151,3.4848,0.833131,0,19.698,670,0,
218.151,3.48877,0.831605,0,19.698,670,0,
218.151,3.48938,0.834657,0,19.698,670,0,
218.151,3.49487,0.833131,0,19.698,670,0,
218.151,3.49731,0.833131,0,19.698,670,0,
218.151,3.49976,0.836183,0,19.698,670,0,
218.151,3.50342,0.831605,0,19.698,670,0,
218.151,3.50464,0.833131,0,19.698,670,0,
218.151,3.50891,0.833131,0,19.698,670,0,
218.151,3.50922,0.830079,0,19.698,670,0,
218.151,3.5141,0.836183,0,19.698,670,0,
218.151,3.51746,0.833131,0,19.698,670,0,
218.151,3.5199,0.833131,0,19.698,670,0,
218.151,3.52417,0.830079,0,19.698,670,0,
218.151,3.52417,0.833131,0,19.698,670,0,
218.151,3.52783,0.834657,0,19.698,670,0,
218.151,3.52905,0.836183,0,19.698,670,0,
218.151,3.53333,0.831605,0,19.698,670,0,
218.151,3.53394,0.833131,0,19.698,670,0,
218.151,3.53821,0.833131,0,19.698,670,0,
218.151,3.53912,0.831605,0,19.698,670,0,
218.151,3.5437,0.836183,0,19.698,670,0,
218.151,3.54645,0.833131,0,19.698,670,0,
218.151,3.54828,0.833131,0,19.698,670,0,
218.151,3.55133,0.833131,0,19.698,670,0,
218.151,3.55347,0.836183,0,19.698,670,0,
218.152,3.55652,0.834657,0,19.698,670,0,
218.152,3.55865,0.831605,0,19.698,670,0,
218.152,3.56171,0.834657,0,19.698,670,0,
218.152,3.56262,0.831605,0,19.698,670,0,
218.152,3.56567,0.831605,0,19.698,670,0,
218.152,3.56781,0.833131,0,19.698,670,0,
218.152,3.57056,0.831605,0,19.698,670,0,
218.152,3.57269,0.830079,0,19.698,670,0,
218.152,3.57605,0.833131,0,19.698,670,0,
218.152,3.57849,0.833131,0,19.698,670,0,
218.152,3.58124,0.834657,0,19.698,670,0,
218.152,3.58215,0.831605,0,19.698,670,0,
218.152,3.58582,0.834657,0,19.698,670,0,
218.152,3.58734,0.831605,0,19.698,670,0,
218.152,3.58795,0.831605,0,19.698,670,0,
218.152,3.59192,0.831605,0,19.698,670,0,
218.152,3.59222,0.828553,0,19.698,670,0,
218.152,3.59711,0.834657,0,19.698,670,0,
218.152,3.59772,0.833131,0,19.698,670,0,
218.152,3.60199,0.837708,0,19.698,670,0,
218.152,3.60229,0.845338,0,19.698,670,0,
218.152,3.60596,0.843812,0,19.698,670,0,
218.152,3.60626,0.845338,0,19.698,670,0,
218.152,3.60992,0.842286,0,19.698,670,0,
218.152,3.61206,0.845338,0,19.698,670,0,
218.152,3.6145,0.846864,0,19.698,670,0,
218.152,3.61633,0.843812,0,19.698,670,0,
218.152,3.61725,0.845338,0,19.698,670,0,
218.152,3.62152,0.845338,0,19.698,670,0,
218.153,3.62122,0.842286,0,19.698,670,0,
218.153,3.62549,0.843812,0,19.698,670,0,
218.153,3.62671,0.842286,0,19.698,670,0,
218.153,3.62915,0.846864,0,19.698,670,0,
218.153,3.63129,0.842286,0,19.698,670,0,
218.153,3.63129,0.843812,0,19.698,670,0,
218.153,3.63647,0.843812,0,19.698,670,0,
218.153,3.63586,0.846864,0,19.698,670,0,
218.153,3.64044,0.842286,0,19.698,670,0,
218.153,3.64166,0.846864,0,19.698,670,0,
218.153,3.64471,0.845338,0,19.698,670,0,
218.153,3.64624,0.845338,0,19.698,670,0,
218.153,3.64594,0.846864,0,19.698,670,0,
218.153,3.65082,0.843812,0,19.698,670,0,
218.153,3.65112,0.845338,0,19.698,670,0,
218.153,3.65417,0.842286,0,19.698,670,0,
218.153,3.65692,0.842286,0,19.698,670,0,
218.153,3.65601,0.843812,0,19.698,670,0,
218.153,3.66089,0.842286,0,19.698,670,0,
218.153,3.65997,0.845338,0,19.698,670,0,
218.153,3.66119,0.845338,0,19.698,670,0,
218.153,3.66608,0.843812,0,19.698,670,0,
218.153,3.66669,0.843812,0,19.698,670,0,
218.153,3.67035,0.849915,0,19.698,670,0,
218.153,3.67065,0.845338,0,19.698,670,0,
218.153,3.67065,0.845338,0,19.698,670,0,
218.153,3.67493,0.843812,0,19.698,670,0,
218.153,3.67584,0.843812,0,19.698,670,0,
218.153,3.67859,0.845338,0,19.698,670,0,
218.153,3.68073,0.846864,0,19.698,670,0,
218.154,3.67981,0.846864,0,19.698,670,0,
218.154,3.68469,0.846864,0,19.698,670,0,
218.154,3.68591,0.84839,0,19.698,670,0,
218.154,3.68561,0.845338,0,19.698,670,0,
218.154,3.69049,0.843812,0,19.698,670,0,
218.154,3.68988,0.845338,0,19.698,670,0,
218.154,3.69049,0.846864,0,19.698,670,0,
218.154,3.69507,0.845338,0,19.698,670,0,
218.154,3.69568,0.843812,0,19.698,670,0,
218.154,3.69598,0.846864,0,19.698,670,0,
218.154,3.69995,0.845338,0,19.698,670,0,
218.154,3.70056,0.845338,0,19.698,670,0,
218.154,3.70331,0.845338,0,19.698,670,0,
218.154,3.70483,0.843812,0,19.698,670,0,
218.154,3.70605,0.84839,0,19.698,670,0,
218.154,3.70819,0.843812,0,19.698,670,0,
218.154,3.71033,0.843812,0,19.698,670,0,
218.154,3.71002,0.846864,0,19.698,670,0,
218.154,3.71429,0.843812,0,19.698,670,0,
218.154,3.71429,0.846864,0,19.698,670,0,
218.154,3.7146,0.846864,0,19.698,670,0,
218.154,3.71918,0.845338,0,19.698,670,0,
218.154,3.72009,0.845338,0,19.698,670,0,
218.154,3.7207,0.845338,0,19.698,670,0,
218.154,3.72437,0.846864,0,19.698,670,0,
218.154,3.72528,0.846864,0,19.698,670,0,
218.154,3.72498,0.845338,0,19.698,670,0,
218.154,3.72711,0.843812,0,19.698,670,0,
218.154,3.72955,0.843812,0,19.698,670,0,
218.154,3.72955,0.845338,0,19.698,670,0,
218.155,3.73199,0.842286,2.106,19.698,670,0,
218.155,3.73474,0.845338,2.106,19.698,670,0,
218.155,3.73474,0.846864,2.106,19.698,670,0,
218.155,3.73718,0.845338,2.106,19.698,670,0,
218.155,3.73901,0.845338,2.106,19.698,670,0,
218.155,3.73962,0.846864,2.106,19.698,670,0,
218.155,3.74054,0.843812,2.106,19.698,670,0,
218.155,3.74359,0.846864,2.106,19.698,670,0,
218.155,3.7442,0.846864,2.106,19.698,670,0,
218.155,3.74512,0.843812,2.106,19.698,670,0,
218.155,3.74878,0.843812,2.106,19.698,670,0,
218.155,3.74939,0.845338,2.106,19.698,670,0,
218.155,3.74878,0.843812,2.106,19.698,670,0,
218.155,3.75397,0.845338,2.106,19.698,670,0,
218.155,3.75427,0.846864,2.106,19.698,670,0,
218.155,3.75427,0.846864,2.106,19.698,670,0,
218.155,3.75824,0.846864,2.106,19.698,670,0,
218.155,3.75885,0.843812,2.106,19.698,670,0,
218.155,3.75854,0.845338,2.106,19.698,670,0,
218.155,3.7616,0.842286,2.106,19.698,670,0,
218.155,3.76343,0.846864,2.106,19.698,670,0,
218.155,3.76404,0.843812,2.106,19.698,670,0,
218.155,3.76343,0.845338,2.106,19.698,670,0,
218.155,3.76831,0.84839,2.106,19.698,670,0,
218.155,3.76831,0.843812,2.106,19.698,670,0,
218.155,3.76862,0.846864,2.106,19.698,670,0,
218.155,3.77319,0.842286,2.106,19.698,670,0,
218.155,3.7735,0.843812,2.106,19.698,670,0,
218.155,3.77258,0.845338,2.106,19.698,670,0,
218.155,3.77655,0.842286,2.106,19.698,670,0,
218.155,3.77808,0.843812,2.106,19.698,670,0,
218.156,3.77869,0.843812,2.106,19.698,670,0,
218.156,3.77899,0.843812,2.106,19.698,670,0,
218.156,3.78326,0.84839,2.106,19.698,670,0,
218.156,3.78357,0.837708,2.106,19.698,670,0,
218.156,3.78418,0.833131,2.106,19.698,670,0,
218.156,3.78571,0.834657,2.106,19.698,670,0,
218.156,3.78815,0.831605,2.106,19.698,670,0,
218.156,3.78784,0.833131,2.106,19.698,670,0,
218.156,3.78876,0.830079,2.106,19.698,670,0,
218.156,3.79364,0.831605,2.106,19.698,670,0,
218.156,3.79303,0.833131,2.106,19.698,670,0,
218.156,3.79333,0.831605,2.106,19.698,670,0,
218.156,3.797,0.831605,2.106,19.698,670,0,
218.156,3.79883,0.833131,2.106,19.698,670,0,
218.156,3.79822,0.833131,2.106,19.698,670,0,
218.156,3.79791,0.833131,2.106,19.698,670,0,
218.156,3.80341,0.833131,2.106,19.698,670,0,
218.156,3.80341,0.833131,2.106,19.698,670,0,
218.156,3.8031,0.833131,2.106,19.698,670,0,
218.156,3.80249,0.834657,2.106,19.698,670,0,
218.156,3.80737,0.833131,2.106,19.698,670,0,
218.156,3.80798,0.834657,2.106,19.698,670,0,
218.156,3.80768,0.831605,2.106,19.698,670,0,
218.156,3.81195,0.831605,2.106,19.698,670,0,
218.156,3.81256,0.831605,2.106,19.698,670,0,
218.156,3.81317,0.834657,2.106,19.698,670,0,
218.156,3.81287,0.833131,2.106,19.698,670,0,
218.156,3.81775,0.831605,2.106,19.698,670,0,
218.156,3.81775,0.836183,2.106,19.698,670,0,
218.156,3.81683,0.831605,2.106,19.698,670,0,
218.157,3.82019,0.834657,2.106,19.698,670,0,
218.157,3.82233,0.833131,2.106,19.698,670,0,
218.157,3.82263,0.830079,2.106,19.698,670,0,
218.157,3.82263,0.831605,2.106,19.698,670,0,
218.157,3.8269,0.833131,2.106,19.698,670,0,
218.157,3.82751,0.831605,2.106,19.698,670,0,
218.157,3.82812,0.831605,2.106,19.698,670,0,
218.157,3.82782,0.833131,2.106,19.698,670,0,
218.157,3.8327,0.833131,2.106,19.698,670,0,
218.157,3.83209,0.833131,2.106,19.698,670,0,
218.157,3.83301,0.833131,2.106,19.698,670,0,
218.157,3.83514,0.833131,2.106,19.698,670,0,
218.157,3.83698,0.831605,2.106,19.698,670,0,
218.157,3.83667,0.836183,2.106,19.698,670,0,
218.157,3.83667,0.833131,2.106,19.698,670,0,
218.157,3.84186,0.834657,2.106,19.698,670,0,
218.157,3.84186,0.831605,2.106,19.698,670,0,
218.157,3.84186,0.833131,2.106,19.698,670,0,
218.157,3.84308,0.833131,2.106,19.698,670,0,
218.157,3.84674,0.834657,2.106,19.698,670,0,
218.157,3.84705,0.834657,2.106,19.698,670,0,
218.157,3.84735,0.833131,2.106,19.698,670,0,
218.157,3.84735,0.833131,2.106,19.698,670,0,
218.157,3.85193,0.831605,2.106,19.698,670,0,
218.157,3.85223,0.831605,2.106,19.698,670,0,
218.157,3.85162,0.834657,2.106,19.698,670,0,
218.157,3.85468,0.833131,2.106,19.698,670,0,
218.157,3.85681,0.831605,2.106,19.698,670,0,
218.157,3.85742,0.834657,2.106,19.698,670,0,
218.157,3.85742,0.830079,2.106,19.698,670,0,
218.158,3.86169,0.831605,2.106,19.698,670,0,
218.158,3.8623,0.834657,2.106,19.698,670,0,
218.158,3.86169,0.831605,2.106,19.698,670,0,
218.158,3.8623,0.836183,2.106,19.698,670,0,
218.158,3.86627,0.833131,2.106,19.698,670,0,
218.158,3.86719,0.833131,2.106,19.698,670,0,
218.158,3.86658,0.833131,2.106,19.698,670,0,
218.158,3.86719,0.833131,2.106,19.698,670,0,
218.158,3.87115,0.833131,2.106,19.698,670,0,
218.158,3.87207,0.834657,2.106,19.698,670,0,
218.158,3.87146,0.833131,2.106,19.698,670,0,
218.158,3.87146,0.833131,2.106,19.698,670,0,
218.158,3.87695,0.836183,2.106,19.698,670,0,
218.158,3.87695,0.833131,2.106,19.698,670,0,
218.158,3.87695,0.833131,2.106,19.698,670,0,
218.158,3.87726,0.834657,2.106,19.698,670,0,
218.158,3.88153,0.831605,2.106,19.698,670,0,
218.158,3.88031,0.836183,2.106,19.698,670,0,
218.158,3.88153,0.830079,2.106,19.698,670,0,
218.158,3.88245,0.833131,2.106,19.698,670,0,
218.158,3.88702,0.831605,2.106,19.698,670,0,
218.158,3.88702,0.828553,2.106,19.698,670,0,
218.158,3.8858,0.834657,2.106,19.698,670,0,
218.158,3.88702,0.828553,2.106,19.698,670,0,
218.158,3.8916,0.833131,2.106,19.698,670,0,
218.158,3.89191,0.831605,2.106,19.698,670,0,
218.158,3.89069,0.830079,2.106,19.698,670,0,
218.158,3.89191,0.830079,2.106,19.698,670,0,
218.158,3.89587,0.831605,2.106,19.698,670,0,
218.159,3.89679,0.833131,2.106,19.698,670,0,
218.159,3.89679,0.831605,2.106,19.698,670,0,
218.159,3.89557,0.830079,2.106,19.698,670,0,
218.159,3.90106,0.831605,2.106,19.698,670,0,
218.159,3.90167,0.834657,2.106,19.698,670,0,
218.159,3.90045,0.833131,2.106,19.698,670,0,
218.159,3.90442,0.833131,2.106,19.698,670,0,
218.159,3.90533,0.833131,2.106,19.698,670,0,
218.159,3.90594,0.834657,2.106,19.698,670,0,
218.159,3.90564,0.834657,2.106,19.698,670,0,
218.159,3.91022,0.831605,2.106,19.698,670,0,
218.159,3.91052,0.834657,2.106,19.698,670,0,
218.159,3.91022,0.831605,2.106,19.698,670,0,
218.159,3.91113,0.831605,2.106,19.698,670,0,
218.159,3.91541,0.834657,2.106,19.698,670,0,
218.159,3.91541,0.831605,2.106,19.698,670,0,
218.159,3.91571,0.834657,2.106,19.698,670,0,
218.159,3.91541,0.834657,2.106,19.698,670,0,
218.159,3.92059,0.830079,2.106,19.698,670,0,
218.159,3.92029,0.830079,2.106,19.698,670,0,
218.159,3.9212,0.831605,2.106,19.698,670,0,
218.159,3.92303,0.830079,2.106,19.698,670,0,
218.159,3.92548,0.833131,2.106,19.698,670,0,
218.159,3.92517,0.833131,2.106,19.698,670,0,
218.159,3.92609,0.833131,2.106,19.698,670,0,
218.159,3.93036,0.831605,2.106,19.698,670,0,
218.159,3.93036,0.833131,2.106,19.698,670,0,
218.159,3.93097,0.830079,2.106,19.698,670,0,
218.159,3.93097,0.834657,2.106,19.698,670,0,
218.159,3.93646,0.831605,2.106,19.698,670,0,
218.16,3.93555,0.834657,2.106,19.698,670,0,
218.16,3.93555,0.834657,2.106,19.698,670,0,
218.16,3.94043,0.831605,2.106,19.698,670,0,
218.16,3.94043,0.833131,2.106,19.698,670,0,
218.16,3.94104,0.833131,2.106,19.698,670,0,
218.16,3.94073,0.833131,2.106,19.698,670,0,
218.16,3.94623,0.833131,2.106,19.698,670,0,
218.16,3.94592,0.833131,2.106,19.698,670,0,
218.16,3.94623,0.831605,2.106,19.698,670,0,
218.16,3.95111,0.845338,2.106,19.698,670,0,
218.16,3.9502,0.845338,2.106,19.698,670,0,
218.16,3.9505,0.842286,2.106,19.698,670,0,
218.16,3.95111,0.845338,2.106,19.698,670,0,
218.16,3.95538,0.843812,2.106,19.698,670,0,
218.16,3.95538,0.843812,2.106,19.698,670,0,
218.16,3.95477,0.842286,2.106,19.698,670,0,
218.16,3.96027,0.846864,2.106,19.698,670,0,
218.16,3.95966,0.843812,2.106,19.698,670,0,
218.16,3.95935,0.843812,2.106,19.698,670,0,
218.16,3.96057,0.843812,2.106,19.698,670,0,
218.16,3.96454,0.846864,2.106,19.698,670,0,
218.16,3.96484,0.846864,2.106,19.698,670,0,
218.16,3.96423,0.845338,2.106,19.698,670,0,
218.16,3.96912,0.842286,2.106,19.698,670,0,
218.16,3.96942,0.84839,2.106,19.698,670,0,
218.16,3.96912,0.846864,2.106,19.698,670,0,
218.16,3.97247,0.843812,2.106,19.698,670,0,
218.16,3.97522,0.842286,2.106,19.698,670,0,
218.16,3.9743,0.845338,2.106,19.698,670,0,
218.16,3.97369,0.846864,2.106,19.698,670,0,
218.161,3.9798,0.843812,2.106,19.698,670,0,
218.161,3.9798,0.846864,2.106,19.698,670,0,
218.161,3.9798,0.846864,2.106,19.698,670,0,
218.161,3.98315,0.845338,2.106,19.698,670,0,
218.161,3.98468,0.84839,2.106,19.698,670,0,
218.161,3.98407,0.842286,2.106,19.698,670,0,
218.161,3.98438,0.845338,2.106,19.698,670,0,
218.161,3.98865,0.842286,2.106,19.698,670,0,
218.161,3.98895,0.846864,2.106,19.698,670,0,
218.161,3.98987,0.845338,2.106,19.698,670,0,
218.161,3.99414,0.843812,2.106,19.698,670,0,
218.161,3.99414,0.843812,2.106,19.698,670,0,
218.161,3.99414,0.845338,2.106,19.698,670,0,
218.161,3.99628,0.843812,2.106,19.698,670,0,
218.161,3.99933,0.842286,2.106,19.698,670,0,
218.161,3.99811,0.845338,2.106,19.698,670,0,
218.161,3.99902,0.845338,2.106,19.698,670,0,
218.161,4.0033,0.843812,2.106,19.698,670,0,
218.161,4.0036,0.846864,2.106,19.698,670,0,
218.161,4.00391,0.843812,2.106,19.698,670,0,
218.161,4.00848,0.842286,2.106,19.698,670,0,
218.161,4.00879,0.843812,2.106,19.698,670,0,
218.161,4.00818,0.84839,2.106,19.698,670,0,
218.161,4.00879,0.846864,2.106,19.698,670,0,
218.161,4.01367,0.845338,2.106,19.698,670,0,
218.161,4.01367,0.84839,2.106,19.698,670,0,
218.161,4.01306,0.846864,2.106,19.698,670,0,
218.161,4.01764,0.846864,2.106,19.698,670,0,
218.161,4.01886,0.846864,2.106,19.698,670,0,
218.161,4.01917,0.846864,2.106,19.698,670,0,
218.161,4.02161,0.84839,2.106,19.698,670,0,
218.162,4.02344,0.846864,2.106,19.698,670,0,
218.162,4.02405,0.843812,2.106,19.698,670,0,
218.162,4.02405,0.845338,2.106,19.698,670,0,
218.162,4.02924,0.842286,2.106,19.698,670,0,
218.162,4.02893,0.843812,2.106,19.698,670,0,
218.162,4.02832,0.842286,2.106,19.698,670,0,
218.162,4.03137,0.843812,2.106,19.698,670,0,
218.162,4.0329,0.84839,2.106,19.698,670,0,
218.162,4.03381,0.84839,2.106,19.698,670,0,
218.162,4.03381,0.845338,2.106,19.698,670,0,
218.162,4.0387,0.843812,2.106,19.698,670,0,
218.162,4.0387,0.845338,2.106,19.698,670,0,
218.162,4.03839,0.846864,2.106,19.698,670,0,
218.162,4.04205,0.845338,2.106,19.698,670,0,
218.162,4.04358,0.854493,2.106,19.698,670,0,
218.162,4.04327,0.859071,2.106,19.698,670,0,
218.162,4.04297,0.859071,2.106,19.698,670,0,
218.162,4.04755,0.854493,2.106,19.698,670,0,
218.162,4.04816,0.843812,2.106,19.698,670,0,
218.162,4.04785,0.845338,2.106,19.698,670,0,
218.162,4.05273,0.846864,2.106,19.698,670,0,
218.162,4.05182,0.843812,2.106,19.698,670,0,
218.162,4.05304,0.845338,2.106,19.698,670,0,
218.162,4.05579,0.845338,2.106,19.698,670,0,
218.162,4.05792,0.846864,2.106,19.698,670,0,
218.162,4.05823,0.846864,2.106,19.698,670,0,
218.162,4.05792,0.842286,2.106,19.698,670,0,
218.162,4.06281,0.845338,2.106,19.698,670,0,
218.162,4.06311,0.846864,2.106,19.698,670,0,
218.162,4.06311,0.845338,2.106,19.698,670,0,
218.163,4.06647,0.845338,2.106,19.698,670,0,
218.163,4.0686,0.845338,2.106,19.698,670,0,
218.163,4.06799,0.843812,2.106,19.698,670,0,
218.163,4.06738,0.843812,2.106,19.698,670,0,
218.163,4.07318,0.843812,2.106,19.698,670,0,
218.163,4.07318,0.846864,2.106,19.698,670,0,
218.163,4.07318,0.845338,2.106,19.698,670,0,
218.163,4.07562,0.845338,2.106,19.698,670,0,
218.163,4.07776,0.843812,2.106,19.698,670,0,
218.163,4.07745,0.845338,2.106,19.698,670,0,
218.163,4.07776,0.845338,2.106,19.698,670,0,
218.163,4.08203,0.843812,2.106,19.698,670,0,
218.163,4.08234,0.846864,2.106,19.698,670,0,
218.163,4.08234,0.846864,2.106,19.698,670,0,
218.163,4.08264,0.843812,2.106,19.698,670,0,
218.163,4.08752,0.84839,2.106,19.698,670,0,
218.163,4.08783,0.845338,2.106,19.698,670,0,
218.163,4.08783,0.845338,2.106,19.698,670,0,
218.163,4.0921,0.843812,2.106,19.698,670,0,
218.163,4.09271,0.846864,2.106,19.698,670,0,
218.163,4.09241,0.845338,2.106,19.698,670,0,
218.163,4.09271,0.846864,2.106,19.698,670,0,
218.163,4.09668,0.845338,2.106,19.698,670,0,
218.163,4.09729,0.846864,2.106,19.698,670,0,
218.163,4.09729,0.849915,2.106,19.698,670,0,
218.163,4.10004,0.846864,2.106,19.698,670,0,
218.163,4.10248,0.846864,2.106,19.698,670,0,
218.163,4.10217,0.84839,2.106,19.698,670,0,
218.163,4.10248,0.845338,2.106,19.698,670,0,
218.163,4.10675,0.845338,2.106,19.698,670,0,
218.164,4.10736,0.845338,2.106,19.698,670,0,
218.164,4.10767,0.845338,2.106,19.698,670,0,
218.164,4.1098,0.843812,2.106,19.698,670,0,
218.164,4.11194,0.84839,2.106,19.698,670,0,
218.164,4.11163,0.846864,2.106,19.698,670,0,
218.164,4.11194,0.845338,2.106,19.698,670,0,
218.164,4.11621,0.845338,2.106,19.698,670,0,
218.164,4.11743,0.842286,2.106,19.698,670,0,
218.164,4.11652,0.846864,2.106,19.698,670,0,
218.164,4.11713,0.845338,2.106,19.698,670,0,
218.164,4.12201,0.843812,2.106,19.698,670,0,
218.164,4.12109,0.845338,2.106,19.698,670,0,
218.164,4.12201,0.843812,2.106,19.698,670,0,
218.164,4.12628,0.846864,2.106,19.698,670,0,
218.164,4.12628,0.843812,2.106,19.698,670,0,
218.164,4.12659,0.84839,2.106,19.698,670,0,
218.164,4.1272,0.846864,2.106,19.698,670,0,
218.164,4.13116,0.84839,2.106,19.698,670,0,
218.164,4.13147,0.843812,2.106,19.698,670,0,
218.164,4.13116,0.846864,2.106,19.698,670,0,
218.164,4.13422,0.846864,2.106,19.698,670,0,
218.164,4.13635,0.843812,2.106,19.698,670,0,
218.164,4.13605,0.845338,2.106,19.698,670,0,
218.164,4.13666,0.846864,2.106,19.698,670,0,
218.164,4.14032,0.84076,2.106,19.698,670,0,
218.164,4.14185,0.84839,2.106,19.698,670,0,
218.164,4.14093,0.843812,2.106,19.698,670,0,
218.164,4.14337,0.843812,2.106,19.698,670,0,
218.164,4.14581,0.845338,2.106,19.698,670,0,
218.165,4.14673,0.846864,2.106,19.698,670,0,
218.165,4.14581,0.845338,2.106,19.698,670,0,
218.165,4.14948,0.846864,2.106,19.698,670,0,
218.165,4.1507,0.842286,2.106,19.698,670,0,
218.165,4.151,0.842286,2.106,19.698,670,0,
218.165,4.15161,0.845338,2.106,19.698,670,0,
218.165,4.15588,0.845338,2.106,19.698,670,0,
218.165,4.15619,0.845338,2.106,19.698,670,0,
218.165,4.15619,0.846864,2.106,19.698,670,0,
218.165,4.16046,0.845338,2.106,19.698,670,0,
218.165,4.16046,0.846864,2.106,19.698,670,0,
218.165,4.16077,0.837708,2.106,19.698,670,0,
218.165,4.16351,0.831605,2.106,19.698,670,0,
218.165,4.16534,0.830079,2.106,19.698,670,0,
218.165,4.16534,0.834657,2.106,19.698,670,0,
218.165,4.16595,0.834657,2.106,19.698,670,0,
218.165,4.17084,0.834657,2.106,19.698,670,0,
218.165,4.17053,0.833131,2.106,19.698,670,0,
218.165,4.17023,0.828553,2.106,19.698,670,0,
218.165,4.17297,0.831605,2.106,19.698,670,0,
218.165,4.17542,0.834657,2.106,19.698,670,0,
218.165,4.17542,0.834657,2.106,19.698,670,0,
218.165,4.17572,0.831605,2.106,19.698,670,0,
218.165,4.1806,0.831605,2.106,19.698,670,0,
218.165,4.17969,0.834657,2.106,19.698,670,0,
218.165,4.18091,0.833131,2.106,19.698,670,0,
218.165,4.18488,0.830079,2.106,19.698,670,0,
218.165,4.18488,0.833131,2.106,19.698,670,0,
218.165,4.18579,0.834657,2.106,19.698,670,0,
218.165,4.18732,0.828553,2.106,19.698,670,0,
218.166,4.19006,0.834657,2.106,19.698,670,0,
218.166,4.18945,0.831605,2.106,19.698,670,0,
218.166,4.18976,0.831605,2.106,19.698,670,0,
218.166,4.19495,0.831605,2.106,19.698,670,0,
218.166,4.19525,0.833131,2.106,19.698,670,0,
218.166,4.19525,0.830079,2.106,19.698,670,0,
218.166,4.19952,0.836183,2.106,19.698,670,0,
218.166,4.19983,0.836183,2.106,19.698,670,0,
218.166,4.20044,0.828553,2.106,19.698,670,0,
218.166,4.20288,0.831605,2.106,19.698,670,0,
218.166,4.20441,0.833131,2.106,19.698,670,0,
218.166,4.20471,0.831605,2.106,19.698,670,0,
218.166,4.20776,0.830079,2.106,19.698,670,0,
218.166,4.20929,0.833131,2.106,19.698,670,0,
218.166,4.21021,0.834657,2.106,19.698,670,0,
218.166,4.2099,0.836183,2.106,19.698,670,0,
218.166,4.21448,0.833131,2.106,19.698,670,0,
218.166,4.2157,0.831605,2.106,19.698,670,0,
218.166,4.21448,0.833131,2.106,19.698,670,0,
218.166,4.21967,0.833131,2.106,19.698,670,0,
218.166,4.21967,0.833131,2.106,19.698,670,0,
218.166,4.21967,0.831605,2.106,19.698,670,0,
218.166,4.22455,0.833131,2.106,19.698,670,0,
218.166,4.22424,0.834657,2.106,19.698,670,0,
218.166,4.22455,0.834657,2.106,19.698,670,0,
218.166,4.22882,0.833131,2.106,19.698,670,0,
218.166,4.23004,0.831605,2.106,19.698,670,0,
218.166,4.22943,0.828553,2.106,19.698,670,0,
218.166,4.2334,0.833131,2.106,19.698,670,0,
218.166,4.23401,0.830079,2.106,19.698,670,0,
218.167,4.23431,0.834657,2.106,19.698,670,0,
218.167,4.23767,0.836183,2.106,19.698,670,0,
218.167,4.23981,0.834657,2.106,19.698,670,0,
218.167,4.2392,0.831605,2.106,19.698,670,0,
218.167,4.24194,0.831605,2.106,19.698,670,0,
218.167,4.24408,0.836183,2.106,19.698,670,0,
218.167,4.24408,0.831605,2.106,19.698,670,0,
218.167,4.24469,0.834657,2.106,19.698,670,0,
218.167,4.24927,0.834657,2.106,19.698,670,0,
218.167,4.24805,0.834657,2.106,19.698,670,0,
218.167,4.24927,0.831605,2.106,19.698,670,0,
218.167,4.25323,0.834657,2.106,19.698,670,0,
218.167,4.25415,0.833131,2.106,19.698,670,0,
218.167,4.25446,0.828553,2.106,19.698,670,0,
218.167,4.25873,0.831605,2.106,19.698,670,0,
218.167,4.25842,0.831605,2.106,19.698,670,0,
218.167,4.25903,0.831605,2.106,19.698,670,0,
218.167,4.26361,0.833131,2.106,19.698,670,0,
218.167,4.26331,0.830079,2.106,19.698,670,0,
218.167,4.26392,0.831605,2.106,19.698,670,0,
218.167,4.2688,0.833131,2.106,19.698,670,0,
218.167,4.2691,0.837708,2.106,19.698,670,0,
218.167,4.2691,0.831605,2.106,19.698,670,0,
218.167,4.27307,0.831605,2.106,19.698,670,0,
218.167,4.27338,0.839234,2.106,19.698,670,0,
218.167,4.27368,0.831605,2.106,19.698,670,0,
218.167,4.27856,0.831605,2.106,19.698,670,0,
218.167,4.27856,0.831605,2.106,19.698,670,0,
218.167,4.27795,0.833131,2.106,19.698,670,0,
218.167,4.28406,0.833131,2.106,19.698,670,0,
218.167,4.28345,0.833131,2.106,19.698,670,0,
218.168,4.28345,0.833131,2.106,19.698,670,0,
218.168,4.28833,0.833131,2.106,19.698,670,0,
218.168,4.28864,0.833131,2.106,19.698,670,0,
218.168,4.28833,0.830079,2.106,19.698,670,0,
218.168,4.29291,0.831605,2.106,19.698,670,0,
218.168,4.29321,0.833131,2.106,19.698,670,0,
218.168,4.29321,0.831605,2.106,19.698,670,0,
218.168,4.29779,0.831605,2.106,19.698,670,0,
218.168,4.2981,0.833131,2.106,19.698,670,0,
218.168,4.29779,0.833131,2.106,19.698,670,0,
218.168,4.30328,0.845338,2.106,19.698,670,0,
218.168,4.30298,0.846864,2.106,19.698,670,0,
218.168,4.30237,0.843812,2.106,19.698,670,0,
218.168,4.30817,0.843812,2.106,19.698,670,0,
218.168,4.30756,0.843812,2.106,19.698,670,0,
218.168,4.30817,0.843812,2.106,19.698,670,0,
218.168,4.31274,0.845338,2.106,19.698,670,0,
218.168,4.31244,0.843812,2.106,19.698,670,0,
218.168,4.31244,0.84839,2.106,19.698,670,0,
218.168,4.31793,0.842286,2.106,19.698,670,0,
218.168,4.31702,0.846864,2.106,19.698,670,0,
218.168,4.31732,0.846864,2.106,19.698,670,0,
218.168,4.32251,0.846864,2.106,19.698,670,0,
218.168,4.32281,0.846864,2.106,19.698,670,0,
218.168,4.3222,0.845338,2.106,19.698,670,0,
218.168,4.32709,0.846864,2.106,19.698,670,0,
218.168,4.32709,0.843812,2.106,19.698,670,0,
218.168,4.3277,0.846864,2.106,19.698,670,0,
218.168,4.33167,0.843812,2.106,19.698,670,0,
218.168,4.33289,0.845338,2.106,19.698,670,0,
218.169,4.33228,0.842286,2.106,19.698,670,0,
218.169,4.33685,0.84839,2.106,19.698,670,0,
218.169,4.33746,0.843812,2.106,19.698,670,0,
218.169,4.33746,0.845338,2.106,19.698,670,0,
218.169,4.34052,0.845338,2.106,19.698,670,0,
218.169,4.34204,0.846864,2.106,19.698,670,0,
218.169,4.34174,0.84839,2.106,19.698,670,0,
218.169,4.34509,0.845338,2.106,19.698,670,0,
218.169,4.34723,0.84839,2.106,19.698,670,0,
218.169,4.34753,0.843812,2.106,19.698,670,0,
218.169,4.34814,0.845338,2.106,19.698,670,0,
218.169,4.35242,0.845338,2.106,19.698,670,0,
218.169,4.3515,0.845338,2.106,19.698,670,0,
218.169,4.3512,0.846864,2.106,19.698,670,0,
218.169,4.35669,0.845338,2.106,19.698,670,0,
218.169,4.35638,0.846864,2.106,19.698,670,0,
218.169,4.35699,0.843812,2.106,19.698,670,0,
218.169,4.36096,0.845338,2.106,19.698,670,0,
218.169,4.36188,0.845338,2.106,19.698,670,0,
218.169,4.36218,0.84839,2.106,19.698,670,0,
218.169,4.36493,0.846864,2.106,19.698,670,0,
218.169,4.36676,0.845338,2.106,19.698,670,0,
218.169,4.36646,0.845338,2.106,19.698,670,0,
218.169,4.36737,0.84076,2.106,19.698,670,0,
218.169,4.37164,0.845338,2.106,19.698,670,0,
218.169,4.37164,0.84839,2.106,19.698,670,0,
218.169,4.37103,0.842286,2.106,19.698,670,0,
218.169,4.37561,0.843812,2.106,19.698,670,0,
218.169,4.37592,0.846864,2.106,19.698,670,0,
218.169,4.37683,0.846864,2.106,19.698,670,0,
218.17,4.37897,0.845338,2.106,19.698,670,0,
218.17,4.38202,0.843812,2.106,19.698,670,0,
218.17,4.38171,0.846864,2.106,19.698,670,0,
218.17,4.38171,0.845338,2.106,19.698,670,0,
218.17,4.38629,0.843812,2.106,19.698,670,0,
218.17,4.3866,0.845338,2.106,19.698,670,0,
218.17,4.3869,0.84839,2.106,19.698,670,0,
218.17,4.38904,0.84839,2.106,19.698,670,0,
218.17,4.39178,0.84839,2.106,19.698,670,0,
218.17,4.39148,0.845338,2.106,19.698,670,0,
218.17,4.39148,0.845338,2.106,19.698,670,0,
218.17,4.39575,0.845338,2.106,19.698,670,0,
218.17,4.39667,0.845338,2.106,19.698,670,0,
218.17,4.39697,0.84839,2.106,19.698,670,0,
218.17,4.39636,0.846864,2.106,19.698,670,0,
218.17,4.40094,0.845338,2.106,19.698,670,0,
218.17,4.40063,0.843812,2.106,19.698,670,0,
218.17,4.40094,0.845338,2.106,19.698,670,0,
218.17,4.40033,0.842286,2.106,19.698,670,0,
218.17,4.40552,0.846864,2.106,19.698,670,0,
218.17,4.40582,0.843812,2.106,19.698,670,0,
218.17,4.40582,0.846864,2.106,19.698,670,0,
218.17,4.40552,0.846864,2.106,19.698,670,0,
218.17,4.4104,0.842286,2.106,19.698,670,0,
218.17,4.41101,0.845338,2.106,19.698,670,0,
218.17,4.41071,0.845338,2.106,19.698,670,0,
218.17,4.41071,0.845338,2.106,19.698,670,0,
218.17,4.41589,0.845338,2.106,19.698,670,0,
218.17,4.41589,0.845338,2.106,19.698,670,0,
218.171,4.4162,0.84839,2.106,19.698,670,0,
218.171,4.41589,0.846864,2.106,19.698,670,0,
218.171,4.41864,0.842286,2.106,19.698,670,0,
218.171,4.42078,0.845338,2.106,19.698,670,0,
218.171,4.42017,0.843812,2.106,19.698,670,0,
218.171,4.42078,0.845338,2.106,19.698,670,0,
218.171,4.42078,0.843812,2.106,19.698,670,0,
218.171,4.42566,0.845338,2.106,19.698,670,0,
218.171,4.42627,0.849915,2.106,19.698,670,0,
218.171,4.42505,0.84076,2.106,19.698,670,0,
218.171,4.42535,0.845338,2.106,19.698,670,0,
218.171,4.42566,0.845338,2.106,19.698,670,0,
218.171,4.43054,0.846864,2.106,19.698,670,0,
218.171,4.43085,0.842286,2.106,19.698,670,0,
218.171,4.43054,0.845338,2.106,19.698,670,0,
218.171,4.43054,0.84839,2.106,19.698,670,0,
218.171,4.43085,0.845338,2.106,19.698,670,0,
218.171,4.43481,0.854493,2.106,19.698,670,0,
218.171,4.43542,0.857545,2.106,19.698,670,0,
218.171,4.43481,0.854493,2.106,19.698,670,0,
218.171,4.43542,0.860597,2.106,19.698,670,0,
218.171,4.43481,0.857545,2.106,19.698,670,0,
218.171,4.43848,0.854493,2.106,19.698,670,0,
218.171,4.4397,0.857545,2.106,19.698,670,0,
218.171,4.44031,0.856019,2.106,19.698,670,0,
218.171,4.44031,0.860597,2.106,19.698,670,0,
218.171,4.44031,0.859071,2.106,19.698,670,0,
218.171,4.4397,0.860597,2.106,19.698,670,0,
218.171,4.44397,0.852967,2.106,19.698,670,0,
218.171,4.44519,0.856019,2.106,19.698,670,0,
218.172,4.44519,0.854493,2.106,19.698,670,0,
218.172,4.44489,0.859071,2.106,19.698,670,0,
218.172,4.44519,0.857545,2.106,19.698,670,0,
218.172,4.44489,0.857545,2.106,19.698,670,0,
218.172,4.44519,0.859071,2.106,19.698,670,0,
218.172,4.45007,0.857545,2.106,19.698,670,0,
