6900-SECPT.acq
2 msec/sample
6 channels
RSP, X, RSPEC-R
Volts
EDA, Y, PPGED-R
microsiemens
ECG R-R
Seconds
Respiration Rate
BPM
C7 - EDR
Peaks
C14 - Control
Volts
min,CH1,CH14,CH40,CH42,CH47,CH54,
,90518,90518,90518,90518,90518,90518,
85.0846,3.98834,7.2113,2.756,19.9867,327,5,
85.0847,3.98804,7.20978,2.756,19.9867,327,5,
85.0847,3.98956,7.20978,2.756,19.9867,327,5,
85.0847,3.98926,7.2113,2.756,19.9867,327,5,
85.0848,3.98438,7.21283,2.756,19.9867,327,5,
85.0848,3.98376,7.2113,2.756,19.9867,327,5,
85.0848,3.98315,7.21283,2.756,19.9867,327,5,
85.0849,3.98438,7.21283,2.756,19.9867,327,5,
85.0849,3.98438,7.21283,2.756,19.9867,327,5,
85.0849,3.98438,7.20978,2.756,19.9867,327,5,
85.085,3.98438,7.20062,2.756,19.9867,327,5,
85.085,3.98346,7.20062,2.756,19.9867,327,5,
85.085,3.98376,7.20215,2.756,19.9867,327,5,
85.0851,3.98376,7.1991,2.756,19.9867,327,5,
85.0851,3.98438,7.20215,2.756,19.9867,327,5,
85.0851,3.97919,7.1991,2.756,19.9867,327,5,
85.0852,3.97888,7.20062,2.756,19.9867,327,5,
85.0852,3.97919,7.1991,2.756,19.9867,327,5,
85.0852,3.97949,7.20062,2.756,19.9867,327,5,
85.0853,3.97888,7.20062,2.756,19.9867,327,5,
85.0853,3.9798,7.20062,2.756,19.9867,327,5,
85.0853,3.97858,7.1991,2.756,19.9867,327,5,
85.0854,3.97949,7.20062,2.756,19.9867,327,5,
85.0854,3.97949,7.1991,2.756,19.9867,327,5,
85.0854,3.97888,7.20062,2.756,19.9867,327,5,
85.0855,3.97858,7.20368,2.756,19.9867,327,5,
85.0855,3.97369,7.1991,2.756,19.9867,327,5,
85.0855,3.974,7.1991,2.756,19.9867,327,5,
85.0856,3.97491,7.19757,2.756,19.9867,327,5,
85.0856,3.97369,7.1991,2.756,19.9867,327,5,
85.0856,3.97369,7.20062,2.756,19.9867,327,5,
85.0857,3.97461,7.2052,2.756,19.9867,327,5,
85.0857,3.97369,7.20215,2.756,19.9867,327,5,
85.0857,3.97461,7.1991,2.756,19.9867,327,5,
85.0858,3.97369,7.20215,2.756,19.9867,327,5,
85.0858,3.974,7.20215,2.756,19.9867,327,5,
85.0858,3.974,7.20368,2.756,19.9867,327,5,
85.0859,3.97369,7.20062,2.756,19.9867,327,5,
85.0859,3.96973,7.20062,2.756,19.9867,327,5,
85.0859,3.96912,7.20215,2.756,19.9867,327,5,
85.086,3.96973,7.19757,2.756,19.9867,327,5,
85.086,3.96881,7.20215,2.756,19.9867,327,5,
85.086,3.96912,7.1991,2.756,19.9867,327,5,
85.0861,3.96881,7.1991,2.756,19.9867,327,5,
85.0861,3.96881,7.1991,2.756,19.9867,327,5,
85.0861,3.96912,7.20062,2.756,19.9867,327,5,
85.0862,3.96912,7.20215,2.756,19.9867,327,5,
85.0862,3.96881,7.2052,2.756,19.9867,327,5,
85.0862,3.96851,7.20062,2.756,19.9867,327,5,
85.0863,3.96851,7.20062,2.756,19.9867,327,5,
85.0863,3.96851,7.20062,2.756,19.9867,327,5,
85.0863,3.96912,7.19757,2.756,19.9867,327,5,
85.0864,3.9682,7.20368,2.756,19.9867,327,5,
85.0864,3.96912,7.19757,2.756,19.9867,327,5,
85.0864,3.96393,7.20062,2.756,19.9867,327,5,
85.0865,3.96393,7.18994,2.756,19.9867,327,5,
85.0865,3.96423,7.18689,2.756,19.9867,327,5,
85.0865,3.96423,7.18536,2.756,19.9867,327,5,
85.0866,3.96423,7.18689,2.756,19.9867,327,5,
85.0866,3.96423,7.18689,2.756,19.9867,327,5,
85.0866,3.96393,7.18536,2.756,19.9867,327,5,
85.0867,3.96393,7.18842,2.756,19.9867,327,5,
85.0867,3.96423,7.18842,2.756,19.9867,327,5,
85.0867,3.96423,7.18842,2.756,19.9867,327,5,
85.0868,3.96393,7.18689,2.756,19.9867,327,5,
85.0868,3.96454,7.18689,2.756,19.9867,327,5,
85.0868,3.96393,7.18842,2.756,19.9867,327,5,
85.0869,3.96454,7.18994,2.756,19.9867,327,5,
85.0869,3.96362,7.19147,2.756,19.9867,327,5,
85.0869,3.96393,7.18842,2.756,19.9867,327,5,
85.087,3.96454,7.18689,2.756,19.9867,327,5,
85.087,3.96393,7.18689,2.756,19.9867,327,5,
85.087,3.96423,7.18689,2.756,19.9867,327,5,
85.0871,3.96393,7.18689,2.756,19.9867,327,5,
85.0871,3.96423,7.18994,2.756,19.9867,327,5,
85.0871,3.96423,7.18842,2.756,19.9867,327,5,
85.0872,3.96393,7.18994,2.756,19.9867,327,5,
85.0872,3.96332,7.18689,2.756,19.9867,327,5,
85.0872,3.96393,7.19147,2.756,19.9867,327,5,
85.0873,3.96454,7.18842,2.756,19.9867,327,5,
85.0873,3.96393,7.18842,2.756,19.9867,327,5,
85.0873,3.96362,7.18994,2.756,19.9867,327,5,
85.0874,3.96393,7.18689,2.756,19.9867,327,5,
85.0874,3.96332,7.18689,2.756,19.9867,327,5,
85.0874,3.96362,7.18842,2.756,19.9867,327,5,
85.0875,3.96423,7.18842,2.756,19.9867,327,5,
85.0875,3.96393,7.19299,2.756,19.9867,327,5,
85.0875,3.96393,7.18689,2.756,19.9867,327,5,
85.0876,3.96423,7.18689,2.756,19.9867,327,5,
85.0876,3.96454,7.18842,2.756,19.9867,327,5,
85.0876,3.96393,7.18842,2.756,19.9867,327,5,
85.0877,3.96423,7.18842,2.756,19.9867,327,5,
85.0877,3.96423,7.18994,2.756,19.9867,327,5,
85.0877,3.96454,7.18384,2.756,19.9867,327,5,
85.0878,3.96423,7.18689,2.756,19.9867,327,5,
85.0878,3.96393,7.18689,2.756,19.9867,327,5,
85.0878,3.96423,7.18842,2.756,19.9867,327,5,
85.0879,3.96393,7.18994,2.756,19.9867,327,5,
85.0879,3.96423,7.18689,2.756,19.9867,327,5,
85.0879,3.96393,7.19147,2.756,19.9867,327,5,
85.088,3.96393,7.18994,2.756,19.9867,327,5,
85.088,3.96454,7.18842,2.756,19.9867,327,5,
85.088,3.96423,7.19147,2.756,19.9867,327,5,
85.0881,3.96393,7.17774,2.756,19.9867,327,5,
85.0881,3.96484,7.17468,2.756,19.9867,327,5,
85.0881,3.96393,7.17468,2.756,19.9867,327,5,
85.0882,3.96881,7.17774,2.756,19.9867,327,5,
85.0882,3.96942,7.17468,2.756,19.9867,327,5,
85.0882,3.96912,7.17621,2.756,19.9867,327,5,
85.0883,3.96942,7.17774,2.756,19.9867,327,5,
85.0883,3.96881,7.17621,2.756,19.9867,327,5,
85.0883,3.96881,7.17468,2.756,19.9867,327,5,
85.0884,3.96942,7.17621,2.756,19.9867,327,5,
85.0884,3.96851,7.17468,2.756,19.9867,327,5,
85.0884,3.96942,7.17468,2.756,19.9867,327,5,
85.0885,3.96881,7.17774,2.756,19.9867,327,5,
85.0885,3.96912,7.17468,2.756,19.9867,327,5,
85.0885,3.96942,7.17621,2.756,19.9867,327,5,
85.0886,3.96912,7.17621,2.756,19.9867,327,5,
85.0886,3.96912,7.17774,2.756,19.9867,327,5,
85.0886,3.97339,7.17774,2.756,19.9867,327,5,
85.0887,3.97369,7.17621,2.756,19.9867,327,5,
85.0887,3.97369,7.17774,2.756,19.9867,327,5,
85.0887,3.97339,7.17774,2.756,19.9867,327,5,
85.0888,3.974,7.17621,2.756,19.9867,327,5,
85.0888,3.97369,7.17621,2.756,19.9867,327,5,
85.0888,3.97461,7.17316,2.756,19.9867,327,5,
85.0889,3.97339,7.17926,2.756,19.9867,327,5,
85.0889,3.974,7.17468,2.756,19.9867,327,5,
85.0889,3.97369,7.17468,2.756,19.9867,327,5,
85.089,3.97369,7.17926,2.756,19.9867,327,5,
85.089,3.97614,7.17621,2.756,19.9867,327,5,
85.089,3.97888,7.17468,2.756,19.9867,327,5,
85.0891,3.97888,7.17774,2.756,19.9867,327,5,
85.0891,3.9798,7.17774,2.756,19.9867,327,5,
85.0891,3.97888,7.17774,2.756,19.9867,327,5,
85.0892,3.97888,7.17926,2.756,19.9867,327,5,
85.0892,3.97888,7.17468,2.756,19.9867,327,5,
85.0892,3.97949,7.17926,2.756,19.9867,327,5,
85.0893,3.97888,7.17468,2.756,19.9867,327,5,
85.0893,3.97827,7.17621,2.756,19.9867,327,5,
85.0893,3.98346,7.17468,2.756,19.9867,327,5,
85.0894,3.98376,7.17621,2.756,19.9867,327,5,
85.0894,3.98376,7.17621,2.756,19.9867,327,5,
85.0894,3.98468,7.17621,2.756,19.9867,327,5,
85.0895,3.98346,7.17468,2.756,19.9867,327,5,
85.0895,3.98438,7.17316,2.756,19.9867,327,5,
85.0895,3.98346,7.17621,2.756,19.9867,327,5,
85.0896,3.98438,7.17621,2.756,19.9867,327,5,
85.0896,3.98346,7.17316,2.756,19.9867,327,5,
85.0896,3.98926,7.17621,2.756,19.9867,327,5,
85.0897,3.98895,7.17011,2.756,19.9867,327,5,
85.0897,3.98834,7.164,2.756,19.9867,327,5,
85.0897,3.98865,7.164,2.756,19.9867,327,5,
85.0898,3.98895,7.164,2.756,19.9867,327,5,
85.0898,3.98834,7.16095,2.756,19.9867,327,5,
85.0898,3.98865,7.16248,2.756,19.9867,327,5,
85.0899,3.98804,7.16248,2.756,19.9867,327,5,
85.0899,3.99384,7.164,2.756,19.9867,327,5,
85.0899,3.99323,7.16553,2.756,19.9867,327,5,
85.09,3.99353,7.16248,2.756,19.9867,327,5,
85.09,3.99353,7.164,2.756,19.9867,327,5,
85.09,3.99292,7.16553,2.756,19.9867,327,5,
85.0901,3.99261,7.16553,2.756,19.9867,327,5,
85.0901,3.99353,7.16705,2.756,19.9867,327,5,
85.0901,3.99628,7.164,2.756,19.9867,327,5,
85.0902,3.99841,7.16553,2.756,19.9867,327,5,
85.0902,3.9975,7.16095,2.756,19.9867,327,5,
85.0902,3.99811,7.16553,2.756,19.9867,327,5,
85.0903,3.99841,7.16705,2.756,19.9867,327,5,
85.0903,3.9978,7.16248,2.756,19.9867,327,5,
85.0903,3.99841,7.16248,2.756,19.9867,327,5,
85.0904,3.99811,7.16705,2.756,19.9867,327,5,
85.0904,4.00299,7.16248,2.756,19.9867,327,5,
85.0904,4.00299,7.16553,2.756,19.9867,327,5,
85.0905,4.0033,7.16248,2.756,19.9867,327,5,
85.0905,4.00299,7.164,2.756,19.9867,327,5,
85.0905,4.0033,7.164,2.756,19.9867,327,5,
85.0906,4.0033,7.164,2.756,19.9867,327,5,
85.0906,4.0036,7.16248,2.756,19.9867,327,5,
85.0906,4.00635,7.16705,2.756,19.9867,327,5,
85.0907,4.00879,7.16248,2.756,19.9867,327,5,
85.0907,4.00787,7.164,2.756,19.9867,327,5,
85.0907,4.00879,7.164,2.756,19.9867,327,5,
85.0908,4.00787,7.16095,2.756,19.9867,327,5,
85.0908,4.00818,7.164,2.756,19.9867,327,5,
85.0908,4.00787,7.164,2.756,19.9867,327,5,
85.0909,4.00818,7.164,2.756,19.9867,327,5,
85.0909,4.01367,7.164,2.756,19.9867,327,5,
85.0909,4.01367,7.164,2.756,19.9867,327,5,
85.091,4.01245,7.164,2.756,19.9867,327,5,
85.091,4.01245,7.16248,2.756,19.9867,327,5,
85.091,4.01367,7.16248,2.756,19.9867,327,5,
85.0911,4.01367,7.16248,2.756,19.9867,327,5,
85.0911,4.01337,7.15942,2.756,19.9867,327,5,
85.0911,4.01764,7.16248,2.756,19.9867,327,5,
85.0912,4.01825,7.16095,2.756,19.9867,327,5,
85.0912,4.01764,7.15332,2.756,19.9867,327,5,
85.0912,4.01825,7.15332,2.756,19.9867,327,5,
85.0913,4.01825,7.1518,2.756,19.9867,327,5,
85.0913,4.01886,7.14874,2.756,19.9867,327,5,
85.0913,4.021,7.15485,2.756,19.9867,327,5,
85.0914,4.02313,7.1518,2.756,19.9867,327,5,
85.0914,4.02283,7.15027,2.756,19.9867,327,5,
85.0914,4.02252,7.15027,2.756,19.9867,327,5,
85.0915,4.02313,7.15332,2.756,19.9867,327,5,
85.0915,4.02405,7.15332,2.756,19.9867,327,5,
85.0915,4.02313,7.15027,2.756,19.9867,327,5,
85.0916,4.02527,7.1518,2.756,19.9867,327,5,
85.0916,4.0274,7.14874,2.756,19.9867,327,5,
85.0916,4.0274,7.15332,2.756,19.9867,327,5,
85.0917,4.02802,7.1518,2.756,19.9867,327,5,
85.0917,4.02771,7.15332,2.756,19.9867,327,5,
85.0917,4.02802,7.1518,2.756,19.9867,327,5,
85.0918,4.03259,7.15332,2.756,19.9867,327,5,
85.0918,4.03229,7.15332,2.756,19.9867,327,5,
85.0918,4.0332,7.15332,2.756,19.9867,327,5,
85.0919,4.0329,7.15027,2.756,19.9867,327,5,
85.0919,4.03229,7.14874,2.756,19.9867,327,5,
85.0919,4.03259,7.15332,2.756,19.9867,327,5,
85.092,4.03259,7.1518,2.756,19.9867,327,5,
85.092,4.03229,7.1518,2.756,19.9867,327,5,
85.092,4.03259,7.15027,2.756,19.9867,327,5,
85.0921,4.0329,7.1518,2.756,19.9867,327,5,
85.0921,4.03259,7.15027,2.756,19.9867,327,5,
85.0921,4.03259,7.1518,2.756,19.9867,327,5,
85.0922,4.03473,7.15332,2.756,19.9867,327,5,
85.0922,4.03809,7.15332,2.756,19.9867,327,5,
85.0922,4.04297,7.15332,2.756,19.9867,327,5,
85.0923,4.04266,7.15027,2.756,19.9867,327,5,
85.0923,4.04297,7.1518,2.756,19.9867,327,5,
85.0923,4.04236,7.15027,2.756,19.9867,327,5,
85.0924,4.04297,7.14722,2.756,19.9867,327,5,
85.0924,4.04236,7.15027,2.756,19.9867,327,5,
85.0924,4.04358,7.15332,2.756,19.9867,327,5,
85.0925,4.04846,7.14874,2.756,19.9867,327,5,
85.0925,4.04724,7.1518,2.756,19.9867,327,5,
85.0925,4.04724,7.1518,2.756,19.9867,327,5,
85.0926,4.04694,7.15027,2.756,19.9867,327,5,
85.0926,4.04785,7.1518,2.756,19.9867,327,5,
85.0926,4.04785,7.1518,2.756,19.9867,327,5,
85.0927,4.04724,7.15027,2.756,19.9867,327,5,
85.0927,4.05182,7.1518,2.756,19.9867,327,5,
85.0927,4.05212,7.15485,2.756,19.9867,327,5,
85.0928,4.05243,7.1518,2.756,19.9867,327,5,
85.0928,4.05243,7.13959,2.756,19.9867,327,5,
85.0928,4.05273,7.13959,2.756,19.9867,327,5,
85.0929,4.05212,7.13959,2.756,19.9867,327,5,
85.0929,4.05426,7.13654,2.756,19.9867,327,5,
85.0929,4.05762,7.13806,2.756,19.9867,327,5,
85.093,4.05701,7.13806,2.756,19.9867,327,5,
85.093,4.05731,7.13806,2.756,19.9867,327,5,
85.093,4.05762,7.14264,2.756,19.9867,327,5,
85.0931,4.05762,7.14264,2.756,19.9867,327,5,
85.0931,4.05762,7.14111,2.756,19.9867,327,5,
85.0931,4.0625,7.13959,2.756,19.9867,327,5,
85.0932,4.06189,7.14111,2.756,19.9867,327,5,
85.0932,4.06281,7.13959,2.756,19.9867,327,5,
85.0932,4.0625,7.13806,2.756,19.9867,327,5,
85.0933,4.0625,7.13959,2.756,19.9867,327,5,
85.0933,4.0625,7.13959,2.756,19.9867,327,5,
85.0933,4.06738,7.13806,2.756,19.9867,327,5,
85.0934,4.06769,7.14111,2.756,19.9867,327,5,
85.0934,4.06738,7.13806,2.756,19.9867,327,5,
85.0934,4.06799,7.14111,2.756,19.9867,327,5,
85.0935,4.06677,7.14264,2.756,19.9867,327,5,
85.0935,4.06921,7.14111,2.756,19.9867,327,5,
85.0935,4.07135,7.13654,2.756,19.9867,327,5,
85.0936,4.07166,7.13959,2.756,19.9867,327,5,
85.0936,4.07227,7.14264,2.756,19.9867,327,5,
85.0936,4.07227,7.13959,2.756,19.9867,327,5,
85.0937,4.07227,7.13806,2.756,19.9867,327,5,
85.0937,4.07684,7.13501,2.756,19.9867,327,5,
85.0937,4.07684,7.13959,2.756,19.9867,327,5,
85.0938,4.07684,7.13654,2.756,19.9867,327,5,
85.0938,4.07745,7.13959,2.756,19.9867,327,5,
85.0938,4.07715,7.13806,2.756,19.9867,327,5,
85.0939,4.08234,7.13806,2.756,19.9867,327,5,
85.0939,4.08173,7.14264,2.756,19.9867,327,5,
85.0939,4.08173,7.13806,2.756,19.9867,327,5,
85.094,4.08234,7.13654,2.756,19.9867,327,5,
85.094,4.08203,7.13959,2.756,19.9867,327,5,
85.094,4.08752,7.13806,2.756,19.9867,327,5,
85.0941,4.08722,7.13959,2.756,19.9867,327,5,
85.0941,4.08691,7.13959,2.756,19.9867,327,5,
85.0941,4.08722,7.13959,2.756,19.9867,327,5,
85.0942,4.09149,7.14417,2.756,19.9867,327,5,
85.0942,4.0921,7.13806,2.756,19.9867,327,5,
85.0942,4.09271,7.13959,2.756,19.9867,327,5,
85.0943,4.0921,7.14111,2.756,19.9867,327,5,
85.0943,4.0918,7.14264,2.756,19.9867,327,5,
85.0943,4.09637,7.13806,2.756,19.9867,327,5,
85.0944,4.09668,7.13959,2.756,19.9867,327,5,
85.0944,4.0979,7.14111,2.756,19.9867,327,0,
85.0944,4.09637,7.13043,2.756,19.9867,327,0,
85.0945,4.10187,7.12433,2.756,19.9867,327,0,
85.0945,4.10187,7.12586,2.756,19.9867,327,0,
85.0945,4.10095,7.12738,2.756,19.9867,327,0,
85.0946,4.10187,7.12738,2.756,19.9867,327,0,
85.0946,4.10583,7.1228,2.756,19.9867,327,0,
85.0946,4.10614,7.12738,2.756,19.9867,327,0,
85.0947,4.10645,7.12128,2.756,19.9867,327,0,
85.0947,4.10645,7.13043,2.756,19.9867,327,0,
85.0947,4.11133,7.12738,2.756,19.9867,327,0,
85.0948,4.11133,7.12433,2.756,19.9867,327,0,
85.0948,4.11133,7.12891,2.756,19.9867,327,0,
85.0948,4.11133,7.12738,2.756,19.9867,327,0,
85.0949,4.11652,7.12891,2.756,19.9867,327,0,
85.0949,4.11652,7.12586,2.756,19.9867,327,0,
85.0949,4.11591,7.12586,2.756,19.9867,327,0,
85.095,4.11621,7.12891,2.756,19.9867,327,0,
85.095,4.1214,7.12433,2.756,19.9867,327,0,
85.095,4.1217,7.13043,2.756,19.9867,327,0,
85.0951,4.12109,7.12586,2.756,19.9867,327,0,
85.0951,4.12476,7.12738,2.756,19.9867,327,0,
85.0951,4.12567,7.12433,2.756,19.9867,327,0,
85.0952,4.12567,7.12738,2.756,19.9867,327,0,
85.0952,4.12628,7.12738,2.756,19.9867,327,0,
85.0952,4.13116,7.12738,2.756,19.9867,327,0,
85.0953,4.13086,7.13043,2.756,19.9867,327,0,
85.0953,4.13055,7.12738,2.756,19.9867,327,0,
85.0953,4.1333,7.1228,2.756,19.9867,327,0,
85.0954,4.13635,7.12738,2.756,19.9867,327,0,
85.0954,4.13483,7.12891,2.756,19.9867,327,0,
85.0954,4.13513,7.12586,2.756,19.9867,327,0,
85.0955,4.14032,7.12738,2.756,19.9867,327,0,
85.0955,4.14062,7.12433,2.756,19.9867,327,0,
85.0955,4.14062,7.12586,2.756,19.9867,327,0,
85.0956,4.14429,7.12586,2.756,19.9867,327,0,
85.0956,4.14551,7.12433,2.756,19.9867,327,0,
85.0956,4.14581,7.12586,2.756,19.9867,327,0,
85.0957,4.14764,7.12586,2.756,19.9867,327,0,
85.0957,4.1507,7.12433,2.756,19.9867,327,0,
85.0957,4.1507,7.12738,2.756,19.9867,327,0,
85.0958,4.15253,7.12738,2.756,19.9867,327,0,
85.0958,4.15436,7.12586,2.756,19.9867,327,0,
85.0958,4.15558,7.13043,2.756,19.9867,327,0,
85.0959,4.15497,7.12433,2.756,19.9867,327,0,
85.0959,4.16046,7.12586,2.756,19.9867,327,0,
85.0959,4.16077,7.12738,2.756,19.9867,327,0,
85.096,4.15985,7.1228,2.756,19.9867,327,0,
85.096,4.16443,7.12738,2.756,19.9867,327,0,
85.096,4.16443,7.12433,2.756,19.9867,327,0,
85.0961,4.16473,7.12586,2.756,19.9867,327,0,
85.0961,4.16901,7.12738,2.756,19.9867,327,0,
85.0961,4.16992,7.12433,2.756,19.9867,327,0,
85.0962,4.16992,7.12586,2.756,19.9867,327,0,
85.0962,4.17511,7.12738,2.756,19.9867,327,0,
85.0962,4.17542,7.12586,2.756,19.9867,327,0,
85.0963,4.17511,7.12433,2.756,19.9867,327,0,
85.0963,4.17969,7.11365,2.756,19.9867,327,0,
85.0963,4.17969,7.11212,2.756,19.9867,327,0,
85.0964,4.17908,7.11517,2.756,19.9867,327,0,
85.0964,4.18488,7.11517,2.756,19.9867,327,0,
85.0964,4.18518,7.11517,2.756,19.9867,327,0,
85.0965,4.18518,7.11212,2.756,19.9867,327,0,
85.0965,4.18976,7.1167,2.756,19.9867,327,0,
85.0965,4.18915,7.11517,2.756,19.9867,327,0,
85.0966,4.18945,7.11365,2.756,19.9867,327,0,
85.0966,4.19495,7.1167,2.756,19.9867,327,0,
85.0966,4.19525,7.11517,2.756,19.9867,327,0,
85.0967,4.19495,7.11365,2.756,19.9867,327,0,
85.0967,4.19922,7.11212,2.756,19.9867,327,0,
85.0967,4.19922,7.1167,2.756,19.9867,327,0,
85.0968,4.20227,7.11517,2.756,19.9867,327,0,
85.0968,4.20441,7.11517,2.756,19.9867,327,0,
85.0968,4.20441,7.11517,2.756,19.9867,327,0,
85.0969,4.20868,7.1167,2.756,19.9867,327,0,
85.0969,4.20898,7.11212,2.756,19.9867,327,0,
85.0969,4.20959,7.1167,2.756,19.9867,327,0,
85.097,4.21417,7.11365,2.756,19.9867,327,0,
85.097,4.21387,7.1106,2.756,19.9867,327,0,
85.097,4.21387,7.1106,2.756,19.9867,327,0,
85.0971,4.21906,7.11823,2.756,19.9867,327,0,
85.0971,4.21844,7.11365,2.756,19.9867,327,0,
85.0971,4.2218,7.11365,2.756,19.9867,327,0,
85.0972,4.22455,7.11517,2.756,19.9867,327,0,
85.0972,4.22424,7.11212,2.756,19.9867,327,0,
85.0972,4.22882,7.11823,2.756,19.9867,327,0,
85.0973,4.22913,7.11517,2.756,19.9867,327,0,
85.0973,4.22882,7.11365,2.756,19.9867,327,0,
85.0973,4.2337,7.11517,2.756,19.9867,327,0,
85.0974,4.2337,7.11517,2.756,19.9867,327,0,
85.0974,4.23676,7.11517,2.756,19.9867,327,0,
85.0974,4.23859,7.11517,2.756,19.9867,327,0,
85.0975,4.23889,7.11517,2.756,19.9867,327,0,
85.0975,4.24347,7.11365,2.756,19.9867,327,0,
85.0975,4.24347,7.11212,2.756,19.9867,327,0,
85.0976,4.24347,7.11365,2.756,19.9867,327,0,
85.0976,4.24866,7.1167,2.756,19.9867,327,0,
85.0976,4.24866,7.11365,2.756,19.9867,327,0,
85.0977,4.2511,7.11517,2.756,19.9867,327,0,
85.0977,4.25385,7.11517,2.756,19.9867,327,0,
85.0977,4.25323,7.11365,2.756,19.9867,327,0,
85.0978,4.25812,7.11823,2.756,19.9867,327,0,
85.0978,4.25842,7.11517,2.756,19.9867,327,0,
85.0978,4.25842,7.11517,2.756,19.9867,327,0,
85.0979,4.26361,7.11517,2.756,19.9867,327,0,
85.0979,4.263,7.1167,2.756,19.9867,327,0,
85.0979,4.26788,7.11517,2.756,19.9867,327,0,
85.098,4.26788,7.11517,2.756,19.9867,327,0,
85.098,4.26819,7.11212,2.756,19.9867,327,0,
85.098,4.27307,7.10297,2.756,19.9867,327,0,
85.0981,4.27277,7.10144,2.756,19.9867,327,0,
85.0981,4.27765,7.10449,2.756,19.9867,327,0,
85.0981,4.27734,7.10144,2.756,19.9867,327,0,
85.0982,4.27765,7.10144,2.756,19.9867,327,0,
85.0982,4.28284,7.09992,2.756,19.9867,327,0,
85.0982,4.28284,7.10297,2.756,19.9867,327,0,
85.0983,4.28741,7.10144,2.756,19.9867,327,0,
85.0983,4.28741,7.10144,2.756,19.9867,327,0,
85.0983,4.28833,7.10297,2.756,19.9867,327,0,
85.0984,4.2926,7.10297,2.756,19.9867,327,0,
85.0984,4.2926,7.10144,2.756,19.9867,327,0,
85.0984,4.29626,7.10297,2.756,19.9867,327,0,
85.0985,4.29749,7.10297,2.756,19.9867,327,0,
85.0985,4.29749,7.10297,2.756,19.9867,327,0,
85.0985,4.30298,7.09992,2.756,19.9867,327,0,
85.0986,4.30237,7.10449,2.756,19.9867,327,0,
85.0986,4.30756,7.10754,2.756,19.9867,327,0,
85.0986,4.30756,7.10144,2.756,19.9867,327,0,
85.0987,4.30969,7.10144,2.756,19.9867,327,0,
85.0987,4.31244,7.10602,2.756,19.9867,327,0,
85.0987,4.31244,7.10144,2.756,19.9867,327,0,
85.0988,4.31732,7.10297,2.756,19.9867,327,0,
85.0988,4.31763,7.10602,2.756,19.9867,327,0,
85.0988,4.32129,7.10297,2.756,19.9867,327,0,
85.0989,4.3222,7.10297,2.756,19.9867,327,0,
85.0989,4.3219,7.10297,2.756,19.9867,327,0,
85.0989,4.32678,7.10449,2.756,19.9867,327,0,
85.099,4.32648,7.10297,2.756,19.9867,327,0,
85.099,4.33197,7.10297,2.756,19.9867,327,0,
85.099,4.33197,7.10144,2.756,19.9867,327,0,
85.0991,4.33411,7.10297,2.756,19.9867,327,0,
85.0991,4.33685,7.10144,2.756,19.9867,327,0,
85.0991,4.33624,7.10449,2.756,19.9867,327,0,
85.0992,4.34113,7.10449,2.756,19.9867,327,0,
85.0992,4.34143,7.10144,2.756,19.9867,327,0,
85.0992,4.34601,7.10449,2.756,19.9867,327,0,
85.0993,4.3457,7.10144,2.756,19.9867,327,0,
85.0993,4.34875,7.10297,2.756,19.9867,327,0,
85.0993,4.35089,7.10449,2.756,19.9867,327,0,
85.0994,4.35089,7.10449,2.756,19.9867,327,0,
85.0994,4.35669,7.10449,2.756,19.9867,327,0,
85.0994,4.35577,7.10449,2.756,19.9867,327,0,
85.0995,4.36066,7.10144,2.756,19.9867,327,0,
85.0995,4.36127,7.10144,2.756,19.9867,327,0,
85.0995,4.36371,7.10449,2.756,19.9867,327,0,
85.0996,4.36646,7.10907,2.756,19.9867,327,0,
85.0996,4.36554,7.10144,2.756,19.9867,327,0,
85.0996,4.37042,7.10297,2.756,19.9867,327,0,
85.0997,4.37042,7.10144,2.756,19.9867,327,0,
85.0997,4.37561,7.10144,2.756,19.9867,327,0,
85.0997,4.37622,7.10297,2.756,19.9867,327,0,
85.0998,4.37775,7.09534,2.756,19.9867,327,0,
85.0998,4.3811,7.09076,2.756,19.9867,327,0,
85.0998,4.38049,7.09076,2.756,19.9867,327,0,
85.0999,4.38568,7.09076,2.756,19.9867,327,0,
85.0999,4.38538,7.09076,2.756,19.9867,327,0,
85.0999,4.39026,7.09076,2.756,19.9867,327,0,
85.1,4.39026,7.08618,2.756,19.9867,327,0,
85.1,4.3927,7.08923,2.756,19.9867,327,0,
85.1,4.39575,7.09076,2.756,19.9867,327,0,
85.1001,4.39575,7.08923,2.756,19.9867,327,0,
85.1001,4.40063,7.08923,2.756,19.9867,327,0,
85.1001,4.40033,7.09076,2.756,19.9867,327,0,
85.1002,4.40491,7.08923,2.756,19.9867,327,0,
85.1002,4.40521,7.09076,2.756,19.9867,327,0,
85.1002,4.40948,7.08923,2.756,19.9867,327,0,
85.1003,4.40948,7.09076,2.756,19.9867,327,0,
85.1003,4.4104,7.08771,2.756,19.9867,327,0,
85.1003,4.41498,7.09229,2.756,19.9867,327,0,
85.1004,4.41528,7.08771,2.756,19.9867,327,0,
85.1004,4.41986,7.08923,2.756,19.9867,327,0,
85.1004,4.42017,7.08923,2.756,19.9867,327,0,
85.1005,4.42474,7.08923,2.756,19.9867,327,0,
85.1005,4.42535,7.08923,2.756,19.9867,327,0,
85.1005,4.42719,7.09076,2.756,19.9867,327,0,
85.1006,4.42963,7.08923,2.756,19.9867,327,0,
85.1006,4.42963,7.08923,2.756,19.9867,327,0,
85.1006,4.43451,7.09076,2.756,19.9867,327,0,
85.1007,4.43481,7.09076,2.756,19.9867,327,0,
85.1007,4.43878,7.09076,2.756,19.9867,327,0,
85.1007,4.44031,7.08923,2.756,19.9867,327,0,
85.1008,4.44214,7.08771,2.756,19.9867,327,0,
85.1008,4.44489,7.08923,2.756,19.9867,327,0,
85.1008,4.44458,7.09076,2.756,19.9867,327,0,
85.1009,4.44946,7.09076,2.756,19.9867,327,0,
85.1009,4.44946,7.09229,2.756,19.9867,327,0,
85.1009,4.45435,7.08771,2.756,19.9867,327,0,
85.101,4.45465,7.09229,2.756,19.9867,327,0,
85.101,4.45831,7.08771,2.756,19.9867,327,0,
85.101,4.45862,7.08771,2.756,19.9867,327,0,
85.1011,4.45923,7.08923,2.756,19.9867,327,0,
85.1011,4.46411,7.08618,2.756,19.9867,327,0,
85.1011,4.46381,7.09076,2.756,19.9867,327,0,
85.1012,4.46838,7.08923,2.756,19.9867,327,0,
85.1012,4.46899,7.09229,2.756,19.9867,327,0,
85.1012,4.47296,7.09076,2.756,19.9867,327,0,
85.1013,4.47357,7.08618,2.756,19.9867,327,0,
85.1013,4.47571,7.09381,2.756,19.9867,327,0,
85.1013,4.47754,7.08923,2.756,19.9867,327,0,
85.1014,4.47845,7.08923,2.756,19.9867,327,0,
85.1014,4.48334,7.08771,2.756,19.9867,327,0,
85.1014,4.48395,7.08923,2.756,19.9867,327,0,
85.1015,4.48822,7.09229,2.756,19.9867,327,0,
85.1015,4.48883,7.09229,2.756,19.9867,327,0,
85.1015,4.49249,7.08923,2.756,19.9867,327,0,
85.1016,4.49341,7.09076,2.756,19.9867,327,0,
85.1016,4.49554,7.09381,2.756,19.9867,327,0,
85.1016,4.49799,7.08923,2.756,19.9867,327,0,
85.1017,4.4986,7.09076,2.756,19.9867,327,0,
85.1017,4.50378,7.0755,2.756,19.9867,327,0,
85.1017,4.50348,7.0816,2.756,19.9867,327,0,
85.1018,4.50806,7.07855,2.756,19.9867,327,0,
85.1018,4.50806,7.0816,2.756,19.9867,327,0,
85.1018,4.51233,7.08008,2.756,19.9867,327,0,
85.1019,4.51263,7.07703,2.756,19.9867,327,0,
85.1019,4.51569,7.0755,2.756,19.9867,327,0,
85.1019,4.51782,7.08008,2.756,19.9867,327,0,
85.102,4.51782,7.08008,2.756,19.9867,327,0,
85.102,4.52301,7.0755,2.756,19.9867,327,0,
85.102,4.52209,7.08008,2.756,19.9867,327,0,
85.1021,4.52728,7.07703,2.756,19.9867,327,0,
85.1021,4.52759,7.07398,2.756,19.9867,327,0,
85.1021,4.53247,7.0755,2.756,19.9867,327,0,
85.1022,4.53308,7.07855,2.756,19.9867,327,0,
85.1022,4.53491,7.07855,2.756,19.9867,327,0,
85.1022,4.53766,7.07703,2.756,19.9867,327,0,
85.1023,4.53705,7.07855,2.756,19.9867,327,0,
85.1023,4.54285,7.07703,2.756,19.9867,327,0,
85.1023,4.54224,7.08008,2.756,19.9867,327,0,
85.1024,4.54742,7.07703,2.756,19.9867,327,0,
85.1024,4.54803,7.07855,2.756,19.9867,327,0,
85.1024,4.5517,7.07855,2.756,19.9867,327,0,
85.1025,4.552,7.0755,2.756,19.9867,327,0,
85.1025,4.55505,7.08008,2.756,19.9867,327,0,
85.1025,4.55688,7.07703,2.756,19.9867,327,0,
85.1026,4.55719,7.07855,2.756,19.9867,327,0,
85.1026,4.56177,7.08008,2.756,19.9867,327,0,
85.1026,4.56177,7.08008,2.756,19.9867,327,0,
85.1027,4.56665,7.07398,2.756,19.9867,327,0,
85.1027,4.56604,7.07703,2.756,19.9867,327,0,
85.1027,4.57123,7.07703,2.756,19.9867,327,0,
85.1028,4.57153,7.07703,2.756,19.9867,327,0,
85.1028,4.57367,7.07855,2.756,19.9867,327,0,
85.1028,4.57733,7.07855,2.756,19.9867,327,0,
85.1029,4.57642,7.08008,2.756,19.9867,327,0,
85.1029,4.58221,7.07855,2.756,19.9867,327,0,
85.1029,4.58191,7.07703,2.756,19.9867,327,0,
85.103,4.58588,7.07703,2.756,19.9867,327,0,
85.103,4.58679,7.08008,2.756,19.9867,327,0,
85.103,4.59045,7.0755,2.756,19.9867,327,0,
85.1031,4.59198,7.07855,2.756,19.9867,327,0,
85.1031,4.59442,7.07703,2.756,19.9867,327,0,
85.1031,4.59595,7.08008,2.756,19.9867,327,0,
85.1032,4.59656,7.0755,2.756,19.9867,327,0,
85.1032,4.60114,7.07855,2.756,19.9867,327,0,
85.1032,4.60052,7.08008,2.756,19.9867,327,0,
85.1033,4.60571,7.07703,2.756,19.9867,327,0,
85.1033,4.60632,7.07855,2.756,19.9867,327,0,
85.1033,4.60876,7.0816,2.756,19.9867,327,0,
85.1034,4.61151,7.07855,2.756,19.9867,327,0,
85.1034,4.61151,7.07855,2.756,19.9867,327,0,
85.1034,4.61609,7.07703,2.756,19.9867,327,0,
85.1035,4.61639,7.08008,2.756,19.9867,327,0,
85.1035,4.62036,7.07703,2.756,19.9867,327,0,
85.1035,4.62067,7.08008,2.756,19.9867,327,0,
85.1036,4.62311,7.07855,2.756,19.9867,327,0,
85.1036,4.62585,7.07855,2.756,19.9867,327,0,
85.1036,4.62585,7.06787,2.756,19.9867,327,0,
85.1037,4.63013,7.06482,2.756,19.9867,327,0,
85.1037,4.63104,7.0694,2.756,19.9867,327,0,
85.1037,4.63531,7.06635,2.756,19.9867,327,0,
85.1038,4.6347,7.06635,2.756,19.9867,327,0,
85.1038,4.63562,7.06482,2.756,19.9867,327,0,
85.1038,4.64081,7.06482,2.756,19.9867,327,0,
85.1039,4.6405,7.06635,2.756,19.9867,327,0,
85.1039,4.64508,7.06635,2.756,19.9867,327,0,
85.1039,4.64569,7.06482,2.756,19.9867,327,0,
85.104,4.64813,7.06177,2.756,19.9867,327,0,
85.104,4.64996,7.06635,2.756,19.9867,327,0,
85.104,4.65057,7.06482,2.756,19.9867,327,0,
85.1041,4.65485,7.06329,2.756,19.9867,327,0,
85.1041,4.65546,7.06329,2.756,19.9867,327,0,
85.1041,4.6579,7.06635,2.756,19.9867,327,0,
85.1042,4.66003,7.06635,2.756,19.9867,327,0,
85.1042,4.66064,7.06177,2.756,19.9867,327,0,
85.1042,4.66492,7.06635,2.756,19.9867,327,0,
85.1043,4.66553,7.06482,2.756,19.9867,327,0,
85.1043,4.6698,7.06329,2.756,19.9867,327,0,
85.1043,4.6701,7.06329,2.756,19.9867,327,0,
85.1044,4.6698,7.06635,2.756,19.9867,327,0,
85.1044,4.67499,7.06482,2.756,19.9867,327,0,
85.1044,4.67468,7.06482,2.756,19.9867,327,0,
85.1045,4.67834,7.06635,2.756,19.9867,327,0,
85.1045,4.67987,7.0694,2.756,19.9867,327,0,
85.1045,4.67987,7.06329,2.756,19.9867,327,0,
85.1046,4.68445,7.06635,2.756,19.9867,327,0,
85.1046,4.68475,7.06635,2.756,19.9867,327,0,
85.1046,4.68719,7.06635,2.756,19.9867,327,0,
85.1047,4.68964,7.06177,2.756,19.9867,327,0,
85.1047,4.68964,7.06787,2.756,19.9867,327,0,
85.1047,4.69421,7.06635,2.756,19.9867,327,0,
85.1048,4.69482,7.06482,2.756,19.9867,327,0,
85.1048,4.69696,7.06635,2.756,19.9867,327,0,
85.1048,4.6991,7.06635,2.756,19.9867,327,0,
85.1049,4.70001,7.06482,2.756,19.9867,327,0,
85.1049,4.70428,7.06635,2.756,19.9867,327,0,
85.1049,4.70428,7.0694,2.756,19.9867,327,0,
85.105,4.70398,7.06482,2.756,19.9867,327,0,
85.105,4.70856,7.06787,2.756,19.9867,327,0,
85.105,4.70917,7.0694,2.756,19.9867,327,0,
85.1051,4.71313,7.06635,2.756,19.9867,327,0,
85.1051,4.71436,7.06482,2.756,19.9867,327,0,
85.1051,4.71405,7.06329,2.756,19.9867,327,0,
85.1052,4.71893,7.06635,2.756,19.9867,327,0,
85.1052,4.71924,7.06482,2.756,19.9867,327,0,
85.1052,4.71924,7.06482,2.756,19.9867,327,0,
85.1053,4.72382,7.06635,2.756,19.9867,327,0,
85.1053,4.72412,7.0694,2.756,19.9867,327,0,
85.1053,4.72809,7.06635,2.756,19.9867,327,0,
85.1054,4.7287,7.06329,2.756,19.9867,327,0,
85.1054,4.72839,7.06177,2.756,19.9867,327,0,
85.1054,4.73328,7.0694,2.756,19.9867,327,0,
85.1055,4.73297,7.06329,2.756,19.9867,327,0,
85.1055,4.73328,7.06329,2.756,19.9867,327,0,
85.1055,4.73877,7.05567,2.756,19.9867,327,0,
85.1056,4.73846,7.05567,2.756,19.9867,327,0,
85.1056,4.74121,7.05567,2.756,19.9867,327,0,
85.1056,4.74335,7.05261,2.756,19.9867,327,0,
85.1057,4.74365,7.05261,2.756,19.9867,327,0,
85.1057,4.74762,7.05261,2.756,19.9867,327,0,
85.1057,4.74823,7.05109,2.756,19.9867,327,0,
85.1058,4.74792,7.05261,2.756,19.9867,327,0,
85.1058,4.75342,7.05414,2.756,19.9867,327,0,
85.1058,4.75311,7.05414,2.756,19.9867,327,0,
85.1059,4.75372,7.05414,2.756,19.9867,327,0,
85.1059,4.758,7.05414,2.756,19.9867,327,0,
85.1059,4.7583,7.05414,2.756,19.9867,327,0,
85.106,4.76013,7.05261,2.756,19.9867,327,0,
85.106,4.76318,7.05109,2.756,19.9867,327,0,
85.106,4.76257,7.05261,2.756,19.9867,327,0,
85.1061,4.76562,7.05414,2.756,19.9867,327,0,
85.1061,4.76837,7.05414,2.756,19.9867,327,0,
85.1061,4.76837,7.05261,2.756,19.9867,327,0,
85.1062,4.77203,7.05414,2.756,19.9867,327,0,
85.1062,4.77264,7.05261,2.756,19.9867,327,0,
85.1062,4.77325,7.05261,2.756,19.9867,327,0,
85.1063,4.77783,7.05414,2.756,19.9867,327,0,
85.1063,4.77783,7.05414,2.756,19.9867,327,0,
85.1063,4.77722,7.05567,2.756,19.9867,327,0,
85.1064,4.78302,7.05719,2.756,19.9867,327,0,
85.1064,4.78241,7.05414,2.756,19.9867,327,0,
85.1064,4.78271,7.05109,2.756,19.9867,327,0,
85.1065,4.78699,7.05261,2.756,19.9867,327,0,
85.1065,4.78729,7.05414,2.756,19.9867,327,0,
85.1065,4.7876,7.05261,2.756,19.9867,327,0,
85.1066,4.79248,7.05261,2.756,19.9867,327,0,
85.1066,4.79279,7.05261,2.756,19.9867,327,0,
85.1066,4.79279,7.05261,2.756,19.9867,327,0,
85.1067,4.79675,7.05414,2.756,19.9867,327,0,
85.1067,4.79767,7.05414,2.756,19.9867,327,0,
85.1067,4.79767,7.05261,2.756,19.9867,327,0,
85.1068,4.80286,7.05414,2.756,19.9867,327,0,
85.1068,4.80286,7.05567,2.756,19.9867,327,0,
85.1068,4.80286,7.05414,2.756,19.9867,327,0,
85.1069,4.80743,7.05261,2.756,19.9867,327,0,
85.1069,4.80774,7.05414,2.756,19.9867,327,0,
85.1069,4.80804,7.05414,2.756,19.9867,327,0,
85.107,4.81232,7.04956,2.756,19.9867,327,0,
85.107,4.81262,7.05109,2.756,19.9867,327,0,
85.107,4.81232,7.05719,2.756,19.9867,327,0,
85.1071,4.81659,7.05567,2.756,19.9867,327,5,
85.1071,4.8172,7.05719,2.756,19.9867,327,5,
85.1071,4.81659,7.05414,2.756,19.9867,327,5,
85.1072,4.82208,7.05567,2.756,19.9867,327,5,
85.1072,4.82239,7.05261,2.756,19.9867,327,5,
85.1072,4.82269,7.05261,2.756,19.9867,327,5,
85.1073,4.82666,7.05719,2.756,19.9867,327,5,
85.1073,4.82605,7.05261,2.756,19.9867,327,5,
85.1073,4.82635,7.04041,2.756,19.9867,327,5,
85.1074,4.83185,7.04346,2.756,19.9867,327,5,
85.1074,4.83154,7.04346,2.756,19.9867,327,5,
85.1074,4.83215,7.04193,2.756,19.9867,327,5,
85.1075,4.83765,7.04193,2.756,19.9867,327,5,
85.1075,4.83643,7.04498,2.756,19.9867,327,5,
85.1075,4.83643,7.03888,2.756,19.9867,327,5,
85.1076,4.84131,7.04041,2.756,19.9867,327,5,
85.1076,4.84131,7.04346,2.756,19.9867,327,5,
85.1076,4.841,7.04193,2.756,19.9867,327,5,
85.1077,4.8468,7.04193,2.756,19.9867,327,5,
85.1077,4.84619,7.04498,2.756,19.9867,327,5,
85.1077,4.84863,7.04041,2.756,19.9867,327,5,
85.1078,4.85138,7.04041,2.756,19.9867,327,5,
85.1078,4.85199,7.04193,2.756,19.9867,327,5,
85.1078,4.85352,7.04346,2.756,19.9867,327,5,
85.1079,4.85596,7.04041,2.756,19.9867,327,5,
85.1079,4.85657,7.04193,2.756,19.9867,327,5,
85.1079,4.86023,7.04193,2.756,19.9867,327,5,
85.108,4.86145,7.04193,2.756,19.9867,327,5,
85.108,4.86115,7.04498,2.756,19.9867,327,5,
85.108,4.86511,7.03888,2.756,19.9867,327,5,
85.1081,4.86572,7.04346,2.756,19.9867,327,5,
85.1081,4.86633,7.04498,2.756,19.9867,327,5,
85.1081,4.87091,7.04041,2.756,19.9867,327,5,
85.1082,4.87061,7.04041,2.756,19.9867,327,5,
85.1082,4.8703,7.04041,2.756,19.9867,327,5,
85.1082,4.87579,7.04193,2.756,19.9867,327,5,
85.1083,4.8764,7.04041,2.756,19.9867,327,5,
85.1083,4.87885,7.04193,2.756,19.9867,327,5,
85.1083,4.88068,7.04346,2.756,19.9867,327,5,
85.1084,4.88007,7.04041,2.756,19.9867,327,5,
85.1084,4.88495,7.04498,2.756,19.9867,327,5,
85.1084,4.88525,7.04193,2.756,19.9867,327,5,
85.1085,4.88556,7.04041,2.756,19.9867,327,5,
85.1085,4.89044,7.04041,2.756,19.9867,327,5,
85.1085,4.89014,7.04193,2.756,19.9867,327,5,
85.1086,4.89075,7.04041,2.756,19.9867,327,5,
85.1086,4.89441,7.04346,2.756,19.9867,327,5,
85.1086,4.89563,7.04041,2.756,19.9867,327,5,
85.1087,4.89746,7.04041,2.756,19.9867,327,5,
85.1087,4.90021,7.04498,2.756,19.9867,327,5,
85.1087,4.90021,7.04193,2.756,19.9867,327,5,
85.1088,4.90417,7.04193,2.756,19.9867,327,5,
85.1088,4.9057,7.04041,2.756,19.9867,327,5,
85.1088,4.90601,7.04346,2.756,19.9867,327,5,
85.1089,4.90967,7.04498,2.756,19.9867,327,5,
85.1089,4.90936,7.04041,2.756,19.9867,327,5,
85.1089,4.90997,7.03583,2.756,19.9867,327,5,
85.109,4.91486,7.04041,2.756,19.9867,327,5,
85.109,4.91516,7.04498,2.756,19.9867,327,5,
85.109,4.91913,7.04193,2.756,19.9867,327,5,
85.1091,4.92004,7.04041,2.756,19.9867,327,5,
85.1091,4.91943,7.04346,2.756,19.9867,327,5,
85.1091,4.92462,7.04041,2.756,19.9867,327,5,
85.1092,4.92523,7.04041,2.756,19.9867,327,5,
85.1092,4.92432,7.04193,2.756,19.9867,327,5,
85.1092,4.9295,7.03125,2.756,19.9867,327,5,
85.1093,4.92981,7.02973,2.756,19.9867,327,5,
85.1093,4.93225,7.0282,2.756,19.9867,327,5,
85.1093,4.935,7.03125,2.756,19.9867,327,5,
85.1094,4.93439,7.03125,2.756,19.9867,327,5,
85.1094,4.93927,7.0282,2.756,19.9867,327,5,
85.1094,4.93958,7.02973,2.756,19.9867,327,5,
85.1095,4.93958,7.02973,2.756,19.9867,327,5,
85.1095,4.94415,7.03125,2.756,19.9867,327,5,
85.1095,4.94415,7.0282,2.756,19.9867,327,5,
85.1096,4.94629,7.02667,2.756,19.9867,327,5,
85.1096,4.94934,7.0282,2.756,19.9867,327,5,
85.1096,4.94965,7.02973,2.756,19.9867,327,5,
85.1097,4.95331,7.02973,2.756,19.9867,327,5,
85.1097,4.95392,7.02667,2.756,19.9867,327,5,
85.1097,4.95422,7.02667,2.756,19.9867,327,5,
85.1098,4.95911,7.02973,2.756,19.9867,327,5,
85.1098,4.9588,7.0282,2.756,19.9867,327,5,
85.1098,4.9588,7.02667,2.756,19.9867,327,5,
85.1099,4.96399,7.02973,2.756,19.9867,327,5,
85.1099,4.9646,7.03125,2.756,19.9867,327,5,
85.1099,4.96674,7.02973,2.756,19.9867,327,5,
85.11,4.96887,7.0282,2.756,19.9867,327,5,
85.11,4.96918,7.02667,2.756,19.9867,327,5,
85.11,4.97314,7.0343,2.756,19.9867,327,5,
85.1101,4.97437,7.0282,2.756,19.9867,327,5,
85.1101,4.97437,7.0282,2.756,19.9867,327,5,
85.1101,4.97803,7.0282,2.756,19.9867,327,5,
85.1102,4.97894,7.02973,2.756,19.9867,327,5,
85.1102,4.97894,7.0282,2.756,19.9867,327,5,
85.1102,4.98474,7.0282,2.756,19.9867,327,5,
85.1103,4.98383,7.02667,2.756,19.9867,327,5,
85.1103,4.98413,7.02973,2.756,19.9867,327,5,
85.1103,4.98901,7.02667,2.756,19.9867,327,5,
85.1104,4.98901,7.02667,2.756,19.9867,327,5,
85.1104,4.98871,7.0282,2.756,19.9867,327,5,
85.1104,4.9942,7.0282,2.756,19.9867,327,5,
85.1105,4.9939,7.02973,2.756,19.9867,327,5,
85.1105,4.99603,7.02973,2.756,19.9867,327,5,
85.1105,4.99847,7.02973,2.756,19.9867,327,5,
85.1106,4.99878,7.02667,2.756,19.9867,327,5,
85.1106,5.00153,7.02515,2.756,19.9867,327,5,
85.1106,5.00305,7.03125,2.756,19.9867,327,5,
85.1107,5.00305,7.02973,2.756,19.9867,327,5,
85.1107,5.00641,7.03125,2.756,19.9867,327,5,
85.1107,5.00854,7.03125,2.756,19.9867,327,5,
85.1108,5.00824,7.02973,2.756,19.9867,327,5,
85.1108,5.01068,7.03125,2.756,19.9867,327,5,
85.1108,5.01343,7.0282,2.756,19.9867,327,5,
85.1109,5.01312,7.0282,2.756,19.9867,327,5,
85.1109,5.01556,7.03125,2.756,19.9867,327,5,
85.1109,5.01831,7.02973,2.756,19.9867,327,5,
85.111,5.0177,7.03125,2.756,19.9867,327,5,
85.111,5.01831,7.02973,2.756,19.9867,327,5,
85.111,5.02258,7.02973,2.756,19.9867,327,5,
85.1111,5.02319,7.03125,2.756,19.9867,327,5,
85.1111,5.02319,7.02973,2.756,19.9867,327,5,
85.1111,5.02808,7.02515,2.756,19.9867,327,5,
85.1112,5.02777,7.02362,2.756,19.9867,327,5,
85.1112,5.02808,7.01752,2.756,19.9867,327,5,
85.1112,5.03235,7.01752,2.756,19.9867,327,5,
85.1113,5.03326,7.01447,2.756,19.9867,327,5,
85.1113,5.03326,7.02057,2.756,19.9867,327,5,
85.1113,5.03571,7.01447,2.756,19.9867,327,5,
85.1114,5.03723,7.01752,2.756,19.9867,327,5,
85.1114,5.03815,7.01752,2.756,19.9867,327,5,
85.1114,5.03723,7.01599,2.756,19.9867,327,5,
85.1115,5.04272,7.01752,2.756,19.9867,327,5,
85.1115,5.04272,7.02057,2.756,19.9867,327,5,
85.1115,5.04181,7.01904,2.756,19.9867,327,5,
85.1116,5.04639,7.01599,2.756,19.9867,327,5,
85.1116,5.0473,7.01447,2.756,19.9867,327,5,
85.1116,5.047,7.01904,2.756,19.9867,327,5,
85.1117,5.047,7.01599,2.756,19.9867,327,5,
85.1117,5.05219,7.01599,2.756,19.9867,327,5,
85.1117,5.05219,7.01447,2.756,19.9867,327,5,
85.1118,5.05219,7.01752,2.756,19.9867,327,5,
85.1118,5.05157,7.01752,2.756,19.9867,327,5,
85.1118,5.05707,7.01752,2.756,19.9867,327,5,
85.1119,5.05707,7.01599,2.756,19.9867,327,5,
85.1119,5.05737,7.01904,2.756,19.9867,327,5,
85.1119,5.05981,7.01599,2.756,19.9867,327,5,
85.112,5.06165,7.01752,2.756,19.9867,327,5,
85.112,5.06226,7.01904,2.756,19.9867,327,5,
85.112,5.06226,7.01447,2.756,19.9867,327,5,
85.1121,5.065,7.01599,2.756,19.9867,327,5,
85.1121,5.06714,7.01599,2.756,19.9867,327,5,
85.1121,5.06683,7.01904,2.756,19.9867,327,5,
85.1122,5.06653,7.01599,2.756,19.9867,327,5,
85.1122,5.06744,7.01752,2.756,19.9867,327,5,
85.1122,5.07141,7.01599,2.756,19.9867,327,5,
85.1123,5.07141,7.01599,2.756,19.9867,327,5,
85.1123,5.07202,7.02057,2.756,19.9867,327,5,
85.1123,5.07172,7.01447,2.756,19.9867,327,5,
85.1124,5.07599,7.02057,2.756,19.9867,327,5,
85.1124,5.07751,7.01904,2.756,19.9867,327,5,
85.1124,5.07721,7.01904,2.756,19.9867,327,5,
85.1125,5.0769,7.01752,2.756,19.9867,327,5,
85.1125,5.07629,7.01599,2.756,19.9867,327,5,
85.1125,5.08118,7.01752,2.756,19.9867,327,5,
85.1126,5.08087,7.01599,2.756,19.9867,327,5,
85.1126,5.08148,7.01752,2.756,19.9867,327,5,
85.1126,5.08087,7.01752,2.756,19.9867,327,5,
85.1127,5.08087,7.01752,2.756,19.9867,327,5,
85.1127,5.08667,7.01752,2.756,19.9867,327,5,
85.1127,5.08575,7.01752,2.756,19.9867,327,5,
85.1128,5.08575,7.01599,2.756,19.9867,327,5,
85.1128,5.08636,7.01752,2.756,19.9867,327,5,
85.1128,5.08575,7.01447,2.756,19.9867,327,5,
85.1129,5.09125,7.01599,2.756,19.9867,327,5,
85.1129,5.09125,7.01599,2.756,19.9867,327,5,
85.1129,5.09155,7.01752,2.756,19.9867,327,5,
85.113,5.09094,7.01294,2.756,19.9867,327,5,
85.113,5.09125,7.01599,2.756,19.9867,327,5,
85.113,5.09033,7.01447,2.756,19.9867,327,5,
85.1131,5.09613,7.01752,2.756,19.9867,327,5,
85.1131,5.09613,7.01599,2.756,19.9867,327,5,
85.1131,5.09552,7.02057,2.756,19.9867,327,5,
85.1132,5.09521,7.01752,2.756,19.9867,327,5,
85.1132,5.09552,7.01752,2.756,19.9867,327,5,
85.1132,5.09583,7.00684,2.756,19.9867,327,5,
85.1133,5.09888,7.00531,2.756,19.9867,327,5,
85.1133,5.10101,7.00989,2.756,19.9867,327,5,
85.1133,5.10071,7.00379,2.756,19.9867,327,5,
85.1134,5.10132,7.00836,2.756,19.9867,327,5,
85.1134,5.1001,7.00379,2.756,19.9867,327,5,
85.1134,5.10101,7.00379,2.756,19.9867,327,5,
85.1135,5.10071,7.00531,2.756,19.9867,327,5,
85.1135,5.1004,7.00379,2.756,19.9867,327,5,
85.1135,5.10529,7.00379,2.756,19.9867,327,5,
85.1136,5.10559,7.00684,2.756,19.9867,327,5,
85.1136,5.10529,7.00379,2.756,19.9867,327,5,
85.1136,5.1059,7.00531,2.756,19.9867,327,5,
85.1137,5.10559,7.00226,2.756,19.9867,327,5,
85.1137,5.10529,7.00379,2.756,19.9867,327,5,
85.1137,5.1059,7.00379,2.756,19.9867,327,5,
85.1138,5.1062,7.00836,2.756,19.9867,327,5,
85.1138,5.1059,7.00073,2.756,19.9867,327,5,
85.1138,5.10773,7.00379,2.756,19.9867,327,5,
85.1139,5.11047,7.00531,2.756,19.9867,327,5,
85.1139,5.11047,7.00684,2.756,19.9867,327,5,
85.1139,5.11078,7.00836,2.756,19.9867,327,5,
85.114,5.11047,7.00379,2.756,19.9867,327,5,
85.114,5.11017,7.00836,2.756,19.9867,327,5,
85.114,5.11047,7.00531,2.756,19.9867,327,5,
85.1141,5.11108,7.00531,2.756,19.9867,327,5,
85.1141,5.11108,7.00836,2.756,19.9867,327,5,
85.1141,5.11108,7.00226,2.756,19.9867,327,5,
85.1142,5.11047,7.00684,2.756,19.9867,327,5,
85.1142,5.11078,7.00684,2.756,19.9867,327,5,
85.1142,5.11078,7.00684,2.756,19.9867,327,5,
85.1143,5.11078,7.00684,2.756,19.9867,327,5,
85.1143,5.11505,7.00226,2.756,19.9867,327,5,
85.1143,5.11597,7.00684,2.756,19.9867,327,5,
85.1144,5.11566,7.00379,2.756,19.9867,327,5,
85.1144,5.11597,7.00531,2.756,19.9867,327,5,
85.1144,5.11566,7.00226,2.756,19.9867,327,5,
85.1145,5.11566,7.00684,2.756,19.9867,327,5,
85.1145,5.11627,7.00226,2.756,19.9867,327,5,
85.1145,5.11566,7.00531,2.756,19.9867,327,5,
85.1146,5.11566,7.00531,2.756,19.9867,327,5,
85.1146,5.11597,7.00531,2.756,19.9867,327,5,
85.1146,5.11566,7.00379,2.756,19.9867,327,5,
85.1147,5.11566,7.00684,2.756,19.9867,327,5,
85.1147,5.11536,7.00226,2.756,19.9867,327,5,
85.1147,5.11566,7.00379,2.756,19.9867,327,5,
85.1148,5.11505,7.00531,2.756,19.9867,327,5,
85.1148,5.11536,7.00531,2.756,19.9867,327,5,
85.1148,5.11597,7.00684,2.756,19.9867,327,5,
85.1149,5.11505,7.00379,2.756,19.9867,327,5,
85.1149,5.11536,7.00684,2.756,19.9867,327,5,
85.1149,5.11536,7.00379,2.756,19.9867,327,5,
85.115,5.11536,7.00226,2.756,19.9867,327,5,
85.115,5.11566,7.00379,2.756,19.9867,327,5,
85.115,5.11597,7.00379,2.756,19.9867,327,5,
85.1151,5.11536,7.00379,2.756,19.9867,327,5,
85.1151,5.11536,7.00531,2.756,19.9867,327,5,
85.1151,5.11566,7.00684,2.756,19.9867,327,5,
85.1152,5.11627,6.99616,2.756,19.9867,327,5,
85.1152,5.11566,6.99463,2.756,19.9867,327,5,
85.1152,5.11505,6.99616,2.756,19.9867,327,5,
85.1153,5.11627,6.99005,1.44,19.9867,327,5,
85.1153,5.11444,6.9931,1.44,19.9867,327,5,
85.1153,5.11597,6.9931,1.44,19.9867,327,5,
85.1154,5.11597,6.99158,1.44,19.9867,327,5,
85.1154,5.11597,6.99005,1.44,19.9867,327,5,
85.1154,5.11566,6.98853,1.44,19.9867,327,5,
85.1155,5.11505,6.9931,1.44,19.9867,327,5,
85.1155,5.11597,6.99616,1.44,19.9867,327,5,
85.1155,5.11597,6.98853,1.44,19.9867,327,5,
85.1156,5.11597,6.99005,1.44,19.9867,327,5,
85.1156,5.11566,6.9931,1.44,19.9867,327,5,
85.1156,5.11627,6.99158,1.44,19.9867,327,5,
85.1157,5.11536,6.9931,1.44,19.9867,327,5,
85.1157,5.11597,6.99158,1.44,19.9867,327,5,
85.1157,5.11566,6.99158,1.44,19.9867,327,5,
85.1158,5.11322,6.99005,1.44,19.9867,327,5,
85.1158,5.11047,6.99005,1.44,19.9867,327,5,
85.1158,5.11078,6.9931,1.44,19.9867,327,5,
85.1159,5.11108,6.99158,1.44,19.9867,327,5,
85.1159,5.11108,6.99005,1.44,19.9867,327,5,
85.1159,5.11139,6.9931,1.44,19.9867,327,5,
85.116,5.11108,6.99158,1.44,19.9867,327,5,
85.116,5.11047,6.99158,1.44,19.9867,327,5,
85.116,5.11108,6.99005,1.44,19.9867,327,5,
85.1161,5.11108,6.99463,1.44,19.9867,327,5,
85.1161,5.11108,6.99005,1.44,19.9867,327,5,
85.1161,5.11047,6.99616,1.44,19.9867,327,5,
85.1162,5.11108,6.99005,1.44,19.9867,327,5,
85.1162,5.11108,6.99463,1.44,19.9867,327,5,
85.1162,5.11078,6.99463,1.44,19.9867,327,5,
85.1163,5.11078,6.99158,1.44,19.9867,327,5,
85.1163,5.11047,6.9931,1.44,19.9867,327,5,
85.1163,5.11078,6.99463,1.44,19.9867,327,5,
85.1164,5.11078,6.9931,1.44,19.9867,327,5,
85.1164,5.11108,6.98395,1.44,19.9867,327,5,
85.1164,5.1059,6.97937,1.44,19.9867,327,5,
85.1165,5.10681,6.97937,1.44,19.9867,327,5,
85.1165,5.10559,6.98242,1.44,19.9867,327,5,
85.1165,5.1059,6.98242,1.44,19.9867,327,5,
85.1166,5.1062,6.9809,1.44,19.9867,327,5,
85.1166,5.10529,6.97785,1.44,19.9867,327,5,
85.1166,5.1059,6.9809,1.44,19.9867,327,5,
85.1167,5.1059,6.9809,1.44,19.9867,327,5,
85.1167,5.1062,6.9809,1.44,19.9867,327,5,
85.1167,5.10651,6.98242,1.44,19.9867,327,5,
85.1168,5.1059,6.98242,1.44,19.9867,327,5,
85.1168,5.10559,6.97937,1.44,19.9867,327,5,
85.1168,5.10559,6.98242,1.44,19.9867,327,5,
85.1169,5.1059,6.9809,1.44,19.9867,327,5,
85.1169,5.10559,6.9809,1.44,19.9867,327,5,
85.1169,5.10132,6.98242,1.44,19.9867,327,5,
85.117,5.10162,6.98395,1.44,19.9867,327,5,
85.117,5.10071,6.98242,1.44,19.9867,327,5,
85.117,5.10101,6.9809,1.44,19.9867,327,5,
85.1171,5.10101,6.9809,1.44,19.9867,327,5,
85.1171,5.10132,6.98242,1.44,19.9867,327,5,
85.1171,5.10101,6.97937,1.44,19.9867,327,5,
85.1172,5.1004,6.98395,1.44,19.9867,327,5,
85.1172,5.10071,6.98395,1.44,19.9867,327,5,
85.1172,5.10101,6.9809,1.44,19.9867,327,5,
85.1173,5.10071,6.98395,1.44,19.9867,327,5,
85.1173,5.10071,6.9809,1.44,19.9867,327,5,
85.1173,5.10071,6.9809,1.44,19.9867,327,5,
85.1174,5.09613,6.9809,1.44,19.9867,327,5,
85.1174,5.09552,6.9809,1.44,19.9867,327,5,
85.1174,5.09583,6.98242,1.44,19.9867,327,5,
85.1175,5.09552,6.98547,1.44,19.9867,327,5,
85.1175,5.09613,6.97937,1.44,19.9867,327,5,
85.1175,5.09583,6.98395,1.44,19.9867,327,5,
85.1176,5.09644,6.96716,1.44,19.9867,327,5,
85.1176,5.09644,6.96716,1.44,19.9867,327,5,
85.1176,5.09674,6.96869,1.44,19.9867,327,5,
85.1177,5.09552,6.96716,1.44,19.9867,327,5,
85.1177,5.09613,6.96716,1.44,19.9867,327,5,
85.1177,5.09644,6.96564,1.44,19.9867,327,5,
85.1178,5.09583,6.96564,1.44,19.9867,327,5,
85.1178,5.09674,6.96716,1.44,19.9867,327,5,
85.1178,5.09125,6.97022,1.44,19.9867,327,5,
85.1179,5.09186,6.96869,1.44,19.9867,327,5,
85.1179,5.09125,6.96869,1.44,19.9867,327,5,
85.1179,5.09094,6.96564,1.44,19.9867,327,5,
85.118,5.09094,6.96716,1.44,19.9867,327,5,
85.118,5.09064,6.96869,1.44,19.9867,327,5,
85.118,5.09094,6.96869,1.44,19.9867,327,5,
85.1181,5.09094,6.97022,1.44,19.9867,327,5,
85.1181,5.09155,6.96411,1.44,19.9867,327,5,
85.1181,5.09064,6.96869,1.44,19.9867,327,5,
85.1182,5.09155,6.97327,1.44,19.9867,327,5,
85.1182,5.09125,6.97174,1.44,19.9867,327,5,
85.1182,5.09125,6.96869,1.44,19.9867,327,5,
85.1183,5.08606,6.97174,1.44,19.9867,327,5,
85.1183,5.08667,6.96564,1.44,19.9867,327,5,
85.1183,5.08545,6.96716,1.44,19.9867,327,5,
85.1184,5.08636,6.97022,1.44,19.9867,327,5,
85.1184,5.08606,6.96869,1.44,19.9867,327,5,
85.1184,5.08606,6.96716,1.44,19.9867,327,5,
85.1185,5.08636,6.97022,1.44,19.9867,327,5,
85.1185,5.08606,6.97174,1.44,19.9867,327,5,
85.1185,5.08606,6.96869,1.44,19.9867,327,5,
85.1186,5.08667,6.96869,1.44,19.9867,327,5,
85.1186,5.08636,6.96869,1.44,19.9867,327,5,
85.1186,5.08667,6.97022,1.44,19.9867,327,5,
85.1187,5.08606,6.97174,1.44,19.9867,327,5,
85.1187,5.08636,6.96869,1.44,19.9867,327,5,
85.1187,5.08606,6.96716,1.44,19.9867,327,5,
85.1188,5.08606,6.96564,1.44,19.9867,327,5,
85.1188,5.08636,6.97022,1.44,19.9867,327,5,
85.1188,5.0824,6.96564,1.44,19.9867,327,5,
85.1189,5.08179,6.96716,1.44,19.9867,327,5,
85.1189,5.08148,6.96869,1.44,19.9867,327,5,
85.1189,5.08087,6.97022,1.44,19.9867,327,5,
85.119,5.08179,6.96869,1.44,19.9867,327,5,
85.119,5.08148,6.96869,1.44,19.9867,327,5,
85.119,5.08209,6.96869,1.44,19.9867,327,5,
85.1191,5.08148,6.96716,1.44,19.9867,327,5,
85.1191,5.0827,6.96564,1.44,19.9867,327,5,
85.1191,5.08148,6.96869,1.44,19.9867,327,5,
85.1192,5.08118,6.96869,1.44,19.9867,327,5,
85.1192,5.08179,6.96869,1.44,19.9867,327,5,
85.1192,5.08209,6.96564,1.44,19.9867,327,5,
85.1193,5.08118,6.97022,1.44,19.9867,327,5,
85.1193,5.08118,6.96869,1.44,19.9867,327,5,
85.1193,5.08087,6.96716,1.44,19.9867,327,5,
85.1194,5.08118,6.96106,1.44,19.9867,327,5,
85.1194,5.08087,6.95343,1.44,19.9867,327,5,
85.1194,5.08118,6.95648,1.44,19.9867,327,5,
85.1195,5.08118,6.95648,1.44,19.9867,327,5,
85.1195,5.08148,6.95648,1.44,19.9867,327,5,
85.1195,5.08148,6.95648,1.44,19.9867,327,5,
85.1196,5.08118,6.95496,1.44,19.9867,327,5,
85.1196,5.08087,6.95801,1.44,19.9867,327,5,
85.1196,5.08118,6.95343,1.44,19.9867,327,5,
85.1197,5.08179,6.95496,1.44,19.9867,327,5,
85.1197,5.08148,6.95953,1.44,19.9867,327,5,
85.1197,5.08118,6.95496,1.44,19.9867,327,5,
85.1198,5.08148,6.95648,1.44,19.9867,327,5,
85.1198,5.08118,6.95801,1.44,19.9867,327,5,
85.1198,5.08118,6.95496,1.44,19.9867,327,5,
85.1199,5.08148,6.95496,1.44,19.9867,327,5,
85.1199,5.08118,6.95801,1.44,19.9867,327,5,
85.1199,5.08148,6.95801,1.44,19.9867,327,5,
85.12,5.08179,6.95191,1.44,19.9867,327,5,
85.12,5.08148,6.95648,1.44,19.9867,327,5,
85.12,5.08148,6.95648,1.44,19.9867,327,5,
85.1201,5.08118,6.95953,1.44,19.9867,327,5,
85.1201,5.08514,6.95648,1.44,19.9867,327,5,
85.1201,5.08636,6.95953,1.44,19.9867,327,5,
85.1202,5.08606,6.95496,1.44,19.9867,327,5,
85.1202,5.08545,6.95953,1.44,19.9867,327,5,
85.1202,5.08667,6.95496,1.44,19.9867,327,5,
85.1203,5.08606,6.95496,1.44,19.9867,327,5,
85.1203,5.08575,6.95801,1.44,19.9867,327,5,
85.1203,5.08636,6.95496,1.44,19.9867,327,5,
85.1204,5.08636,6.95648,1.44,19.9867,327,5,
85.1204,5.08575,6.95648,1.44,19.9867,327,5,
85.1204,5.08575,6.95801,1.44,19.9867,327,5,
85.1205,5.08575,6.95648,1.44,19.9867,327,5,
85.1205,5.08606,6.95801,1.44,19.9867,327,5,
85.1205,5.08575,6.95496,1.44,19.9867,327,5,
85.1206,5.08606,6.95801,1.44,19.9867,327,5,
85.1206,5.08575,6.95496,1.44,19.9867,327,5,
85.1206,5.08606,6.95801,1.44,19.9867,327,5,
85.1207,5.08575,6.95343,1.44,19.9867,327,5,
85.1207,5.08575,6.95496,1.44,19.9867,327,5,
85.1207,5.08575,6.95801,1.44,19.9867,327,5,
85.1208,5.08606,6.95648,1.44,19.9867,327,5,
85.1208,5.08575,6.95648,1.44,19.9867,327,5,
85.1208,5.08575,6.95648,1.44,19.9867,327,5,
85.1209,5.09033,6.95801,1.44,19.9867,327,5,
85.1209,5.09125,6.95648,1.44,19.9867,327,5,
85.1209,5.09064,6.95496,1.44,19.9867,327,5,
85.121,5.09155,6.95953,1.44,19.9867,327,5,
85.121,5.09033,6.95496,1.44,19.9867,327,5,
85.121,5.09064,6.95953,1.44,19.9867,327,5,
85.1211,5.09064,6.95496,1.44,19.9867,327,5,
85.1211,5.09094,6.95648,1.44,19.9867,327,5,
85.1211,5.09094,6.95648,1.44,19.9867,327,5,
85.1212,5.09094,6.95648,1.44,19.9867,327,5,
85.1212,5.09094,6.95343,1.44,19.9867,327,5,
85.1212,5.09094,6.95496,1.44,19.9867,327,5,
85.1213,5.09094,6.95496,1.44,19.9867,327,5,
85.1213,5.09064,6.95496,1.44,19.9867,327,5,
85.1213,5.09125,6.95801,1.44,19.9867,327,5,
85.1214,5.09125,6.95953,1.44,19.9867,327,5,
85.1214,5.09125,6.95801,1.44,19.9867,327,5,
85.1214,5.09552,6.95648,1.44,19.9867,327,5,
85.1215,5.09552,6.95496,1.44,19.9867,327,5,
85.1215,5.09552,6.95648,1.44,19.9867,327,5,
85.1215,5.09552,6.95648,1.44,19.9867,327,5,
85.1216,5.09613,6.94428,1.44,19.9867,327,5,
85.1216,5.09552,6.94122,1.44,19.9867,327,5,
85.1216,5.09613,6.94428,1.44,19.9867,327,5,
85.1217,5.09644,6.94428,1.44,19.9867,327,5,
85.1217,5.09613,6.94275,1.44,19.9867,327,5,
85.1217,5.09613,6.94428,1.44,19.9867,327,5,
85.1218,5.09613,6.9458,1.44,19.9867,327,5,
85.1218,5.09644,6.94428,1.44,19.9867,327,5,
85.1218,5.09644,6.94733,1.44,19.9867,327,5,
85.1219,5.09613,6.94733,1.44,19.9867,327,5,
85.1219,5.09613,6.9458,1.44,19.9867,327,5,
85.1219,5.09613,6.9458,1.44,19.9867,327,5,
85.122,5.1001,6.9458,1.44,19.9867,327,5,
85.122,5.10101,6.94733,1.44,19.9867,327,5,
85.122,5.10071,6.94275,1.44,19.9867,327,5,
85.1221,5.10101,6.94428,1.44,19.9867,327,5,
85.1221,5.10071,6.9458,1.44,19.9867,327,5,
85.1221,5.10071,6.94275,1.44,19.9867,327,5,
85.1222,5.10101,6.94122,1.44,19.9867,327,5,
85.1222,5.10132,6.94733,1.44,19.9867,327,5,
85.1222,5.10071,6.9458,1.44,19.9867,327,5,
85.1223,5.10071,6.94733,1.44,19.9867,327,5,
85.1223,5.10101,6.9458,1.44,19.9867,327,5,
85.1223,5.10162,6.9458,1.44,19.9867,327,5,
85.1224,5.10101,6.94428,1.44,19.9867,327,5,
85.1224,5.10071,6.94275,1.44,19.9867,327,5,
85.1224,5.10071,6.9458,1.44,19.9867,327,5,
85.1225,5.10071,6.94428,1.44,19.9867,327,5,
85.1225,5.10071,6.94428,1.44,19.9867,327,5,
85.1225,5.1059,6.94428,1.44,19.9867,327,5,
85.1226,5.10559,6.94122,1.44,19.9867,327,5,
85.1226,5.10559,6.94428,1.44,19.9867,327,5,
85.1226,5.10498,6.94428,1.44,19.9867,327,5,
85.1227,5.10529,6.94428,1.44,19.9867,327,5,
85.1227,5.1059,6.94275,1.44,19.9867,327,5,
85.1227,5.1059,6.94122,1.44,19.9867,327,5,
85.1228,5.1059,6.94428,1.44,19.9867,327,5,
85.1228,5.10651,6.94733,1.44,19.9867,327,5,
85.1228,5.1059,6.94733,1.44,19.9867,327,5,
85.1229,5.1059,6.9458,1.44,19.9867,327,5,
85.1229,5.1062,6.94122,1.44,19.9867,327,5,
85.1229,5.10559,6.9458,1.44,19.9867,327,5,
85.123,5.10559,6.94122,1.44,19.9867,327,5,
85.123,5.1059,6.94428,1.44,19.9867,327,5,
85.123,5.10559,6.94428,1.44,19.9867,327,5,
85.1231,5.11078,6.94428,1.44,19.9867,327,5,
85.1231,5.11078,6.94275,1.44,19.9867,327,5,
85.1231,5.11047,6.9458,1.44,19.9867,327,5,
85.1232,5.11108,6.94428,1.44,19.9867,327,5,
85.1232,5.11108,6.9458,1.44,19.9867,327,5,
85.1232,5.11078,6.94122,1.44,19.9867,327,5,
85.1233,5.11108,6.94275,1.44,19.9867,327,5,
85.1233,5.11047,6.94275,1.44,19.9867,327,5,
85.1233,5.11078,6.94428,1.44,19.9867,327,5,
85.1234,5.11108,6.9458,1.44,19.9867,327,5,
85.1234,5.11169,6.94733,1.44,19.9867,327,5,
85.1234,5.11078,6.94275,1.44,19.9867,327,5,
85.1235,5.11078,6.9458,1.44,19.9867,327,5,
85.1235,5.11108,6.9458,1.44,19.9867,327,5,
85.1235,5.11139,6.9458,1.44,19.9867,327,5,
85.1236,5.11017,6.92749,1.44,19.9867,327,5,
85.1236,5.11292,6.93512,1.44,19.9867,327,5,
85.1236,5.11566,6.93207,1.44,19.9867,327,5,
85.1237,5.11536,6.93054,1.44,19.9867,327,5,
85.1237,5.11505,6.93207,1.44,19.9867,327,5,
85.1237,5.11566,6.93359,1.44,19.9867,327,5,
85.1238,5.11597,6.93207,1.44,19.9867,327,5,
85.1238,5.11536,6.93207,1.44,19.9867,327,5,
85.1238,5.11597,6.92749,1.44,19.9867,327,5,
85.1239,5.11536,6.93512,1.44,19.9867,327,5,
85.1239,5.11536,6.92902,1.44,19.9867,327,5,
85.1239,5.11566,6.93054,1.44,19.9867,327,5,
85.124,5.11536,6.93512,1.44,19.9867,327,5,
85.124,5.11536,6.93512,1.44,19.9867,327,5,
85.124,5.11536,6.93207,1.44,19.9867,327,5,
85.1241,5.11566,6.93207,1.44,19.9867,327,5,
85.1241,5.11505,6.93359,1.44,19.9867,327,5,
85.1241,5.11566,6.93054,1.44,19.9867,327,5,
85.1242,5.11963,6.92749,1.44,19.9867,327,5,
85.1242,5.12054,6.93207,1.44,19.9867,327,5,
85.1242,5.12024,6.93359,1.44,19.9867,327,5,
85.1243,5.12024,6.93207,1.44,19.9867,327,5,
85.1243,5.12054,6.92902,1.44,19.9867,327,5,
85.1243,5.11993,6.93207,1.44,19.9867,327,5,
85.1244,5.12024,6.93054,1.44,19.9867,327,5,
85.1244,5.12085,6.93054,1.44,19.9867,327,5,
85.1244,5.12054,6.93207,1.44,19.9867,327,5,
85.1245,5.12085,6.92902,1.44,19.9867,327,5,
85.1245,5.11993,6.93054,1.44,19.9867,327,5,
85.1245,5.12054,6.92902,1.44,19.9867,327,5,
85.1246,5.12024,6.92902,1.44,19.9867,327,5,
85.1246,5.12024,6.93359,1.44,19.9867,327,5,
85.1246,5.12115,6.92902,1.44,19.9867,327,5,
85.1247,5.12054,6.92902,1.44,19.9867,327,5,
85.1247,5.12085,6.93359,1.44,19.9867,327,5,
85.1247,5.12421,6.93054,1.44,19.9867,327,5,
85.1248,5.12543,6.93054,1.44,19.9867,327,5,
85.1248,5.12512,6.93359,1.44,19.9867,327,5,
85.1248,5.12482,6.93207,1.44,19.9867,327,5,
85.1249,5.12573,6.93207,1.44,19.9867,327,5,
85.1249,5.12543,6.93359,1.44,19.9867,327,5,
85.1249,5.12512,6.93512,1.44,19.9867,327,5,
85.125,5.12573,6.93359,1.44,19.9867,327,5,
85.125,5.12604,6.93207,1.44,19.9867,327,5,
85.125,5.12482,6.93359,1.44,19.9867,327,5,
85.1251,5.12512,6.93207,1.44,19.9867,327,5,
85.1251,5.12573,6.93054,1.44,19.9867,327,5,
85.1251,5.12543,6.93207,1.44,19.9867,327,5,
85.1252,5.12543,6.92902,1.44,19.9867,327,5,
85.1252,5.12573,6.93207,1.44,19.9867,327,5,
85.1252,5.12543,6.92902,1.44,19.9867,327,5,
85.1253,5.12451,6.93207,1.44,19.9867,327,5,
85.1253,5.12573,6.93054,1.44,19.9867,327,5,
85.1253,5.12543,6.93054,1.44,19.9867,327,5,
85.1254,5.12543,6.91986,1.44,19.9867,327,5,
85.1254,5.13,6.91528,1.44,19.9867,327,5,
85.1254,5.13,6.91681,1.44,19.9867,327,5,
85.1255,5.13031,6.91834,1.44,19.9867,327,5,
85.1255,5.1297,6.91986,1.44,19.9867,327,5,
85.1255,5.13062,6.91834,1.44,19.9867,327,5,
85.1256,5.13031,6.91834,1.44,19.9867,327,5,
85.1256,5.13123,6.91834,1.44,19.9867,327,5,
85.1256,5.13062,6.91528,1.44,19.9867,327,5,
85.1257,5.13031,6.91986,1.44,19.9867,327,5,
85.1257,5.13,6.92139,1.44,19.9867,327,5,
85.1257,5.13062,6.92291,1.44,19.9867,327,5,
85.1258,5.13031,6.91986,1.44,19.9867,327,5,
85.1258,5.13,6.91834,1.44,19.9867,327,5,
85.1258,5.13062,6.91834,1.44,19.9867,327,5,
85.1259,5.13031,6.92139,1.44,19.9867,327,5,
85.1259,5.13062,6.92444,1.44,19.9867,327,5,
85.1259,5.13031,6.91834,1.44,19.9867,327,5,
85.126,5.13031,6.91834,1.44,19.9867,327,5,
85.126,5.13031,6.91834,1.44,19.9867,327,5,
85.126,5.13031,6.91834,1.44,19.9867,327,5,
85.1261,5.13123,6.91681,1.44,19.9867,327,5,
85.1261,5.1297,6.91681,1.44,19.9867,327,5,
85.1261,5.13,6.91681,1.44,19.9867,327,5,
85.1262,5.13031,6.91834,1.44,19.9867,327,5,
85.1262,5.13031,6.92139,1.44,19.9867,327,5,
85.1262,5.13062,6.91834,1.44,19.9867,327,5,
85.1263,5.13,6.91986,1.44,19.9867,327,5,
85.1263,5.13031,6.92139,1.44,19.9867,327,5,
85.1263,5.13031,6.91986,1.44,19.9867,327,5,
85.1264,5.1297,6.92139,1.44,19.9867,327,5,
85.1264,5.13062,6.91834,1.44,19.9867,327,5,
85.1264,5.13031,6.92291,1.44,19.9867,327,5,
85.1265,5.13031,6.91986,1.44,19.9867,327,5,
85.1265,5.13,6.91834,1.44,19.9867,327,5,
85.1265,5.13031,6.92139,1.44,19.9867,327,5,
85.1266,5.13031,6.91986,1.44,19.9867,327,5,
85.1266,5.1297,6.91986,1.44,19.9867,327,5,
85.1266,5.13031,6.91986,1.44,19.9867,327,5,
85.1267,5.12726,6.91528,1.44,19.9867,327,5,
85.1267,5.12634,6.91986,1.44,19.9867,327,5,
85.1267,5.12573,6.91681,1.44,19.9867,327,5,
85.1268,5.12482,6.91834,1.44,19.9867,327,5,
85.1268,5.12543,6.91986,1.44,19.9867,327,5,
85.1268,5.12543,6.91986,1.44,19.9867,327,5,
85.1269,5.12543,6.91834,1.44,19.9867,327,5,
85.1269,5.12573,6.91986,1.44,19.9867,327,5,
85.1269,5.12543,6.91834,1.44,19.9867,327,5,
85.127,5.12573,6.91986,1.44,19.9867,327,5,
85.127,5.12543,6.90765,1.44,19.9867,327,5,
85.127,5.12512,6.9046,1.44,19.9867,327,5,
85.1271,5.12543,6.90613,1.44,19.9867,327,5,
85.1271,5.12512,6.90765,1.44,19.9867,327,5,
85.1271,5.12085,6.90613,1.44,19.9867,327,5,
85.1272,5.12054,6.90613,1.44,19.9867,327,5,
85.1272,5.11993,6.90765,1.44,19.9867,327,5,
85.1272,5.12054,6.9046,1.44,19.9867,327,5,
85.1273,5.12024,6.90765,1.44,19.9867,327,5,
85.1273,5.12085,6.90613,1.44,19.9867,327,5,
85.1273,5.11993,6.90765,1.44,19.9867,327,5,
85.1274,5.12054,6.9046,1.44,19.9867,327,5,
85.1274,5.11963,6.9046,1.44,19.9867,327,5,
85.1274,5.12024,6.90613,1.44,19.9867,327,5,
85.1275,5.11658,6.90613,1.44,19.9867,327,5,
85.1275,5.11505,6.90765,1.44,19.9867,327,5,
85.1275,5.11536,6.90613,1.44,19.9867,327,5,
85.1276,5.11536,6.90918,1.44,19.9867,327,5,
85.1276,5.11505,6.90918,1.44,19.9867,327,5,
85.1276,5.11597,6.9046,1.44,19.9867,327,5,
85.1277,5.11536,6.90918,1.44,19.9867,327,5,
85.1277,5.11597,6.90765,1.44,19.9867,327,5,
85.1277,5.11108,6.90613,1.44,19.9867,327,5,
85.1278,5.11078,6.9046,1.44,19.9867,327,5,
85.1278,5.11047,6.90613,1.44,19.9867,327,5,
85.1278,5.10986,6.90613,1.44,19.9867,327,5,
85.1279,5.11017,6.90765,1.44,19.9867,327,5,
85.1279,5.11047,6.90308,1.44,19.9867,327,5,
85.1279,5.11078,6.90613,1.44,19.9867,327,5,
85.128,5.10651,6.90613,1.44,19.9867,327,5,
85.128,5.10529,6.90918,1.44,19.9867,327,5,
85.128,5.10559,6.9046,1.44,19.9867,327,5,
85.1281,5.10559,6.90765,1.44,19.9867,327,5,
85.1281,5.10529,6.90765,1.44,19.9867,327,5,
85.1281,5.1062,6.90613,1.44,19.9867,327,5,
85.1282,5.10559,6.90765,1.44,19.9867,327,5,
85.1282,5.10071,6.90918,1.44,19.9867,327,5,
85.1282,5.10101,6.90613,1.44,19.9867,327,5,
85.1283,5.10071,6.90613,1.44,19.9867,327,5,
85.1283,5.10071,6.90918,1.44,19.9867,327,5,
85.1283,5.10101,6.90613,1.44,19.9867,327,5,
85.1284,5.10071,6.90613,1.44,19.9867,327,5,
85.1284,5.09521,6.90765,1.44,19.9867,327,5,
85.1284,5.09613,6.89697,1.44,19.9867,327,5,
85.1285,5.09613,6.89392,1.44,19.9867,327,5,
85.1285,5.09583,6.89545,1.44,19.9867,327,5,
85.1285,5.09613,6.89545,1.44,19.9867,327,5,
85.1286,5.09338,6.89087,1.44,19.9867,327,5,
85.1286,5.09064,6.89545,1.44,19.9867,327,5,
85.1286,5.09094,6.89392,1.44,19.9867,327,5,
85.1287,5.09094,6.89392,1.44,19.9867,327,5,
85.1287,5.09125,6.89697,1.44,19.9867,327,5,
85.1287,5.09155,6.89392,1.44,19.9867,327,5,
85.1288,5.08575,6.89392,1.44,19.9867,327,5,
85.1288,5.08606,6.89545,1.44,19.9867,327,5,
85.1288,5.08606,6.89392,1.44,19.9867,327,5,
85.1289,5.08606,6.89392,1.44,19.9867,327,5,
85.1289,5.08575,6.89545,1.44,19.9867,327,5,
85.1289,5.08148,6.89392,1.44,19.9867,327,5,
85.129,5.08179,6.8985,1.44,19.9867,327,5,
85.129,5.08087,6.89392,1.44,19.9867,327,5,
85.129,5.08118,6.89545,1.44,19.9867,327,5,
85.1291,5.08118,6.89545,1.44,19.9867,327,5,
85.1291,5.07904,6.89697,1.44,19.9867,327,5,
85.1291,5.07721,6.89392,1.44,19.9867,327,5,
85.1292,5.0766,6.89545,1.44,19.9867,327,5,
85.1292,5.07599,6.89392,1.44,19.9867,327,5,
85.1292,5.0769,6.89545,1.44,19.9867,327,5,
85.1293,5.07446,6.89697,1.44,19.9867,327,5,
85.1293,5.07172,6.89697,1.44,19.9867,327,5,
85.1293,5.07202,6.89697,1.44,19.9867,327,5,
85.1294,5.07172,6.89545,1.44,19.9867,327,5,
85.1294,5.07172,6.89697,1.44,19.9867,327,5,
85.1294,5.07141,6.8924,1.44,19.9867,327,5,
85.1295,5.06683,6.89697,1.44,19.9867,327,5,
85.1295,5.06683,6.89392,1.44,19.9867,327,5,
85.1295,5.06683,6.89087,1.44,19.9867,327,5,
85.1296,5.06714,6.89697,1.44,19.9867,327,5,
85.1296,5.06744,6.89392,1.44,19.9867,327,5,
85.1296,5.06165,6.89545,1.44,19.9867,327,5,
85.1297,5.06226,6.89392,1.44,19.9867,327,5,
85.1297,5.06134,6.89697,1.44,19.9867,327,5,
85.1297,5.06226,6.89392,1.44,19.9867,327,5,
85.1298,5.06226,6.89392,1.44,19.9867,327,5,
85.1298,5.05737,6.89392,1.44,19.9867,327,5,
85.1298,5.05737,6.88477,1.44,19.9867,327,5,
85.1299,5.05737,6.88019,1.44,19.9867,327,5,
85.1299,5.05707,6.88019,1.44,19.9867,327,5,
85.1299,5.05524,6.88171,1.44,19.9867,327,5,
85.13,5.05219,6.88171,1.44,19.9867,327,5,
85.13,5.0528,6.88324,1.44,19.9867,327,5,
85.13,5.05249,6.88477,1.44,19.9867,327,5,
85.1301,5.05219,6.88019,1.44,19.9867,327,5,
85.1301,5.04974,6.88324,1.44,19.9867,327,5,
85.1301,5.047,6.88324,1.44,19.9867,327,5,
85.1302,5.04669,6.88019,1.44,19.9867,327,5,
85.1302,5.04639,6.88629,1.44,19.9867,327,5,
85.1302,5.047,6.88019,1.44,19.9867,327,5,
85.1303,5.04333,6.88324,1.44,19.9867,327,5,
85.1303,5.04242,6.88324,1.44,19.9867,327,5,
85.1303,5.04272,6.88019,1.44,19.9867,327,5,
85.1304,5.04272,6.88477,1.44,19.9867,327,5,
85.1304,5.04242,6.88324,1.44,19.9867,327,5,
85.1304,5.03784,6.88324,1.44,19.9867,327,5,
85.1305,5.03784,6.88019,1.44,19.9867,327,5,
85.1305,5.03784,6.88019,1.44,19.9867,327,5,
85.1305,5.03723,6.88019,1.44,19.9867,327,5,
85.1306,5.03754,6.87866,1.44,19.9867,327,5,
85.1306,5.03174,6.88324,1.44,19.9867,327,5,
85.1306,5.03265,6.88324,1.44,19.9867,327,5,
85.1307,5.03265,6.88324,1.44,19.9867,327,5,
85.1307,5.03265,6.88324,1.44,19.9867,327,5,
85.1307,5.03326,6.88171,1.44,19.9867,327,5,
85.1308,5.02777,6.88324,1.44,19.9867,327,5,
85.1308,5.02808,6.88477,1.44,19.9867,327,5,
85.1308,5.02808,6.87866,1.44,19.9867,327,5,
85.1309,5.02808,6.88629,1.44,19.9867,327,5,
85.1309,5.02747,6.87866,1.44,19.9867,327,5,
85.1309,5.02258,6.88324,1.44,19.9867,327,5,
85.131,5.02289,6.88171,1.44,19.9867,327,5,
85.131,5.02319,6.88324,1.44,19.9867,327,5,
85.131,5.02319,6.88477,1.44,19.9867,327,5,
85.1311,5.02319,6.88171,1.44,19.9867,327,5,
85.1311,5.01801,6.88171,1.44,19.9867,327,5,
85.1311,5.0174,6.88477,1.44,19.9867,327,5,
85.1312,5.01709,6.88324,1.44,19.9867,327,5,
85.1312,5.01831,6.88019,1.44,19.9867,327,5,
85.1312,5.01587,6.88171,1.44,19.9867,327,5,
85.1313,5.01343,6.88477,1.44,19.9867,327,5,
85.1313,5.01343,6.88019,1.44,19.9867,327,5,
85.1313,5.01343,6.88171,1.44,19.9867,327,5,
85.1314,5.01343,6.88019,1.44,19.9867,327,5,
85.1314,5.01007,6.88324,1.44,19.9867,327,5,
85.1314,5.00824,6.88171,1.44,19.9867,327,5,
85.1315,5.00763,6.88629,1.44,19.9867,327,5,
85.1315,5.00793,6.88629,1.44,19.9867,327,5,
85.1315,5.00793,6.86951,1.44,19.9867,327,5,
85.1316,5.00427,6.86646,1.44,19.9867,327,5,
85.1316,5.00305,6.87103,1.44,19.9867,327,5,
85.1316,5.00305,6.86951,1.44,19.9867,327,5,
85.1317,5.00336,6.86646,1.44,19.9867,327,5,
85.1317,5.00336,6.87103,1.44,19.9867,327,5,
85.1317,4.99847,6.87409,1.44,19.9867,327,5,
85.1318,4.99817,6.86798,1.44,19.9867,327,5,
85.1318,4.99878,6.87256,1.44,19.9867,327,5,
85.1318,4.99878,6.86798,1.44,19.9867,327,5,
85.1319,4.99786,6.87256,1.44,19.9867,327,5,
85.1319,4.99603,6.86798,1.44,19.9867,327,5,
85.1319,4.99359,6.86951,1.44,19.9867,327,5,
85.132,4.99268,6.86951,1.44,19.9867,327,5,
85.132,4.9939,6.87103,1.44,19.9867,327,5,
85.132,4.99359,6.86951,1.44,19.9867,327,5,
85.1321,4.99084,6.87103,1.44,19.9867,327,5,
85.1321,4.9884,6.87256,1.44,19.9867,327,5,
85.1321,4.98871,6.86798,1.44,19.9867,327,5,
85.1322,4.98871,6.86798,1.44,19.9867,327,5,
85.1322,4.98871,6.87409,1.44,19.9867,327,5,
85.1322,4.98779,6.87103,1.44,19.9867,327,5,
85.1323,4.98383,6.87409,1.44,19.9867,327,5,
85.1323,4.98352,6.86951,1.44,19.9867,327,5,
85.1323,4.98322,6.86951,1.44,19.9867,327,5,
85.1324,4.98352,6.86951,1.44,19.9867,327,5,
85.1324,4.98383,6.86951,1.44,19.9867,327,5,
85.1324,4.97894,6.87103,1.44,19.9867,327,5,
85.1325,4.97894,6.86951,1.44,19.9867,327,5,
85.1325,4.97894,6.86951,1.44,19.9867,327,5,
85.1325,4.97894,6.86951,1.44,19.9867,327,5,
85.1326,4.97986,6.87103,1.44,19.9867,327,5,
85.1326,4.97467,6.86951,1.44,19.9867,327,5,
85.1326,4.97406,6.86798,1.44,19.9867,327,5,
85.1327,4.97375,6.86646,1.44,19.9867,327,5,
85.1327,4.97437,6.86951,1.44,19.9867,327,5,
85.1327,4.97406,6.86798,1.44,19.9867,327,5,
85.1328,4.97467,6.86951,1.44,19.9867,327,5,
85.1328,4.96979,6.87103,1.44,19.9867,327,5,
85.1328,4.96979,6.86798,1.44,19.9867,327,5,
85.1329,4.96948,6.86798,1.44,19.9867,327,0,
85.1329,4.96918,6.86951,1.44,19.9867,327,0,
85.1329,4.96918,6.87256,1.44,19.9867,327,0,
85.133,4.96674,6.86951,1.44,19.9867,327,0,
85.133,4.96429,6.87103,1.44,19.9867,327,0,
85.133,4.96429,6.87103,1.44,19.9867,327,0,
85.1331,4.96429,6.87103,1.44,19.9867,327,0,
85.1331,4.96338,6.87103,1.44,19.9867,327,0,
85.1331,4.96521,6.86951,1.44,19.9867,327,0,
85.1332,4.96002,6.86951,1.44,19.9867,327,0,
85.1332,4.95941,6.86951,1.44,19.9867,327,0,
85.1332,4.9588,6.86798,1.44,19.9867,327,0,
85.1333,4.9588,6.86798,1.44,19.9867,327,0,
85.1333,4.95941,6.86798,1.44,19.9867,327,0,
85.1333,4.95911,6.86951,1.44,19.9867,327,0,
85.1334,4.95667,6.86798,1.44,19.9867,327,0,
85.1334,4.95422,6.87103,1.44,19.9867,327,0,
85.1334,4.95453,6.86951,1.44,19.9867,327,0,
85.1335,4.95392,6.86951,1.44,19.9867,327,0,
85.1335,4.95422,6.87256,1.44,19.9867,327,0,
85.1335,4.95392,6.86798,1.44,19.9867,327,0,
85.1336,4.95392,6.87103,1.44,19.9867,327,0,
85.1336,4.94934,6.86798,1.44,19.9867,327,0,
85.1336,4.94904,6.87103,1.44,19.9867,327,0,
85.1337,4.94873,6.87103,1.44,19.9867,327,0,
85.1337,4.94934,6.86951,1.44,19.9867,327,0,
85.1337,4.94934,6.87256,1.44,19.9867,327,0,
85.1338,4.94934,6.86798,1.44,19.9867,327,0,
85.1338,4.94476,6.87103,1.44,19.9867,327,0,
85.1338,4.94385,6.86798,1.44,19.9867,327,0,
85.1339,4.94446,6.85883,1.44,19.9867,327,0,
85.1339,4.94507,6.85577,1.44,19.9867,327,0,
85.1339,4.94385,6.8634,1.44,19.9867,327,0,
85.134,4.94507,6.8573,1.44,19.9867,327,0,
85.134,4.94415,6.85883,1.44,19.9867,327,0,
85.134,4.94019,6.8573,1.44,19.9867,327,0,
85.1341,4.93927,6.85883,1.44,19.9867,327,0,
85.1341,4.93927,6.85883,1.44,19.9867,327,0,
85.1341,4.93958,6.8573,1.44,19.9867,327,0,
85.1342,4.93988,6.85883,1.44,19.9867,327,0,
85.1342,4.93927,6.85883,1.44,19.9867,327,0,
85.1342,4.93896,6.86035,1.44,19.9867,327,0,
85.1343,4.93713,6.86035,1.44,19.9867,327,0,
85.1343,4.9353,6.85883,1.44,19.9867,327,0,
85.1343,4.93378,6.86188,1.44,19.9867,327,0,
85.1344,4.935,6.8573,1.44,19.9867,327,0,
85.1344,4.93439,6.8573,1.44,19.9867,327,0,
85.1344,4.93439,6.86035,1.44,19.9867,327,0,
85.1345,4.9353,6.86035,1.44,19.9867,327,0,
85.1345,4.93439,6.86035,1.44,19.9867,327,0,
85.1345,4.92981,6.8634,1.44,19.9867,327,0,
85.1346,4.92981,6.8573,1.44,19.9867,327,0,
85.1346,4.9292,6.85883,1.44,19.9867,327,0,
85.1346,4.9295,6.85883,1.44,19.9867,327,0,
85.1347,4.9292,6.86035,1.44,19.9867,327,0,
85.1347,4.9292,6.8573,1.44,19.9867,327,0,
85.1347,4.92889,6.85577,1.44,19.9867,327,0,
85.1348,4.9295,6.86035,1.44,19.9867,327,0,
85.1348,4.92493,6.86035,1.44,19.9867,327,0,
85.1348,4.92462,6.8573,1.44,19.9867,327,0,
85.1349,4.92462,6.86035,1.44,19.9867,327,0,
85.1349,4.92462,6.86188,1.44,19.9867,327,0,
85.1349,4.92432,6.85577,1.44,19.9867,327,0,
85.135,4.92432,6.85577,1.44,19.9867,327,0,
85.135,4.92493,6.86188,1.44,19.9867,327,0,
85.135,4.92554,6.86188,1.44,19.9867,327,0,
85.1351,4.92188,6.85883,1.44,19.9867,327,0,
85.1351,4.92035,6.85883,1.44,19.9867,327,0,
85.1351,4.92035,6.86035,1.44,19.9867,327,0,
85.1352,4.91974,6.85883,1.44,19.9867,327,0,
85.1352,4.91943,6.85272,1.44,19.9867,327,0,
85.1352,4.92004,6.85883,1.44,19.9867,327,0,
85.1353,4.92035,6.85883,1.44,19.9867,327,0,
85.1353,4.91974,6.85883,1.44,19.9867,327,0,
85.1353,4.92004,6.8573,1.44,19.9867,327,0,
85.1354,4.91486,6.86035,1.44,19.9867,327,0,
85.1354,4.91547,6.85883,1.44,19.9867,327,0,
85.1354,4.91516,6.8573,1.44,19.9867,327,0,
85.1355,4.91547,6.85577,1.44,19.9867,327,0,
85.1355,4.91486,6.86035,1.44,19.9867,327,0,
85.1355,4.91547,6.85883,1.44,19.9867,327,0,
85.1356,4.91486,6.85883,1.44,19.9867,327,0,
85.1356,4.91577,6.85577,1.44,19.9867,327,0,
85.1356,4.91547,6.84662,1.44,19.9867,327,0,
85.1357,4.90936,6.84357,1.44,19.9867,327,0,
85.1357,4.90936,6.84509,1.44,19.9867,327,0,
85.1357,4.90967,6.84662,1.44,19.9867,327,0,
85.1358,4.90997,6.84815,1.44,19.9867,327,0,
85.1358,4.90997,6.84357,1.44,19.9867,327,0,
85.1358,4.90967,6.84509,1.44,19.9867,327,0,
85.1359,4.91058,6.84509,1.44,19.9867,327,0,
85.1359,4.90997,6.84662,1.44,19.9867,327,0,
85.1359,4.91028,6.84509,1.44,19.9867,327,0,
85.136,4.90631,6.84662,1.44,19.9867,327,0,
85.136,4.9054,6.84662,1.44,19.9867,327,0,
85.136,4.90479,6.84357,1.44,19.9867,327,0,
85.1361,4.90479,6.84662,1.44,19.9867,327,0,
85.1361,4.90479,6.84357,1.44,19.9867,327,0,
85.1361,4.9054,6.84509,1.44,19.9867,327,0,
85.1362,4.90509,6.84509,1.44,19.9867,327,0,
85.1362,4.90479,6.84509,1.44,19.9867,327,0,
85.1362,4.9054,6.84662,1.44,19.9867,327,0,
85.1363,4.9057,6.84815,1.44,19.9867,327,0,
85.1363,4.90295,6.84357,1.44,19.9867,327,0,
85.1363,4.90021,6.84509,1.44,19.9867,327,0,
85.1364,4.90021,6.84509,1.44,19.9867,327,0,
85.1364,4.8999,6.84967,1.44,19.9867,327,0,
85.1364,4.90021,6.84509,1.44,19.9867,327,0,
85.1365,4.90051,6.84662,1.44,19.9867,327,0,
85.1365,4.90021,6.84662,1.44,19.9867,327,0,
85.1365,4.90021,6.84204,1.44,19.9867,327,0,
85.1366,4.8999,6.84662,1.44,19.9867,327,0,
85.1366,4.90021,6.84509,1.44,19.9867,327,0,
85.1366,4.8999,6.84662,1.44,19.9867,327,0,
85.1367,4.90021,6.84509,1.44,19.9867,327,0,
85.1367,4.89532,6.84662,1.44,19.9867,327,0,
85.1367,4.89563,6.84509,1.44,19.9867,327,0,
85.1368,4.89563,6.84509,1.44,19.9867,327,0,
85.1368,4.89624,6.84662,1.44,19.9867,327,0,
85.1368,4.89441,6.84815,1.44,19.9867,327,0,
85.1369,4.89502,6.84815,1.44,19.9867,327,0,
85.1369,4.89594,6.84662,1.44,19.9867,327,0,
85.1369,4.89532,6.84357,1.44,19.9867,327,0,
85.137,4.89532,6.84357,1.44,19.9867,327,0,
85.137,4.89563,6.84662,1.44,19.9867,327,0,
85.137,4.89532,6.84662,1.44,19.9867,327,0,
85.1371,4.89532,6.84815,1.44,19.9867,327,0,
85.1371,4.89349,6.84815,1.44,19.9867,327,0,
85.1371,4.89105,6.84662,1.44,19.9867,327,0,
85.1372,4.89105,6.84357,1.44,19.9867,327,0,
85.1372,4.89075,6.84815,1.44,19.9867,327,0,
85.1372,4.89044,6.82983,1.44,19.9867,327,0,
85.1373,4.89044,6.83136,1.44,19.9867,327,0,
85.1373,4.89014,6.83289,1.44,19.9867,327,0,
85.1373,4.89014,6.83441,1.44,19.9867,327,0,
85.1374,4.89044,6.83441,1.44,19.9867,327,0,
85.1374,4.89075,6.83289,1.44,19.9867,327,0,
85.1374,4.88983,6.83136,1.44,19.9867,327,0,
85.1375,4.88983,6.83136,1.44,19.9867,327,0,
85.1375,4.88983,6.83594,1.44,19.9867,327,0,
85.1375,4.89044,6.83136,1.44,19.9867,327,0,
85.1376,4.89075,6.83441,1.44,19.9867,327,0,
85.1376,4.88556,6.83594,1.44,19.9867,327,0,
85.1376,4.88586,6.83441,1.44,19.9867,327,0,
85.1377,4.88525,6.83289,1.44,19.9867,327,0,
85.1377,4.88525,6.83136,1.44,19.9867,327,0,
85.1377,4.88495,6.83441,1.44,19.9867,327,0,
85.1378,4.88525,6.83441,1.44,19.9867,327,0,
85.1378,4.88617,6.83594,1.44,19.9867,327,0,
85.1378,4.88586,6.83746,1.44,19.9867,327,0,
85.1379,4.88586,6.83289,1.44,19.9867,327,0,
85.1379,4.88556,6.83594,1.44,19.9867,327,0,
85.1379,4.88495,6.83441,1.44,19.9867,327,0,
85.138,4.88525,6.83441,1.44,19.9867,327,0,
85.138,4.88525,6.83594,1.44,19.9867,327,0,
85.138,4.88525,6.83441,1.44,19.9867,327,0,
85.1381,4.88495,6.83289,1.44,19.9867,327,0,
85.1381,4.88495,6.83136,1.44,19.9867,327,0,
85.1381,4.88495,6.82983,1.44,19.9867,327,0,
85.1382,4.88586,6.83136,1.44,19.9867,327,0,
85.1382,4.88525,6.83441,1.44,19.9867,327,0,
85.1382,4.88495,6.83441,1.44,19.9867,327,0,
85.1383,4.88068,6.82983,1.44,19.9867,327,0,
85.1383,4.88068,6.83289,1.44,19.9867,327,0,
85.1383,4.88007,6.83136,1.44,19.9867,327,0,
85.1384,4.88037,6.83441,1.44,19.9867,327,0,
85.1384,4.88037,6.82983,1.44,19.9867,327,0,
85.1384,4.88007,6.83289,1.44,19.9867,327,0,
85.1385,4.88007,6.83136,1.44,19.9867,327,0,
85.1385,4.88068,6.83289,1.44,19.9867,327,0,
85.1385,4.88068,6.83441,1.44,19.9867,327,0,
85.1386,4.88007,6.83289,1.44,19.9867,327,0,
85.1386,4.88098,6.83289,1.44,19.9867,327,0,
85.1386,4.88068,6.83441,1.44,19.9867,327,0,
85.1387,4.88068,6.83594,1.44,19.9867,327,0,
85.1387,4.88037,6.83746,1.44,19.9867,327,0,
85.1387,4.88007,6.83441,1.44,19.9867,327,0,
85.1388,4.88037,6.83289,1.44,19.9867,327,0,
85.1388,4.88037,6.83441,1.44,19.9867,327,0,
85.1388,4.88037,6.83441,1.44,19.9867,327,0,
85.1389,4.88037,6.83289,1.44,19.9867,327,0,
85.1389,4.88037,6.83594,1.44,19.9867,327,0,
85.1389,4.88007,6.83136,1.44,19.9867,327,0,
85.139,4.87976,6.83441,1.44,19.9867,327,0,
85.139,4.88007,6.83594,1.44,19.9867,327,0,
85.139,4.88037,6.83594,1.44,19.9867,327,0,
85.1391,4.88037,6.83441,1.44,19.9867,327,0,
85.1391,4.88007,6.83289,1.44,19.9867,327,0,
85.1391,4.88037,6.83594,1.44,19.9867,327,0,
85.1392,4.88098,6.83289,1.44,19.9867,327,0,
85.1392,4.88098,6.83289,1.44,19.9867,327,0,
85.1392,4.88007,6.83289,1.44,19.9867,327,0,
85.1393,4.88037,6.82983,0,19.9867,327,0,
85.1393,4.88037,6.83441,0,19.9867,327,0,
85.1393,4.88068,6.83136,0,19.9867,327,0,
85.1394,4.88098,6.83594,0,19.9867,327,0,
85.1394,4.88007,6.83441,0,19.9867,327,0,
85.1394,4.88098,6.83289,0,19.9867,327,0,
85.1395,4.87976,6.83136,0,19.9867,327,0,
85.1395,4.88068,6.82373,0,19.9867,327,0,
85.1395,4.88037,6.82221,0,19.9867,327,0,
85.1396,4.88007,6.82068,0,19.9867,327,0,
85.1396,4.88007,6.82068,0,19.9867,327,0,
85.1396,4.88068,6.82068,0,19.9867,327,0,
85.1397,4.88068,6.81763,0,19.9867,327,0,
85.1397,4.88068,6.82068,0,19.9867,327,0,
85.1397,4.87976,6.82221,0,19.9867,327,0,
85.1398,4.88007,6.81915,0,19.9867,327,0,
85.1398,4.88037,6.82068,0,19.9867,327,0,
85.1398,4.88037,6.82526,0,19.9867,327,0,
85.1399,4.87976,6.82221,0,19.9867,327,0,
85.1399,4.88007,6.82373,0,19.9867,327,0,
85.1399,4.88007,6.82373,0,19.9867,327,0,
85.14,4.88068,6.82068,0,19.9867,327,0,
85.14,4.88098,6.82221,0,19.9867,327,0,
85.14,4.88037,6.82373,0,19.9867,327,0,
85.1401,4.88037,6.82221,0,19.9867,327,0,
85.1401,4.88068,6.82221,0,19.9867,327,0,
85.1401,4.88037,6.82068,0,19.9867,327,0,
85.1402,4.88037,6.82221,0,19.9867,327,0,
85.1402,4.88007,6.82221,0,19.9867,327,0,
85.1402,4.88037,6.82068,0,19.9867,327,0,
85.1403,4.87976,6.82068,0,19.9867,327,0,
85.1403,4.88037,6.82221,0,19.9867,327,0,
85.1403,4.88037,6.81915,0,19.9867,327,0,
85.1404,4.88068,6.82373,0,19.9867,327,0,
85.1404,4.88068,6.82526,0,19.9867,327,0,
85.1404,4.88037,6.82373,0,19.9867,327,0,
85.1405,4.88098,6.82068,0,19.9867,327,0,
85.1405,4.88037,6.81915,0,19.9867,327,0,
85.1405,4.88037,6.81763,0,19.9867,327,0,
85.1406,4.88068,6.82068,0,19.9867,327,0,
85.1406,4.88037,6.82221,0,19.9867,327,0,
85.1406,4.88037,6.82221,0,19.9867,327,0,
85.1407,4.87976,6.81915,0,19.9867,327,0,
85.1407,4.88037,6.82221,0,19.9867,327,0,
85.1407,4.88068,6.82373,0,19.9867,327,0,
85.1408,4.88037,6.82221,0,19.9867,327,0,
85.1408,4.88068,6.82068,0,19.9867,327,0,
85.1408,4.88037,6.81915,0,19.9867,327,0,
85.1409,4.88037,6.82068,0,19.9867,327,0,
85.1409,4.87976,6.82068,0,19.9867,327,0,
85.1409,4.88098,6.81915,0,19.9867,327,0,
85.141,4.88068,6.82221,0,19.9867,327,0,
85.141,4.88068,6.81915,0,19.9867,327,0,
85.141,4.88007,6.82068,0,19.9867,327,0,
85.1411,4.88037,6.81763,0,19.9867,327,0,
85.1411,4.88068,6.82221,0,19.9867,327,0,
85.1411,4.88037,6.82373,0,19.9867,327,0,
85.1412,4.88068,6.82068,0,19.9867,327,0,
85.1412,4.88037,6.81915,0,19.9867,327,0,
85.1412,4.88037,6.82221,0,19.9867,327,0,
85.1413,4.88007,6.82221,0,19.9867,327,0,
85.1413,4.88037,6.82221,0,19.9867,327,0,
85.1413,4.88068,6.82068,0,19.9867,327,0,
85.1414,4.88068,6.82373,0,19.9867,327,0,
85.1414,4.88037,6.81915,0,19.9867,327,0,
85.1414,4.88098,6.82068,0,19.9867,327,0,
85.1415,4.88037,6.82068,0,19.9867,327,0,
85.1415,4.88525,6.81915,0,19.9867,327,0,
85.1415,4.88525,6.82068,0,19.9867,327,0,
85.1416,4.88556,6.82221,0,19.9867,327,0,
85.1416,4.88556,6.82068,0,19.9867,327,0,
85.1416,4.88586,6.82221,0,19.9867,327,0,
85.1417,4.88525,6.82221,0,19.9867,327,0,
85.1417,4.88586,6.82221,0,19.9867,327,0,
85.1417,4.88525,6.82221,0,19.9867,327,0,
85.1418,4.88495,6.82221,0,19.9867,327,0,
85.1418,4.88586,6.82221,0,19.9867,327,0,
85.1418,4.88495,6.81915,0,19.9867,327,0,
85.1419,4.88525,6.82068,0,19.9867,327,0,
85.1419,4.88586,6.82221,2.392,19.9867,327,0,
85.1419,4.88586,6.82221,2.392,19.9867,327,0,
85.142,4.88495,6.82526,2.392,19.9867,327,0,
85.142,4.88586,6.82068,2.392,19.9867,327,0,
85.142,4.88495,6.82526,2.392,19.9867,327,0,
85.1421,4.88556,6.82068,2.392,19.9867,327,0,
85.1421,4.88525,6.82373,2.392,19.9867,327,0,
85.1421,4.88586,6.82068,2.392,19.9867,327,0,
85.1422,4.88556,6.82373,2.392,19.9867,327,0,
85.1422,4.88556,6.82068,2.392,19.9867,327,0,
85.1422,4.88556,6.81763,2.392,19.9867,327,0,
85.1423,4.88617,6.81305,2.392,19.9867,327,0,
85.1423,4.88556,6.80695,2.392,19.9867,327,0,
85.1423,4.88586,6.80847,2.392,19.9867,327,0,
85.1424,4.88556,6.80847,2.392,19.9867,327,0,
85.1424,4.88525,6.81,2.392,19.9867,327,0,
85.1424,4.88525,6.80847,2.392,19.9867,327,0,
85.1425,4.88586,6.80847,2.392,19.9867,327,0,
85.1425,4.88586,6.81,2.392,19.9867,327,0,
85.1425,4.88586,6.80695,2.392,19.9867,327,0,
85.1426,4.88525,6.80695,2.392,19.9867,327,0,
85.1426,4.88586,6.81,2.392,19.9867,327,0,
85.1426,4.88525,6.80847,2.392,19.9867,327,0,
85.1427,4.88861,6.81305,2.392,19.9867,327,0,
85.1427,4.89014,6.81,2.392,19.9867,327,0,
85.1427,4.88983,6.81,2.392,19.9867,327,0,
85.1428,4.89075,6.80695,2.392,19.9867,327,0,
85.1428,4.89044,6.81,2.392,19.9867,327,0,
85.1428,4.89014,6.81152,2.392,19.9867,327,0,
85.1429,4.89044,6.81,2.392,19.9867,327,0,
85.1429,4.89075,6.81152,2.392,19.9867,327,0,
85.1429,4.89075,6.81152,2.392,19.9867,327,0,
85.143,4.89044,6.80847,2.392,19.9867,327,0,
85.143,4.89044,6.81152,2.392,19.9867,327,0,
85.143,4.89044,6.81,2.392,19.9867,327,0,
85.1431,4.89044,6.80542,2.392,19.9867,327,0,
85.1431,4.88953,6.80847,2.392,19.9867,327,0,
85.1431,4.89014,6.81152,2.392,19.9867,327,0,
85.1432,4.89014,6.81152,2.392,19.9867,327,0,
85.1432,4.89014,6.81305,2.392,19.9867,327,0,
85.1432,4.89075,6.80542,2.392,19.9867,327,0,
85.1433,4.89075,6.80695,2.392,19.9867,327,0,
85.1433,4.89014,6.80847,2.392,19.9867,327,0,
85.1433,4.88983,6.81152,2.392,19.9867,327,0,
85.1434,4.89014,6.80847,2.392,19.9867,327,0,
85.1434,4.89044,6.80542,2.392,19.9867,327,0,
85.1434,4.89075,6.81152,2.392,19.9867,327,0,
85.1435,4.89075,6.80847,2.392,19.9867,327,0,
85.1435,4.89044,6.81,2.392,19.9867,327,0,
85.1435,4.89044,6.80847,2.392,19.9867,327,0,
85.1436,4.89075,6.80847,2.392,19.9867,327,0,
85.1436,4.89014,6.80847,2.392,19.9867,327,0,
85.1436,4.89044,6.81,2.392,19.9867,327,0,
85.1437,4.89105,6.80847,2.392,19.9867,327,0,
85.1437,4.89014,6.80847,2.392,19.9867,327,0,
85.1437,4.89044,6.80695,2.392,19.9867,327,0,
85.1438,4.89075,6.80695,2.392,19.9867,327,0,
85.1438,4.89136,6.81,2.392,19.9867,327,0,
85.1438,4.88983,6.80847,2.392,19.9867,327,0,
85.1439,4.89105,6.81,2.392,19.9867,327,0,
85.1439,4.89044,6.80695,2.392,19.9867,327,0,
85.1439,4.89105,6.81,2.392,19.9867,327,0,
85.144,4.89044,6.80847,2.392,19.9867,327,0,
85.144,4.89075,6.80847,2.392,19.9867,327,0,
85.144,4.89044,6.80847,2.392,19.9867,327,0,
85.1441,4.89044,6.81152,2.392,19.9867,327,0,
85.1441,4.89044,6.81,2.392,19.9867,327,0,
85.1441,4.89075,6.80847,2.392,19.9867,327,0,
85.1442,4.89014,6.80847,2.392,19.9867,327,0,
85.1442,4.89044,6.81152,2.392,19.9867,327,0,
85.1442,4.89075,6.80695,2.392,19.9867,327,0,
85.1443,4.89105,6.81,2.392,19.9867,327,0,
85.1443,4.89075,6.80847,2.392,19.9867,327,0,
85.1443,4.89075,6.81152,2.392,19.9867,327,0,
85.1444,4.89014,6.81,2.392,19.9867,327,0,
85.1444,4.89471,6.80847,2.392,19.9867,327,0,
85.1444,4.89532,6.81,2.392,19.9867,327,0,
85.1445,4.89502,6.80847,2.392,19.9867,327,0,
85.1445,4.89594,6.80847,2.392,19.9867,327,0,
85.1445,4.89532,6.81,2.392,19.9867,327,0,
85.1446,4.89471,6.81305,2.392,19.9867,327,0,
85.1446,4.89502,6.80847,2.392,19.9867,327,0,
85.1446,4.89532,6.80847,2.392,19.9867,327,0,
85.1447,4.89532,6.81,2.392,19.9867,327,0,
85.1447,4.89502,6.80847,2.392,19.9867,327,0,
85.1447,4.89502,6.80847,2.392,19.9867,327,0,
85.1448,4.89563,6.80847,2.392,19.9867,327,0,
85.1448,4.89532,6.80847,2.392,19.9867,327,0,
85.1448,4.89532,6.80847,2.392,19.9867,327,0,
85.1449,4.89502,6.81,2.392,19.9867,327,0,
85.1449,4.89532,6.81,2.392,19.9867,327,0,
85.1449,4.89563,6.81,2.392,19.9867,327,0,
85.145,4.89502,6.81152,2.392,19.9867,327,0,
85.145,4.89532,6.80847,2.392,19.9867,327,0,
85.145,4.89563,6.81152,2.392,19.9867,327,0,
85.1451,4.89471,6.81305,2.392,19.9867,327,0,
85.1451,4.89502,6.81305,2.392,19.9867,327,0,
85.1451,4.89563,6.80847,2.392,19.9867,327,0,
85.1452,4.89563,6.80847,2.392,19.9867,327,0,
85.1452,4.89502,6.80847,2.392,19.9867,327,0,
85.1452,4.89532,6.81,2.392,19.9867,327,0,
85.1453,4.89532,6.80695,2.392,19.9867,327,0,
85.1453,4.89441,6.81152,2.392,19.9867,327,0,
85.1453,4.89532,6.81152,2.392,19.9867,327,0,
85.1454,4.89532,6.80847,2.392,19.9867,327,0,
85.1454,4.89502,6.81,2.392,19.9867,327,0,
85.1454,4.89532,6.81152,2.392,19.9867,327,0,
85.1455,4.89502,6.80695,2.392,19.9867,327,0,
85.1455,4.89502,6.80695,2.392,19.9867,327,0,
85.1455,4.89502,6.81,2.392,19.9867,327,0,
85.1456,4.89532,6.81458,2.392,19.9867,327,0,
85.1456,4.89563,6.80847,2.392,19.9867,327,0,
85.1456,4.89624,6.81152,2.392,19.9867,327,0,
85.1457,4.89563,6.81,2.392,19.9867,327,0,
85.1457,4.89502,6.79779,2.392,19.9867,327,0,
85.1457,4.89502,6.79627,2.392,19.9867,327,0,
85.1458,4.89502,6.79627,2.392,19.9867,327,0,
85.1458,4.89471,6.79627,2.392,19.9867,327,0,
85.1458,4.89471,6.79321,2.392,19.9867,327,0,
85.1459,4.89532,6.80084,2.392,19.9867,327,0,
85.1459,4.89594,6.79932,2.392,19.9867,327,0,
85.1459,4.89502,6.79779,2.392,19.9867,327,0,
85.146,4.89502,6.79627,2.392,19.9867,327,0,
85.146,4.89471,6.79474,2.392,19.9867,327,0,
85.146,4.89532,6.80084,2.392,19.9867,327,0,
85.1461,4.89441,6.79932,2.392,19.9867,327,0,
85.1461,4.89471,6.79932,2.392,19.9867,327,0,
85.1461,4.89502,6.79779,2.392,19.9867,327,0,
85.1462,4.89563,6.79627,2.392,19.9867,327,0,
85.1462,4.89532,6.79779,2.392,19.9867,327,0,
85.1462,4.89532,6.79627,2.392,19.9867,327,0,
85.1463,4.89563,6.79932,2.392,19.9867,327,0,
85.1463,4.89532,6.79779,2.392,19.9867,327,0,
85.1463,4.89471,6.79779,2.392,19.9867,327,0,
85.1464,4.89532,6.80084,2.392,19.9867,327,0,
85.1464,4.89563,6.80084,2.392,19.9867,327,0,
85.1464,4.89563,6.80084,2.392,19.9867,327,0,
85.1465,4.89502,6.79474,2.392,19.9867,327,0,
85.1465,4.89471,6.79779,2.392,19.9867,327,0,
85.1465,4.89563,6.79321,2.392,19.9867,327,0,
85.1466,4.89563,6.79627,2.392,19.9867,327,0,
85.1466,4.89594,6.79932,2.392,19.9867,327,0,
85.1466,4.89594,6.79321,2.392,19.9867,327,0,
85.1467,4.89532,6.79627,2.392,19.9867,327,0,
85.1467,4.89624,6.79779,2.392,19.9867,327,0,
85.1467,4.89624,6.79779,2.392,19.9867,327,0,
85.1468,4.89624,6.79321,2.392,19.9867,327,0,
85.1468,4.89594,6.80084,2.392,19.9867,327,0,
85.1468,4.89532,6.79474,2.392,19.9867,327,0,
85.1469,4.89563,6.79627,2.392,19.9867,327,0,
85.1469,4.89532,6.79321,2.392,19.9867,327,0,
85.1469,4.89563,6.79627,2.392,19.9867,327,0,
85.147,4.89471,6.79321,2.392,19.9867,327,0,
85.147,4.89532,6.79779,2.392,19.9867,327,0,
85.147,4.89502,6.79779,2.392,19.9867,327,0,
85.1471,4.89471,6.79779,2.392,19.9867,327,0,
85.1471,4.89502,6.79627,2.392,19.9867,327,0,
85.1471,4.89441,6.80084,2.392,19.9867,327,0,
85.1472,4.89502,6.79474,2.392,19.9867,327,0,
85.1472,4.89502,6.79474,2.392,19.9867,327,0,
85.1472,4.89502,6.79779,2.392,19.9867,327,0,
85.1473,4.89532,6.79627,2.392,19.9867,327,0,
85.1473,4.89502,6.79474,2.392,19.9867,327,0,
85.1473,4.89502,6.79932,2.392,19.9867,327,0,
85.1474,4.89471,6.79779,2.392,19.9867,327,0,
85.1474,4.89532,6.79627,2.392,19.9867,327,0,
85.1474,4.89563,6.79779,2.392,19.9867,327,0,
85.1475,4.89502,6.79474,2.392,19.9867,327,0,
85.1475,4.89594,6.79627,2.392,19.9867,327,0,
85.1475,4.89532,6.80237,2.392,19.9867,327,0,
85.1476,4.89471,6.79321,2.392,19.9867,327,0,
85.1476,4.89471,6.79474,2.392,19.9867,327,0,
85.1476,4.89502,6.79627,2.392,19.9867,327,0,
85.1477,4.89502,6.79779,2.392,19.9867,327,0,
85.1477,4.89563,6.79932,2.392,19.9867,327,0,
85.1477,4.89563,6.79779,2.392,19.9867,327,0,
85.1478,4.89563,6.79932,2.392,19.9867,327,0,
85.1478,4.89532,6.79779,2.392,19.9867,327,0,
85.1478,4.89502,6.79779,2.392,19.9867,327,0,
85.1479,4.89532,6.79474,2.392,19.9867,327,0,
85.1479,4.89532,6.79779,2.392,19.9867,327,0,
85.1479,4.89532,6.79627,2.392,19.9867,327,0,
85.148,4.89502,6.79627,2.392,19.9867,327,0,
85.148,4.89532,6.79321,2.392,19.9867,327,0,
85.148,4.89532,6.79627,2.392,19.9867,327,0,
85.1481,4.89532,6.79779,2.392,19.9867,327,0,
85.1481,4.89532,6.79627,2.392,19.9867,327,0,
85.1481,4.89532,6.79779,2.392,19.9867,327,0,
85.1482,4.89624,6.79779,2.392,19.9867,327,0,
85.1482,4.89532,6.79779,2.392,19.9867,327,0,
85.1482,4.89502,6.80084,2.392,19.9867,327,0,
85.1483,4.89532,6.79627,2.392,19.9867,327,0,
85.1483,4.89624,6.79779,2.392,19.9867,327,0,
85.1483,4.89532,6.80084,2.392,19.9867,327,0,
85.1484,4.89532,6.79627,2.392,19.9867,327,0,
85.1484,4.89502,6.79627,2.392,19.9867,327,0,
85.1484,4.89532,6.80389,2.392,19.9867,327,0,
85.1485,4.89532,6.79627,2.392,19.9867,327,0,
85.1485,4.89594,6.79779,2.392,19.9867,327,0,
85.1485,4.89532,6.79627,2.392,19.9867,327,0,
85.1486,4.89502,6.79474,2.392,19.9867,327,0,
85.1486,4.89502,6.79779,2.392,19.9867,327,0,
85.1486,4.89502,6.79779,2.392,19.9867,327,0,
85.1487,4.89532,6.79627,2.392,19.9867,327,0,
85.1487,4.89502,6.79474,2.392,19.9867,327,0,
85.1487,4.89471,6.79779,2.392,19.9867,327,0,
85.1488,4.89594,6.79321,2.392,19.9867,327,0,
85.1488,4.89563,6.79474,2.392,19.9867,327,0,
85.1488,4.89563,6.80084,2.392,19.9867,327,0,
85.1489,4.89532,6.79321,2.392,19.9867,327,0,
85.1489,4.89502,6.79779,2.392,19.9867,327,0,
85.1489,4.89502,6.79779,2.392,19.9867,327,0,
85.149,4.89502,6.79779,2.392,19.9867,327,0,
85.149,4.89532,6.79779,2.392,19.9867,327,0,
85.149,4.89563,6.79627,2.392,19.9867,327,0,
85.1491,4.89532,6.79627,2.392,19.9867,327,0,
85.1491,4.89532,6.79779,2.392,19.9867,327,0,
85.1491,4.89563,6.79779,2.392,19.9867,327,0,
85.1492,4.89594,6.79474,2.392,19.9867,327,0,
85.1492,4.89594,6.79474,2.392,19.9867,327,0,
85.1492,4.89532,6.79627,2.392,19.9867,327,0,
85.1493,4.89502,6.79779,2.392,19.9867,327,0,
85.1493,4.89532,6.79627,2.392,19.9867,327,0,
85.1493,4.89532,6.79932,2.392,19.9867,327,0,
85.1494,4.89532,6.79627,2.392,19.9867,327,0,
85.1494,4.89532,6.80084,2.392,19.9867,327,0,
85.1494,4.89502,6.79779,2.392,19.9867,327,0,
85.1495,4.89563,6.79779,2.392,19.9867,327,0,
85.1495,4.89532,6.79627,2.392,19.9867,327,0,
85.1495,4.89532,6.79932,2.392,19.9867,327,0,
85.1496,4.89471,6.79779,2.392,19.9867,327,0,
85.1496,4.89563,6.79779,2.392,19.9867,327,0,
85.1496,4.89532,6.79627,2.392,19.9867,327,0,
85.1497,4.89502,6.79932,2.392,19.9867,327,0,
85.1497,4.89624,6.79779,2.392,19.9867,327,0,
85.1497,4.89502,6.79779,2.392,19.9867,327,0,
85.1498,4.89502,6.79779,2.392,19.9867,327,0,
85.1498,4.89594,6.79779,2.392,19.9867,327,0,
85.1498,4.89594,6.79779,2.392,19.9867,327,0,
85.1499,4.89532,6.79016,2.392,19.9867,327,0,
85.1499,4.89624,6.78558,2.392,19.9867,327,0,
85.1499,4.89502,6.78558,2.392,19.9867,327,0,
85.15,4.89532,6.78558,2.392,19.9867,327,0,
85.15,4.89532,6.78558,2.392,19.9867,327,0,
85.15,4.89502,6.78253,2.392,19.9867,327,0,
85.1501,4.89532,6.78558,2.392,19.9867,327,0,
85.1501,4.89532,6.78558,2.392,19.9867,327,0,
85.1501,4.89624,6.78406,2.392,19.9867,327,0,
85.1502,4.89502,6.78406,2.392,19.9867,327,0,
85.1502,4.89532,6.78558,2.392,19.9867,327,0,
85.1502,4.89594,6.78558,2.392,19.9867,327,0,
85.1503,4.89594,6.78406,2.392,19.9867,327,0,
85.1503,4.89563,6.78711,2.392,19.9867,327,0,
85.1503,4.89594,6.78406,2.392,19.9867,327,0,
85.1504,4.89624,6.78406,2.392,19.9867,327,0,
85.1504,4.89532,6.78406,2.392,19.9867,327,0,
85.1504,4.89532,6.78406,2.392,19.9867,327,0,
85.1505,4.89563,6.78711,2.392,19.9867,327,0,
85.1505,4.89502,6.78406,2.392,19.9867,327,0,
85.1505,4.89563,6.78711,2.392,19.9867,327,0,
85.1506,4.89532,6.78558,2.392,19.9867,327,0,
85.1506,4.89532,6.78711,2.392,19.9867,327,0,
85.1506,4.89594,6.78406,2.392,19.9867,327,0,
85.1507,4.89502,6.78864,2.392,19.9867,327,0,
85.1507,4.89532,6.78558,2.392,19.9867,327,0,
85.1507,4.89563,6.78406,2.392,19.9867,327,0,
85.1508,4.89624,6.78406,2.392,19.9867,327,0,
85.1508,4.89502,6.78406,2.392,19.9867,327,0,
85.1508,4.89502,6.78253,2.392,19.9867,327,0,
85.1509,4.89563,6.78406,2.392,19.9867,327,0,
85.1509,4.89532,6.78558,2.392,19.9867,327,0,
85.1509,4.89532,6.79016,2.392,19.9867,327,0,
85.151,4.89502,6.78558,2.392,19.9867,327,0,
85.151,4.89624,6.78558,2.392,19.9867,327,0,
85.151,4.89624,6.78406,2.392,19.9867,327,0,
85.1511,4.89594,6.78711,2.392,19.9867,327,0,
85.1511,4.89594,6.78558,2.392,19.9867,327,0,
85.1511,4.89563,6.78864,2.392,19.9867,327,0,
85.1512,4.89502,6.78711,2.392,19.9867,327,0,
85.1512,4.89594,6.78558,2.392,19.9867,327,0,
85.1512,4.89502,6.78406,2.392,19.9867,327,0,
85.1513,4.89563,6.78406,2.392,19.9867,327,0,
85.1513,4.89594,6.78711,2.392,19.9867,327,0,
85.1513,4.89594,6.78406,2.392,19.9867,327,0,
85.1514,4.89532,6.78558,2.392,19.9867,327,0,
85.1514,4.89532,6.78558,2.392,19.9867,327,0,
85.1514,4.89563,6.78558,2.392,19.9867,327,0,
85.1515,4.89532,6.78406,2.392,19.9867,327,0,
85.1515,4.89532,6.78711,2.392,19.9867,327,0,
85.1515,4.89563,6.78253,2.392,19.9867,327,0,
85.1516,4.89502,6.78711,2.392,19.9867,327,0,
85.1516,4.89563,6.78864,2.392,19.9867,327,0,
85.1516,4.89532,6.78558,2.392,19.9867,327,0,
85.1517,4.89532,6.78253,2.392,19.9867,327,0,
85.1517,4.89563,6.78864,2.392,19.9867,327,0,
85.1517,4.89532,6.78558,2.392,19.9867,327,0,
85.1518,4.89563,6.78253,2.392,19.9867,327,0,
85.1518,4.89502,6.78558,2.392,19.9867,327,0,
85.1518,4.89502,6.78253,2.392,19.9867,327,0,
85.1519,4.89563,6.78406,2.392,19.9867,327,0,
85.1519,4.89532,6.78558,2.392,19.9867,327,0,
85.1519,4.89594,6.78558,2.392,19.9867,327,0,
85.152,4.89532,6.78711,2.392,19.9867,327,0,
85.152,4.89471,6.78558,2.392,19.9867,327,0,
85.152,4.89502,6.78558,2.392,19.9867,327,0,
85.1521,4.89532,6.78558,2.392,19.9867,327,0,
85.1521,4.89471,6.78711,2.392,19.9867,327,0,
85.1521,4.89532,6.78406,2.392,19.9867,327,0,
85.1522,4.89502,6.78558,2.392,19.9867,327,0,
85.1522,4.89502,6.78711,2.392,19.9867,327,0,
85.1522,4.89502,6.78864,2.392,19.9867,327,0,
85.1523,4.89502,6.78711,2.392,19.9867,327,0,
85.1523,4.89502,6.78558,2.392,19.9867,327,0,
85.1523,4.89532,6.78406,2.392,19.9867,327,0,
85.1524,4.89502,6.78406,2.392,19.9867,327,0,
85.1524,4.89502,6.78558,2.392,19.9867,327,0,
85.1524,4.89532,6.78406,2.392,19.9867,327,0,
85.1525,4.90021,6.78406,2.392,19.9867,327,0,
85.1525,4.8999,6.78711,2.392,19.9867,327,0,
85.1525,4.90051,6.78406,2.392,19.9867,327,0,
85.1526,4.8996,6.78558,2.392,19.9867,327,0,
85.1526,4.90051,6.78711,2.392,19.9867,327,0,
85.1526,4.90021,6.79016,2.392,19.9867,327,0,
85.1527,4.90021,6.78558,2.392,19.9867,327,0,
85.1527,4.90021,6.78558,2.392,19.9867,327,0,
85.1527,4.8999,6.78406,2.392,19.9867,327,0,
85.1528,4.90021,6.78558,2.392,19.9867,327,0,
85.1528,4.8999,6.78864,2.392,19.9867,327,0,
85.1528,4.8999,6.78711,2.392,19.9867,327,0,
85.1529,4.8996,6.78406,0.658,19.9867,327,0,
85.1529,4.8996,6.78558,0.658,19.9867,327,0,
85.1529,4.90051,6.78406,0.658,19.9867,327,0,
85.153,4.90082,6.78406,0.658,19.9867,327,0,
85.153,4.90021,6.78864,0.658,19.9867,327,0,
85.153,4.8999,6.78558,0.658,19.9867,327,0,
85.1531,4.90051,6.78406,0.658,19.9867,327,0,
85.1531,4.8999,6.78558,0.658,19.9867,327,0,
85.1531,4.90051,6.78406,0.658,19.9867,327,0,
85.1532,4.8996,6.78864,0.658,19.9867,327,0,
85.1532,4.90051,6.78406,0.658,19.9867,327,0,
85.1532,4.8999,6.78406,0.658,19.9867,327,0,
85.1533,4.90051,6.78558,0.658,19.9867,327,0,
85.1533,4.90051,6.78406,0.658,19.9867,327,0,
85.1533,4.90051,6.78558,0.658,19.9867,327,0,
85.1534,4.90021,6.78864,0.658,19.9867,327,0,
85.1534,4.8999,6.78253,0.658,19.9867,327,0,
85.1534,4.90021,6.78558,0.658,19.9867,327,0,
85.1535,4.90082,6.78558,0.658,19.9867,327,0,
85.1535,4.8999,6.78558,0.658,19.9867,327,0,
85.1535,4.8999,6.78864,0.658,19.9867,327,0,
85.1536,4.90051,6.78406,0.658,19.9867,327,0,
85.1536,4.90051,6.78558,0.658,19.9867,327,0,
85.1536,4.8999,6.78711,0.658,19.9867,327,0,
85.1537,4.8999,6.78558,0.658,19.9867,327,0,
85.1537,4.90051,6.78558,0.658,19.9867,327,0,
85.1537,4.8999,6.78558,0.658,19.9867,327,0,
85.1538,4.8999,6.78406,0.658,19.9867,327,0,
85.1538,4.8996,6.78406,0.658,19.9867,327,0,
85.1538,4.8999,6.78558,0.658,19.9867,327,0,
85.1539,4.8999,6.78558,0.658,19.9867,327,0,
85.1539,4.90051,6.78253,0.658,19.9867,327,0,
85.1539,4.8999,6.78406,0.658,19.9867,327,0,
85.154,4.90021,6.78558,0.658,19.9867,327,0,
85.154,4.8999,6.78864,0.658,19.9867,327,0,
85.154,4.90051,6.78406,0.658,19.9867,327,0,
85.1541,4.90082,6.78864,0.658,19.9867,327,0,
85.1541,4.90021,6.78558,0.658,19.9867,327,0,
85.1541,4.90082,6.78406,0.658,19.9867,327,0,
85.1542,4.90021,6.78253,0.658,19.9867,327,0,
85.1542,4.90051,6.78711,0.658,19.9867,327,0,
85.1542,4.90021,6.78558,0.658,19.9867,327,0,
85.1543,4.90051,6.78558,0.658,19.9867,327,0,
85.1543,4.8999,6.78406,0.658,19.9867,327,0,
85.1543,4.8999,6.78406,0.658,19.9867,327,0,
85.1544,4.90051,6.78406,0.658,19.9867,327,0,
85.1544,4.90082,6.78711,0.658,19.9867,327,0,
85.1544,4.90021,6.78406,0.658,19.9867,327,0,
85.1545,4.8999,6.78558,0.658,19.9867,327,0,
85.1545,4.90021,6.78711,0.658,19.9867,327,0,
85.1545,4.90082,6.78406,0.658,19.9867,327,0,
85.1546,4.90021,6.78558,0.658,19.9867,327,0,
85.1546,4.90021,6.78864,0.658,19.9867,327,0,
85.1546,4.90051,6.78406,0.658,19.9867,327,0,
85.1547,4.8999,6.78711,0.658,19.9867,327,0,
85.1547,4.90021,6.78406,0.658,19.9867,327,0,
85.1547,4.8999,6.79016,0.658,19.9867,327,0,
85.1548,4.8996,6.78406,0.658,19.9867,327,0,
85.1548,4.8999,6.78558,0.658,19.9867,327,0,
85.1548,4.8999,6.78711,0.658,19.9867,327,0,
85.1549,4.90051,6.78558,0.658,19.9867,327,0,
85.1549,4.90051,6.78711,0.658,19.9867,327,0,
85.1549,4.90051,6.78558,0.658,19.9867,327,0,
85.155,4.8999,6.78558,0.658,19.9867,327,0,
85.155,4.90021,6.78406,0.658,19.9867,327,0,
85.155,4.8999,6.78711,0.658,19.9867,327,0,
85.1551,4.90021,6.78711,0.658,19.9867,327,0,
85.1551,4.90051,6.78711,0.658,19.9867,327,0,
85.1551,4.90021,6.78558,0.658,19.9867,327,0,
85.1552,4.90021,6.78558,0.658,19.9867,327,0,
85.1552,4.8996,6.78558,0.658,19.9867,327,0,
85.1552,4.90021,6.78558,0.658,19.9867,327,0,
85.1553,4.9057,6.78101,0.658,19.9867,327,0,
85.1553,4.90509,6.78711,0.658,19.9867,327,0,
85.1553,4.90479,6.78711,0.658,19.9867,327,0,
85.1554,4.9057,6.78406,0.658,19.9867,327,0,
85.1554,4.90448,6.78558,0.658,19.9867,327,0,
85.1554,4.9054,6.78253,0.658,19.9867,327,0,
85.1555,4.9054,6.78558,0.658,19.9867,327,0,
85.1555,4.90509,6.78558,0.658,19.9867,327,0,
85.1555,4.90601,6.78711,0.658,19.9867,327,0,
85.1556,4.90479,6.78406,0.658,19.9867,327,0,
85.1556,4.90448,6.78253,0.658,19.9867,327,0,
85.1556,4.90509,6.78711,0.658,19.9867,327,0,
85.1557,4.90479,6.78864,0.658,19.9867,327,0,
85.1557,4.9054,6.78253,0.658,19.9867,327,0,
85.1557,4.90479,6.78406,0.658,19.9867,327,0,
85.1558,4.90448,6.78253,0.658,19.9867,327,0,
85.1558,4.9054,6.78864,0.658,19.9867,327,0,
85.1558,4.9054,6.78864,0.658,19.9867,327,0,
85.1559,4.90448,6.78864,0.658,19.9867,327,0,
85.1559,4.90509,6.78558,0.658,19.9867,327,0,
85.1559,4.9054,6.78864,0.658,19.9867,327,0,
85.156,4.90509,6.78406,0.658,19.9867,327,0,
85.156,4.90479,6.78711,0.658,19.9867,327,0,
85.156,4.90509,6.78711,0.658,19.9867,327,0,
85.1561,4.90509,6.78711,0.658,19.9867,327,0,
85.1561,4.90448,6.78406,0.658,19.9867,327,0,
85.1561,4.90479,6.78558,0.658,19.9867,327,0,
85.1562,4.90509,6.78711,0.658,19.9867,327,0,
85.1562,4.90509,6.78406,0.658,19.9867,327,0,
85.1562,4.9057,6.78558,0.658,19.9867,327,0,
85.1563,4.90509,6.78253,0.658,19.9867,327,0,
85.1563,4.90479,6.78711,0.658,19.9867,327,0,
85.1563,4.9054,6.78558,0.658,19.9867,327,0,
85.1564,4.90479,6.78558,0.658,19.9867,327,0,
85.1564,4.90479,6.78406,0.658,19.9867,327,0,
85.1564,4.90509,6.78406,0.658,19.9867,327,0,
85.1565,4.9054,6.78406,0.658,19.9867,327,0,
85.1565,4.90509,6.78558,0.658,19.9867,327,0,
85.1565,4.9054,6.78558,0.658,19.9867,327,0,
85.1566,4.9057,6.78558,0.658,19.9867,327,0,
85.1566,4.9057,6.78406,0.658,19.9867,327,0,
85.1566,4.9054,6.78406,0.658,19.9867,327,0,
85.1567,4.90509,6.78558,0.658,19.9867,327,0,
85.1567,4.90509,6.78558,0.658,19.9867,327,0,
85.1567,4.90448,6.78558,0.658,19.9867,327,0,
85.1568,4.9054,6.78711,0.658,19.9867,327,0,
85.1568,4.9054,6.78253,0.658,19.9867,327,0,
85.1568,4.90509,6.78558,0.658,19.9867,327,0,
85.1569,4.9057,6.78558,0.658,19.9867,327,0,
85.1569,4.90509,6.78711,0.658,19.9867,327,0,
85.1569,4.9057,6.78558,0.658,19.9867,327,0,
85.157,4.9054,6.78253,0.658,19.9867,327,0,
85.157,4.90509,6.78558,0.658,19.9867,327,0,
85.157,4.9054,6.78864,0.658,19.9867,327,0,
85.1571,4.9054,6.78406,0.658,19.9867,327,0,
85.1571,4.90479,6.78711,0.658,19.9867,327,0,
85.1571,4.90448,6.78406,0.658,19.9867,327,0,
85.1572,4.9054,6.78711,0.658,19.9867,327,0,
85.1572,4.90509,6.78406,0.658,19.9867,327,0,
85.1572,4.90479,6.78558,0.658,19.9867,327,0,
85.1573,4.90509,6.78558,0.658,19.9867,327,0,
85.1573,4.90509,6.78558,0.658,19.9867,327,0,
85.1573,4.90448,6.78406,0.658,19.9867,327,0,
85.1574,4.90509,6.78864,0.658,19.9867,327,0,
85.1574,4.9054,6.78406,0.658,19.9867,327,0,
85.1574,4.90509,6.78253,0.658,19.9867,327,0,
85.1575,4.91028,6.78558,0.658,19.9867,327,0,
85.1575,4.90997,6.78406,0.658,19.9867,327,0,
85.1575,4.90967,6.78406,0.658,19.9867,327,0,
85.1576,4.91028,6.78253,0.658,19.9867,327,0,
85.1576,4.90936,6.78558,0.658,19.9867,327,0,
85.1576,4.90997,6.78711,0.658,19.9867,327,0,
85.1577,4.90967,6.78406,0.658,19.9867,327,0,
85.1577,4.91028,6.78406,0.658,19.9867,327,0,
85.1577,4.91028,6.78253,0.658,19.9867,327,0,
85.1578,4.91028,6.78406,0.658,19.9867,327,0,
85.1578,4.90967,6.78864,0.658,19.9867,327,0,
85.1578,4.90967,6.78864,0.658,19.9867,327,0,
85.1579,4.90997,6.78406,0.658,19.9867,327,0,
85.1579,4.91058,6.78101,0.658,19.9867,327,0,
85.1579,4.91058,6.78406,0.658,19.9867,327,0,
85.158,4.91028,6.78558,0.658,19.9867,327,0,
85.158,4.91058,6.78406,0.658,19.9867,327,0,
85.158,4.91028,6.78711,0.658,19.9867,327,0,
85.1581,4.90997,6.78406,0.658,19.9867,327,0,
85.1581,4.91028,6.78406,0.658,19.9867,327,0,
85.1581,4.90997,6.78558,0.658,19.9867,327,0,
85.1582,4.90997,6.78711,0.658,19.9867,327,0,
85.1582,4.90997,6.78711,0.658,19.9867,327,0,
85.1582,4.90967,6.78406,0.658,19.9867,327,0,
85.1583,4.90997,6.78406,0.658,19.9867,327,0,
85.1583,4.90906,6.78406,0.658,19.9867,327,0,
85.1583,4.90967,6.78711,0.658,19.9867,327,0,
85.1584,4.90997,6.78711,0.658,19.9867,327,0,
85.1584,4.90997,6.78558,0.658,19.9867,327,0,
85.1584,4.90997,6.78253,0.658,19.9867,327,0,
85.1585,4.90997,6.78864,0.658,19.9867,327,0,
85.1585,4.91028,6.78406,0.658,19.9867,327,0,
85.1585,4.90967,6.78558,0.658,19.9867,327,0,
85.1586,4.91028,6.78711,0.658,19.9867,327,0,
85.1586,4.90967,6.78406,0.658,19.9867,327,0,
85.1586,4.90936,6.78406,0.658,19.9867,327,0,
85.1587,4.90997,6.78711,0.658,19.9867,327,0,
85.1587,4.91058,6.78558,0.658,19.9867,327,0,
85.1587,4.91028,6.78711,0.658,19.9867,327,0,
85.1588,4.90997,6.78558,0.658,19.9867,327,0,
85.1588,4.90997,6.78711,0.658,19.9867,327,0,
85.1588,4.90936,6.78406,0.658,19.9867,327,0,
85.1589,4.91455,6.78558,0.658,19.9867,327,0,
85.1589,4.91516,6.78711,0.658,19.9867,327,0,
85.1589,4.91486,6.78711,0.658,19.9867,327,0,
85.159,4.91516,6.78558,0.658,19.9867,327,0,
85.159,4.91486,6.78253,0.658,19.9867,327,0,
85.159,4.91486,6.78558,0.658,19.9867,327,0,
85.1591,4.91486,6.78558,0.658,19.9867,327,0,
85.1591,4.91547,6.78711,0.658,19.9867,327,0,
85.1591,4.91577,6.78711,0.658,19.9867,327,0,
85.1592,4.91608,6.78711,0.658,19.9867,327,0,
85.1592,4.91547,6.78406,0.658,19.9867,327,0,
85.1592,4.91516,6.77643,0.658,19.9867,327,0,
85.1593,4.91608,6.77185,0.394,19.9867,327,0,
85.1593,4.91547,6.7749,0.394,19.9867,327,0,
85.1593,4.91577,6.77643,0.394,19.9867,327,0,
85.1594,4.91516,6.77185,0.394,19.9867,327,0,
85.1594,4.91486,6.7749,0.394,19.9867,327,5,
85.1594,4.91577,6.77185,0.394,19.9867,327,5,
85.1595,4.91516,6.77338,0.394,19.9867,327,5,
85.1595,4.91547,6.77338,0.394,19.9867,327,5,
85.1595,4.91547,6.77033,0.394,19.9867,327,5,
85.1596,4.91486,6.77643,0.394,19.9867,327,5,
85.1596,4.91486,6.77643,0.394,19.9867,327,5,
85.1596,4.91486,6.77338,0.394,19.9867,327,5,
85.1597,4.91455,6.77185,0.394,19.9867,327,5,
85.1597,4.91394,6.7749,0.394,19.9867,327,5,
85.1597,4.91516,6.7749,0.394,19.9867,327,5,
85.1598,4.91486,6.77643,0.394,19.9867,327,5,
85.1598,4.91547,6.77338,0.394,19.9867,327,5,
85.1598,4.91486,6.77338,0.394,19.9867,327,5,
85.1599,4.92004,6.77185,0.394,19.9867,327,5,
85.1599,4.91882,6.77185,0.394,19.9867,327,5,
85.1599,4.91974,6.77338,0.394,19.9867,327,5,
85.16,4.92004,6.77033,0.394,19.9867,327,5,
85.16,4.92035,6.77643,0.394,19.9867,327,5,
85.16,4.92004,6.7749,0.394,19.9867,327,5,
85.1601,4.92004,6.77643,0.394,19.9867,327,5,
85.1601,4.92065,6.77643,0.394,19.9867,327,5,
85.1601,4.91974,6.77338,0.394,19.9867,327,5,
85.1602,4.92004,6.77033,0.394,19.9867,327,5,
85.1602,4.92035,6.77033,0.394,19.9867,327,5,
85.1602,4.92004,6.77338,0.394,19.9867,327,5,
85.1603,4.92004,6.77185,0.394,19.9867,327,5,
85.1603,4.91943,6.7749,0.394,19.9867,327,5,
85.1603,4.91943,6.7749,0.394,19.9867,327,5,
85.1604,4.92004,6.77185,0.394,19.9867,327,5,
85.1604,4.92065,6.77033,0.394,19.9867,327,5,
85.1604,4.91943,6.77185,0.394,19.9867,327,5,
85.1605,4.91974,6.77338,0.394,19.9867,327,5,
85.1605,4.91974,6.7749,0.394,19.9867,327,5,
85.1605,4.92004,6.77033,0.394,19.9867,327,5,
85.1606,4.91974,6.77338,0.394,19.9867,327,5,
85.1606,4.92432,6.77185,0.394,19.9867,327,5,
85.1606,4.92462,6.77338,0.394,19.9867,327,5,
85.1607,4.92523,6.7749,0.394,19.9867,327,5,
85.1607,4.92523,6.77338,0.394,19.9867,327,5,
85.1607,4.92523,6.77338,0.394,19.9867,327,5,
85.1608,4.92432,6.77338,0.394,19.9867,327,5,
85.1608,4.92462,6.77643,0.394,19.9867,327,5,
85.1608,4.92523,6.77185,0.394,19.9867,327,5,
85.1609,4.92432,6.77338,0.394,19.9867,327,5,
85.1609,4.92493,6.77033,0.394,19.9867,327,5,
85.1609,4.92432,6.77185,0.394,19.9867,327,5,
85.161,4.92432,6.77185,0.394,19.9867,327,5,
85.161,4.92523,6.77338,0.394,19.9867,327,5,
85.161,4.92401,6.77185,0.394,19.9867,327,5,
85.1611,4.92523,6.7749,0.394,19.9867,327,5,
85.1611,4.92462,6.77185,0.394,19.9867,327,5,
85.1611,4.92462,6.77185,0.394,19.9867,327,5,
85.1612,4.9292,6.7749,0.394,19.9867,327,5,
85.1612,4.92981,6.77338,0.394,19.9867,327,5,
85.1612,4.9295,6.77185,0.394,19.9867,327,5,
85.1613,4.9295,6.7749,0.394,19.9867,327,5,
85.1613,4.9292,6.77185,0.394,19.9867,327,5,
85.1613,4.9295,6.77643,0.394,19.9867,327,5,
85.1614,4.9295,6.77185,0.394,19.9867,327,5,
85.1614,4.92859,6.77338,0.394,19.9867,327,5,
85.1614,4.9292,6.77033,0.394,19.9867,327,5,
85.1615,4.9292,6.77185,0.394,19.9867,327,5,
85.1615,4.9295,6.77338,0.394,19.9867,327,5,
85.1615,4.9292,6.77338,0.394,19.9867,327,5,
85.1616,4.92981,6.77643,0.394,19.9867,327,5,
85.1616,4.9295,6.77338,0.394,19.9867,327,5,
85.1616,4.9295,6.77185,0.394,19.9867,327,5,
85.1617,4.9353,6.77185,0.394,19.9867,327,5,
85.1617,4.935,6.77185,0.394,19.9867,327,5,
85.1617,4.93469,6.77185,0.394,19.9867,327,5,
85.1618,4.93469,6.77338,0.394,19.9867,327,5,
85.1618,4.93439,6.7749,0.394,19.9867,327,5,
85.1618,4.93439,6.7688,0.394,19.9867,327,5,
85.1619,4.93439,6.77185,0.394,19.9867,327,5,
85.1619,4.93439,6.77185,0.394,19.9867,327,5,
85.1619,4.93469,6.77033,0.394,19.9867,327,5,
85.162,4.93469,6.77185,0.394,19.9867,327,5,
85.162,4.9353,6.77338,0.394,19.9867,327,5,
85.162,4.93469,6.77338,0.394,19.9867,327,5,
85.1621,4.93469,6.77185,0.394,19.9867,327,5,
85.1621,4.93896,6.77033,0.394,19.9867,327,5,
85.1621,4.93988,6.77338,0.394,19.9867,327,5,
85.1622,4.93927,6.77643,0.394,19.9867,327,5,
85.1622,4.93988,6.7749,0.394,19.9867,327,5,
85.1622,4.93988,6.77643,0.394,19.9867,327,5,
85.1623,4.93988,6.77338,0.394,19.9867,327,5,
85.1623,4.93958,6.77338,0.394,19.9867,327,5,
85.1623,4.93927,6.77185,0.394,19.9867,327,5,
85.1624,4.93958,6.77033,0.394,19.9867,327,5,
85.1624,4.93958,6.77185,0.394,19.9867,327,5,
85.1624,4.93896,6.77338,0.394,19.9867,327,5,
85.1625,4.93927,6.77338,0.394,19.9867,327,5,
85.1625,4.94385,6.77185,0.394,19.9867,327,5,
85.1625,4.94476,6.77338,0.394,19.9867,327,5,
85.1626,4.94446,6.7749,0.394,19.9867,327,5,
85.1626,4.94446,6.77338,0.394,19.9867,327,5,
85.1626,4.94385,6.77338,0.394,19.9867,327,5,
85.1627,4.94415,6.7749,0.394,19.9867,327,5,
85.1627,4.94415,6.77185,0.394,19.9867,327,5,
85.1627,4.94537,6.77033,0.394,19.9867,327,5,
85.1628,4.94415,6.77185,0.394,19.9867,327,5,
85.1628,4.94476,6.77338,0.394,19.9867,327,5,
85.1628,4.94476,6.7749,0.394,19.9867,327,5,
85.1629,4.9469,6.77338,0.394,19.9867,327,5,
85.1629,4.94934,6.77338,0.394,19.9867,327,5,
85.1629,4.94934,6.77338,0.394,19.9867,327,5,
85.163,4.94965,6.77033,0.394,19.9867,327,5,
85.163,4.94904,6.77185,0.394,19.9867,327,5,
85.163,4.94965,6.77338,0.394,19.9867,327,5,
85.1631,4.94904,6.77796,0.394,19.9867,327,5,
85.1631,4.94965,6.77185,0.394,19.9867,327,5,
85.1631,4.94934,6.77033,0.394,19.9867,327,5,
85.1632,4.94934,6.77338,0.394,19.9867,327,5,
85.1632,4.94965,6.77643,0.394,19.9867,327,5,
85.1632,4.94934,6.77185,0.394,19.9867,327,5,
85.1633,4.95422,6.77185,0.394,19.9867,327,5,
85.1633,4.95453,6.77185,0.394,19.9867,327,5,
85.1633,4.95392,6.77338,0.394,19.9867,327,5,
85.1634,4.95453,6.77338,0.394,19.9867,327,5,
85.1634,4.95453,6.77033,0.394,19.9867,327,5,
85.1634,4.95453,6.77338,0.394,19.9867,327,5,
85.1635,4.95453,6.77185,0.394,19.9867,327,5,
85.1635,4.95422,6.77338,0.394,19.9867,327,5,
85.1635,4.95483,6.77033,0.394,19.9867,327,5,
85.1636,4.95392,6.77643,0.394,19.9867,327,5,
85.1636,4.95453,6.77185,0.394,19.9867,327,5,
85.1636,4.9588,6.77338,0.394,19.9867,327,5,
85.1637,4.95972,6.77338,0.394,19.9867,327,5,
85.1637,4.9588,6.77185,0.394,19.9867,327,5,
85.1637,4.95911,6.77338,0.394,19.9867,327,5,
85.1638,4.95941,6.77185,0.394,19.9867,327,5,
85.1638,4.95911,6.77185,0.394,19.9867,327,5,
85.1638,4.9588,6.77033,0.394,19.9867,327,5,
85.1639,4.95911,6.77185,0.394,19.9867,327,5,
85.1639,4.9585,6.77185,0.394,19.9867,327,5,
85.1639,4.95911,6.77643,0.394,19.9867,327,5,
85.164,4.96338,6.77338,0.394,19.9867,327,5,
85.164,4.96399,6.77338,0.394,19.9867,327,5,
85.164,4.96429,6.77338,0.394,19.9867,327,5,
85.1641,4.96399,6.77185,0.394,19.9867,327,5,
85.1641,4.96399,6.77185,0.394,19.9867,327,5,
85.1641,4.9646,6.77643,0.394,19.9867,327,5,
85.1642,4.96399,6.77338,0.394,19.9867,327,5,
85.1642,4.96399,6.7749,0.394,19.9867,327,5,
85.1642,4.96399,6.77338,0.394,19.9867,327,5,
85.1643,4.96429,6.77338,0.394,19.9867,327,5,
85.1643,4.96429,6.77338,0.394,19.9867,327,5,
85.1643,4.96918,6.77338,0.394,19.9867,327,5,
85.1644,4.96857,6.7749,0.394,19.9867,327,5,
85.1644,4.96918,6.7749,0.394,19.9867,327,5,
85.1644,4.96857,6.77338,0.394,19.9867,327,5,
85.1645,4.96826,6.77338,0.394,19.9867,327,5,
85.1645,4.96857,6.77338,0.394,19.9867,327,5,
85.1645,4.96887,6.77643,0.394,19.9867,327,5,
85.1646,4.96857,6.77643,0.394,19.9867,327,5,
85.1646,4.96857,6.7749,0.394,19.9867,327,5,
85.1646,4.96918,6.77338,0.394,19.9867,327,5,
85.1647,4.97284,6.77185,0.394,19.9867,327,5,
85.1647,4.97467,6.77338,0.394,19.9867,327,5,
85.1647,4.97406,6.77338,0.394,19.9867,327,5,
85.1648,4.97345,6.77338,0.394,19.9867,327,5,
85.1648,4.97406,6.77033,0.394,19.9867,327,5,
85.1648,4.97406,6.77185,0.394,19.9867,327,5,
85.1649,4.97375,6.77338,0.394,19.9867,327,5,
85.1649,4.97375,6.77338,0.394,19.9867,327,5,
85.1649,4.97345,6.77185,0.394,19.9867,327,5,
85.165,4.97406,6.7749,0.394,19.9867,327,5,
85.165,4.97833,6.7749,0.394,19.9867,327,5,
85.165,4.97803,6.77185,0.394,19.9867,327,5,
85.1651,4.97894,6.77338,0.394,19.9867,327,5,
85.1651,4.97894,6.7749,0.394,19.9867,327,5,
85.1651,4.97864,6.77338,0.394,19.9867,327,5,
85.1652,4.97894,6.77338,0.394,19.9867,327,5,
85.1652,4.97833,6.77338,0.394,19.9867,327,5,
85.1652,4.97864,6.77338,0.394,19.9867,327,5,
85.1653,4.97864,6.77338,0.394,19.9867,327,5,
85.1653,4.98383,6.77033,0.394,19.9867,327,5,
85.1653,4.98352,6.77338,0.394,19.9867,327,5,
85.1654,4.98383,6.77185,0.394,19.9867,327,5,
85.1654,4.98383,6.77033,0.394,19.9867,327,5,
85.1654,4.98383,6.7749,0.394,19.9867,327,5,
85.1655,4.98352,6.77185,0.394,19.9867,327,5,
85.1655,4.98322,6.7749,0.394,19.9867,327,5,
85.1655,4.98413,6.77338,0.394,19.9867,327,5,
85.1656,4.9881,6.77338,0.394,19.9867,327,5,
85.1656,4.9881,6.77338,0.394,19.9867,327,5,
85.1656,4.98871,6.77033,0.394,19.9867,327,5,
85.1657,4.9884,6.77643,0.394,19.9867,327,5,
85.1657,4.9881,6.77185,0.394,19.9867,327,5,
85.1657,4.9881,6.77185,0.394,19.9867,327,5,
85.1658,4.9881,6.77338,0.394,19.9867,327,5,
85.1658,4.98779,6.77643,0.394,19.9867,327,5,
85.1658,4.99176,6.77185,0.394,19.9867,327,5,
85.1659,4.99359,6.77033,0.394,19.9867,327,5,
85.1659,4.99359,6.7749,0.394,19.9867,327,5,
85.1659,4.9939,6.77338,0.394,19.9867,327,5,
85.166,4.99298,6.77643,0.394,19.9867,327,5,
85.166,4.99359,6.77338,0.394,19.9867,327,5,
85.166,4.99329,6.77338,0.394,19.9867,327,5,
85.1661,4.99298,6.77185,0.394,19.9867,327,5,
85.1661,4.99817,6.77338,0.394,19.9867,327,5,
85.1661,4.99847,6.77338,0.394,19.9867,327,5,
85.1662,4.99878,6.77185,0.394,19.9867,327,5,
85.1662,4.99817,6.77185,0.394,19.9867,327,5,
85.1662,4.99817,6.77643,0.394,19.9867,327,5,
85.1663,4.99817,6.7749,0.394,19.9867,327,5,
85.1663,4.99847,6.77185,0.394,19.9867,327,5,
85.1663,4.99756,6.77338,0.42,19.9867,327,5,
85.1664,5.00336,6.77338,0.42,19.9867,327,5,
85.1664,5.00336,6.77185,0.42,19.9867,327,5,
85.1664,5.00336,6.77033,0.42,19.9867,327,5,
85.1665,5.00336,6.77185,0.42,19.9867,327,5,
85.1665,5.00305,6.7749,0.42,19.9867,327,5,
85.1665,5.00336,6.77185,0.42,19.9867,327,5,
85.1666,5.00366,6.7688,0.42,19.9867,327,5,
85.1666,5.0058,6.7749,0.42,19.9867,327,5,
85.1666,5.00763,6.77338,0.42,19.9867,327,5,
85.1667,5.00793,6.77033,0.42,19.9867,327,5,
85.1667,5.00793,6.77796,0.42,19.9867,327,5,
85.1667,5.00824,6.77185,0.42,19.9867,327,5,
85.1668,5.00793,6.77338,0.42,19.9867,327,5,
85.1668,5.00763,6.77185,0.42,19.9867,327,5,
85.1668,5.00793,6.77796,0.42,19.9867,327,5,
85.1669,5.01221,6.7749,0.42,19.9867,327,5,
85.1669,5.01343,6.77338,0.42,19.9867,327,5,
85.1669,5.01282,6.77643,0.42,19.9867,327,5,
85.167,5.01312,6.77796,0.42,19.9867,327,5,
85.167,5.01312,6.77643,0.42,19.9867,327,5,
85.167,5.01312,6.77338,0.42,19.9867,327,5,
85.1671,5.01251,6.7749,0.42,19.9867,327,5,
85.1671,5.0174,6.77185,0.42,19.9867,327,5,
85.1671,5.0177,6.77185,0.42,19.9867,327,5,
85.1672,5.0177,6.7749,0.42,19.9867,327,5,
85.1672,5.01801,6.77643,0.42,19.9867,327,5,
85.1672,5.01801,6.77338,0.42,19.9867,327,5,
85.1673,5.01862,6.77033,0.42,19.9867,327,5,
85.1673,5.0177,6.77185,0.42,19.9867,327,5,
85.1673,5.02197,6.77185,0.42,19.9867,327,5,
85.1674,5.02289,6.77338,0.42,19.9867,327,5,
85.1674,5.02258,6.77338,0.42,19.9867,327,5,
85.1674,5.02289,6.77643,0.42,19.9867,327,5,
85.1675,5.02289,6.77033,0.42,19.9867,327,5,
85.1675,5.02319,6.77338,0.42,19.9867,327,5,
85.1675,5.02258,6.7749,0.42,19.9867,327,5,
85.1676,5.02533,6.77185,0.42,19.9867,327,5,
85.1676,5.02808,6.7627,0.42,19.9867,327,5,
85.1676,5.02777,6.76117,0.42,19.9867,327,5,
85.1677,5.02777,6.7627,0.42,19.9867,327,5,
85.1677,5.02747,6.76117,0.42,19.9867,327,5,
85.1677,5.02777,6.76117,0.42,19.9867,327,5,
85.1678,5.02777,6.76422,0.42,19.9867,327,5,
85.1678,5.02808,6.7627,0.42,19.9867,327,5,
85.1678,5.03204,6.75964,0.42,19.9867,327,5,
85.1679,5.03235,6.7627,0.42,19.9867,327,5,
85.1679,5.03265,6.75964,0.42,19.9867,327,5,
85.1679,5.03296,6.7627,0.42,19.9867,327,5,
85.168,5.03265,6.76117,0.42,19.9867,327,5,
85.168,5.03265,6.76117,0.42,19.9867,327,5,
85.168,5.03265,6.7627,0.42,19.9867,327,5,
85.1681,5.03204,6.75964,0.42,19.9867,327,5,
85.1681,5.03754,6.75812,0.42,19.9867,327,5,
85.1681,5.03784,6.76117,0.42,19.9867,327,5,
85.1682,5.03693,6.76117,0.42,19.9867,327,5,
85.1682,5.03693,6.76422,0.42,19.9867,327,5,
85.1682,5.03754,6.76117,0.42,19.9867,327,5,
85.1683,5.03754,6.7627,0.42,19.9867,327,5,
85.1683,5.03815,6.76422,0.42,19.9867,327,5,
85.1683,5.03754,6.76117,0.42,19.9867,327,5,
85.1684,5.04242,6.76117,0.42,19.9867,327,5,
85.1684,5.04242,6.76117,0.42,19.9867,327,5,
85.1684,5.0415,6.7627,0.42,19.9867,327,5,
85.1685,5.04242,6.76117,0.42,19.9867,327,5,
85.1685,5.04272,6.7627,0.42,19.9867,327,5,
85.1685,5.04211,6.7627,0.42,19.9867,327,5,
85.1686,5.04242,6.76117,0.42,19.9867,327,5,
85.1686,5.04608,6.75812,0.42,19.9867,327,5,
85.1686,5.047,6.76117,0.42,19.9867,327,5,
85.1687,5.0473,6.7627,0.42,19.9867,327,5,
85.1687,5.0473,6.76117,0.42,19.9867,327,5,
85.1687,5.04669,6.76117,0.42,19.9867,327,5,
85.1688,5.047,6.76422,0.42,19.9867,327,5,
85.1688,5.04761,6.75964,0.42,19.9867,327,5,
85.1688,5.047,6.75964,0.42,19.9867,327,5,
85.1689,5.05188,6.7627,0.42,19.9867,327,5,
85.1689,5.05188,6.76117,0.42,19.9867,327,5,
85.1689,5.05249,6.76117,0.42,19.9867,327,5,
85.169,5.05188,6.75964,0.42,19.9867,327,5,
85.169,5.05249,6.75964,0.42,19.9867,327,5,
85.169,5.05188,6.76117,0.42,19.9867,327,5,
85.1691,5.05249,6.75812,0.42,19.9867,327,5,
85.1691,5.05219,6.75964,0.42,19.9867,327,5,
85.1691,5.05707,6.75812,0.42,19.9867,327,5,
85.1692,5.05768,6.76117,0.42,19.9867,327,5,
85.1692,5.05707,6.76117,0.42,19.9867,327,5,
85.1692,5.05676,6.76117,0.42,19.9867,327,5,
85.1693,5.05707,6.75964,0.42,19.9867,327,5,
85.1693,5.05707,6.75659,0.42,19.9867,327,5,
85.1693,5.05676,6.76117,0.42,19.9867,327,5,
85.1694,5.05737,6.75964,0.42,19.9867,327,5,
85.1694,5.06042,6.7627,0.42,19.9867,327,5,
85.1694,5.06165,6.76117,0.42,19.9867,327,5,
85.1695,5.06226,6.76117,0.42,19.9867,327,5,
85.1695,5.06256,6.75812,0.42,19.9867,327,5,
85.1695,5.06195,6.75964,0.42,19.9867,327,5,
85.1696,5.06195,6.7627,0.42,19.9867,327,5,
85.1696,5.06256,6.76117,0.42,19.9867,327,5,
85.1696,5.06226,6.75964,0.42,19.9867,327,5,
85.1697,5.06226,6.75964,0.42,19.9867,327,5,
85.1697,5.06683,6.76117,0.42,19.9867,327,5,
85.1697,5.06653,6.7627,0.42,19.9867,327,5,
85.1698,5.06653,6.76117,0.42,19.9867,327,5,
85.1698,5.06683,6.76117,0.42,19.9867,327,5,
85.1698,5.06653,6.75964,0.42,19.9867,327,5,
85.1699,5.06714,6.75659,0.42,19.9867,327,5,
85.1699,5.06653,6.76117,0.42,19.9867,327,5,
85.1699,5.06714,6.75964,0.42,19.9867,327,5,
85.17,5.06744,6.75812,0.42,19.9867,327,5,
85.17,5.07263,6.75964,0.42,19.9867,327,5,
85.17,5.07202,6.75964,0.42,19.9867,327,5,
85.1701,5.07202,6.76117,0.42,19.9867,327,5,
85.1701,5.07202,6.76422,0.42,19.9867,327,5,
85.1701,5.07141,6.76117,0.42,19.9867,327,5,
85.1702,5.07172,6.75964,0.42,19.9867,327,5,
85.1702,5.07172,6.76727,0.42,19.9867,327,5,
85.1702,5.07141,6.7627,0.42,19.9867,327,5,
85.1703,5.07141,6.7627,0.42,19.9867,327,5,
85.1703,5.07416,6.76422,0.42,19.9867,327,5,
85.1703,5.0769,6.76575,0.42,19.9867,327,5,
85.1704,5.07721,6.76117,0.42,19.9867,327,5,
85.1704,5.0769,6.7627,0.42,19.9867,327,5,
85.1704,5.07751,6.7627,0.42,19.9867,327,5,
85.1705,5.0769,6.7627,0.42,19.9867,327,5,
85.1705,5.0766,6.76117,0.42,19.9867,327,5,
85.1705,5.0766,6.7627,0.42,19.9867,327,5,
85.1706,5.0766,6.75964,0.42,19.9867,327,5,
85.1706,5.0766,6.76117,0.42,19.9867,327,5,
85.1706,5.0769,6.7627,0.42,19.9867,327,5,
85.1707,5.08026,6.76117,0.42,19.9867,327,5,
85.1707,5.08148,6.75964,0.42,19.9867,327,5,
85.1707,5.08087,6.75964,0.42,19.9867,327,5,
85.1708,5.08148,6.76117,0.42,19.9867,327,5,
85.1708,5.08118,6.76117,0.42,19.9867,327,5,
85.1708,5.08087,6.7627,0.42,19.9867,327,5,
85.1709,5.08179,6.76117,0.42,19.9867,327,5,
85.1709,5.08179,6.75964,0.42,19.9867,327,5,
85.1709,5.08087,6.76117,0.42,19.9867,327,5,
85.171,5.08118,6.76422,0.42,19.9867,327,5,
85.171,5.08179,6.76117,0.42,19.9867,327,5,
85.171,5.0824,6.76422,0.42,19.9867,327,5,
85.1711,5.08118,6.76117,0.42,19.9867,327,5,
85.1711,5.08148,6.75964,0.42,19.9867,327,5,
85.1711,5.08575,6.76422,0.42,19.9867,327,5,
85.1712,5.08636,6.7627,0.42,19.9867,327,5,
85.1712,5.08575,6.7627,0.42,19.9867,327,5,
85.1712,5.08606,6.7627,0.42,19.9867,327,5,
85.1713,5.08606,6.76117,0.42,19.9867,327,5,
85.1713,5.08606,6.7627,0.42,19.9867,327,5,
85.1713,5.08667,6.7627,0.42,19.9867,327,5,
85.1714,5.08606,6.75964,0.42,19.9867,327,5,
85.1714,5.08667,6.76117,0.42,19.9867,327,5,
85.1714,5.08545,6.7627,0.42,19.9867,327,5,
85.1715,5.08575,6.7627,0.42,19.9867,327,5,
85.1715,5.08636,6.76117,0.42,19.9867,327,5,
85.1715,5.08606,6.76117,0.42,19.9867,327,5,
85.1716,5.08636,6.75964,0.42,19.9867,327,5,
85.1716,5.08606,6.76117,0.42,19.9867,327,5,
85.1716,5.08606,6.7627,0.42,19.9867,327,5,
85.1717,5.08636,6.76117,0.42,19.9867,327,5,
85.1717,5.08575,6.7627,0.42,19.9867,327,5,
85.1717,5.08575,6.7627,0.42,19.9867,327,5,
85.1718,5.08636,6.76117,0.42,19.9867,327,5,
85.1718,5.08636,6.75659,0.42,19.9867,327,5,
85.1718,5.08606,6.75964,0.42,19.9867,327,5,
85.1719,5.08942,6.76117,0.42,19.9867,327,5,
85.1719,5.09125,6.75964,0.42,19.9867,327,5,
85.1719,5.09094,6.76117,0.42,19.9867,327,5,
85.172,5.09125,6.76117,0.42,19.9867,327,5,
85.172,5.09125,6.75964,0.42,19.9867,327,5,
85.172,5.09125,6.76422,0.42,19.9867,327,5,
85.1721,5.09094,6.7627,0.42,19.9867,327,5,
85.1721,5.09125,6.75964,0.42,19.9867,327,5,
85.1721,5.09155,6.7627,0.42,19.9867,327,5,
85.1722,5.09155,6.76117,0.42,19.9867,327,5,
85.1722,5.09155,6.76117,0.42,19.9867,327,5,
85.1722,5.09186,6.7627,0.42,19.9867,327,5,
85.1723,5.09186,6.7627,0.42,19.9867,327,5,
85.1723,5.09125,6.75964,0.42,19.9867,327,5,
85.1723,5.09186,6.75812,0.42,19.9867,327,5,
85.1724,5.09155,6.7627,0.42,19.9867,327,5,
85.1724,5.09125,6.76117,0.42,19.9867,327,5,
85.1724,5.09155,6.76117,0.42,19.9867,327,0,
85.1725,5.09186,6.76117,0.42,19.9867,327,0,
85.1725,5.09094,6.76117,0.42,19.9867,327,0,
85.1725,5.09155,6.76117,0.42,19.9867,327,0,
85.1726,5.09033,6.75964,0.42,19.9867,327,0,
85.1726,5.09094,6.76117,0.42,19.9867,327,0,
85.1726,5.09064,6.75964,0.42,19.9867,327,0,
85.1727,5.09094,6.76117,0.42,19.9867,327,0,
85.1727,5.09094,6.7627,0.42,19.9867,327,0,
85.1727,5.09003,6.76422,0.42,19.9867,327,0,
85.1728,5.09125,6.75964,0.42,19.9867,327,0,
85.1728,5.09033,6.76117,0.42,19.9867,327,0,
85.1728,5.09064,6.7627,0.42,19.9867,327,0,
85.1729,5.09125,6.75964,0.42,19.9867,327,0,
85.1729,5.09094,6.76117,0.42,19.9867,327,0,
85.1729,5.09155,6.7627,0.42,19.9867,327,0,
85.173,5.09094,6.75964,0.42,19.9867,327,0,
85.173,5.09125,6.76117,0.42,19.9867,327,0,
85.173,5.09094,6.75812,0.42,19.9867,327,0,
85.1731,5.09064,6.7627,0.42,19.9867,327,0,
85.1731,5.09064,6.75812,0.42,19.9867,327,0,
85.1731,5.09064,6.76117,0.42,19.9867,327,0,
85.1732,5.09094,6.76117,0.42,19.9867,327,0,
85.1732,5.09094,6.76117,0.42,19.9867,327,0,
85.1732,5.09064,6.76117,0.42,19.9867,327,0,
85.1733,5.09125,6.7627,0.42,19.9867,327,0,
85.1733,5.09003,6.75964,0.42,19.9867,327,0,
85.1733,5.09033,6.75964,0.42,19.9867,327,0,
85.1734,5.09125,6.7627,0.42,19.9867,327,0,
85.1734,5.09155,6.76422,0.42,19.9867,327,0,
85.1734,5.08575,6.76422,0.42,19.9867,327,0,
85.1735,5.08606,6.75659,0.42,19.9867,327,0,
85.1735,5.08545,6.75964,0.42,19.9867,327,0,
85.1735,5.08545,6.7627,0.42,19.9867,327,0,
85.1736,5.08606,6.75964,0.42,19.9867,327,0,
85.1736,5.08575,6.75964,0.42,19.9867,327,0,
85.1736,5.08606,6.76422,0.42,19.9867,327,0,
85.1737,5.08575,6.75964,0.42,19.9867,327,0,
85.1737,5.08606,6.76117,0.42,19.9867,327,0,
85.1737,5.08606,6.7627,0.42,19.9867,327,0,
85.1738,5.08606,6.75812,0.42,19.9867,327,0,
85.1738,5.08606,6.76117,0.42,19.9867,327,0,
85.1738,5.08575,6.76117,0.42,19.9867,327,0,
85.1739,5.08606,6.76117,0.42,19.9867,327,0,
85.1739,5.08575,6.75659,0.42,19.9867,327,0,
85.1739,5.08575,6.74744,0.42,19.9867,327,0,
85.174,5.08545,6.74744,0.42,19.9867,327,0,
85.174,5.08575,6.74896,0.42,19.9867,327,0,
85.174,5.08636,6.74744,0.42,19.9867,327,0,
85.1741,5.08667,6.74591,0.42,19.9867,327,0,
85.1741,5.08606,6.75049,0.42,19.9867,327,0,
85.1741,5.08667,6.75049,0.42,19.9867,327,0,
85.1742,5.08606,6.74896,0.42,19.9867,327,0,
85.1742,5.08667,6.74896,0.42,19.9867,327,0,
85.1742,5.08606,6.74744,0.42,19.9867,327,0,
85.1743,5.08545,6.74744,0.42,19.9867,327,0,
85.1743,5.08118,6.75049,0.42,19.9867,327,0,
85.1743,5.08118,6.74896,0.42,19.9867,327,0,
85.1744,5.08179,6.74744,0.42,19.9867,327,0,
85.1744,5.08087,6.74744,0.42,19.9867,327,0,
85.1744,5.08118,6.74896,0.42,19.9867,327,0,
85.1745,5.08118,6.74896,0.42,19.9867,327,0,
85.1745,5.08118,6.75049,0.42,19.9867,327,0,
85.1745,5.08118,6.74744,0.42,19.9867,327,0,
85.1746,5.08179,6.74744,0.42,19.9867,327,0,
85.1746,5.08118,6.74896,0.42,19.9867,327,0,
85.1746,5.08118,6.74896,0.42,19.9867,327,0,
85.1747,5.08118,6.74896,0.42,19.9867,327,0,
85.1747,5.08118,6.74744,0.42,19.9867,327,0,
85.1747,5.08087,6.75202,0.42,19.9867,327,0,
85.1748,5.08179,6.74896,0.42,19.9867,327,0,
85.1748,5.08118,6.74896,0.42,19.9867,327,0,
85.1748,5.08148,6.74286,0.42,19.9867,327,0,
85.1749,5.0766,6.74744,0.42,19.9867,327,0,
85.1749,5.07629,6.74896,0.42,19.9867,327,0,
85.1749,5.07629,6.75202,0.42,19.9867,327,0,
