1100-SECPT.acq
2 msec/sample
6 channels
RSP, X, RSPEC-R
Volts
EDA, Y, PPGED-R
microsiemens
ECG R-R
Seconds
Respiration Rate
BPM
C7 - EDR
Peaks
C14 - Control
Volts
min,CH1,CH14,CH40,CH42,CH47,CH54,
,92151,92151,92151,92151,92151,92151,
215.02,3.81409,9.41925,1.172,12.1163,1098,0,
215.02,3.81256,9.4223,1.172,12.1163,1098,0,
215.02,3.81226,9.42383,1.172,12.1163,1098,0,
215.02,3.80768,9.42078,1.172,12.1163,1098,0,
215.02,3.80859,9.4223,1.172,12.1163,1098,0,
215.02,3.80859,9.42078,1.172,12.1163,1098,0,
215.02,3.8089,9.42383,1.172,12.1163,1098,0,
215.02,3.80432,9.42078,1.172,12.1163,1098,0,
215.02,3.80219,9.42078,1.172,12.1163,1098,0,
215.02,3.8028,9.42078,1.172,12.1163,1098,0,
215.02,3.80371,9.4223,1.172,12.1163,1098,0,
215.02,3.80005,9.42078,1.172,12.1163,1098,0,
215.02,3.79822,9.42383,1.172,12.1163,1098,0,
215.02,3.79913,9.42078,1.172,12.1163,1098,0,
215.02,3.797,9.42383,1.172,12.1163,1098,0,
215.02,3.79761,9.42993,1.172,12.1163,1098,0,
215.02,3.79333,9.43604,1.172,12.1163,1098,0,
215.02,3.79425,9.43298,1.172,12.1163,1098,0,
215.02,3.79272,9.43909,1.172,12.1163,1098,0,
215.02,3.79364,9.43146,1.172,12.1163,1098,0,
215.02,3.78906,9.43604,1.172,12.1163,1098,0,
215.02,3.78845,9.43451,1.172,12.1163,1098,0,
215.02,3.78876,9.43451,1.172,12.1163,1098,0,
215.021,3.78815,9.43604,1.172,12.1163,1098,0,
215.021,3.78754,9.43756,1.172,12.1163,1098,0,
215.021,3.78357,9.43604,1.172,12.1163,1098,0,
215.021,3.78357,9.43298,1.172,12.1163,1098,0,
215.021,3.78296,9.43298,1.172,12.1163,1098,0,
215.021,3.78357,9.43298,1.172,12.1163,1098,0,
215.021,3.7796,9.43451,1.172,12.1163,1098,0,
215.021,3.77838,9.43451,1.172,12.1163,1098,0,
215.021,3.77838,9.42993,1.172,12.1163,1098,0,
215.021,3.77808,9.43451,1.172,12.1163,1098,0,
215.021,3.77808,9.43298,1.172,12.1163,1098,0,
215.021,3.77319,9.43604,1.172,12.1163,1098,0,
215.021,3.77411,9.43298,1.172,12.1163,1098,0,
215.021,3.7735,9.43451,1.172,12.1163,1098,0,
215.021,3.7738,9.43146,1.172,12.1163,1098,0,
215.021,3.7735,9.43451,1.172,12.1163,1098,0,
215.021,3.76892,9.43298,1.172,12.1163,1098,0,
215.021,3.76892,9.43298,1.172,12.1163,1098,0,
215.021,3.76892,9.43451,1.172,12.1163,1098,0,
215.021,3.76953,9.44824,1.172,12.1163,1098,0,
215.021,3.76831,9.44367,1.172,12.1163,1098,0,
215.021,3.76404,9.44519,1.172,12.1163,1098,0,
215.021,3.76373,9.44519,1.172,12.1163,1098,0,
215.021,3.76465,9.44519,1.172,12.1163,1098,0,
215.021,3.76404,9.44367,1.172,12.1163,1098,0,
215.021,3.76404,9.44367,1.172,12.1163,1098,0,
215.021,3.75977,9.44367,1.172,12.1163,1098,0,
215.021,3.75916,9.44672,1.172,12.1163,1098,0,
215.021,3.75977,9.44367,1.172,12.1163,1098,0,
215.022,3.75977,9.44519,1.172,12.1163,1098,0,
215.022,3.75885,9.44367,1.172,12.1163,1098,0,
215.022,3.75977,9.44519,1.172,12.1163,1098,0,
215.022,3.75427,9.44672,1.172,12.1163,1098,0,
215.022,3.75427,9.44519,1.172,12.1163,1098,0,
215.022,3.75397,9.44672,1.172,12.1163,1098,0,
215.022,3.75519,9.44367,1.172,12.1163,1098,0,
215.022,3.75458,9.44824,1.172,12.1163,1098,0,
215.022,3.75488,9.44519,1.172,12.1163,1098,0,
215.022,3.75122,9.44977,1.172,12.1163,1098,0,
215.022,3.75,9.44977,1.172,12.1163,1098,0,
215.022,3.75,9.44672,1.172,12.1163,1098,0,
215.022,3.74908,9.44824,1.172,12.1163,1098,0,
215.022,3.74969,9.44672,1.172,12.1163,1098,0,
215.022,3.74969,9.44672,1.172,12.1163,1098,0,
215.022,3.74969,9.44519,1.172,12.1163,1098,0,
215.022,3.74634,9.44519,1.172,12.1163,1098,0,
215.022,3.74512,9.44367,1.172,12.1163,1098,0,
215.022,3.74512,9.44519,1.172,12.1163,1098,0,
215.022,3.74451,9.44672,1.172,12.1163,1098,0,
215.022,3.74512,9.44519,1.172,12.1163,1098,0,
215.022,3.74512,9.45892,1.172,12.1163,1098,0,
215.022,3.74512,9.45892,1.172,12.1163,1098,0,
215.022,3.74481,9.45587,1.172,12.1163,1098,0,
215.022,3.74023,9.45435,1.172,12.1163,1098,0,
215.022,3.73993,9.45587,1.172,12.1163,1098,0,
215.022,3.74023,9.45892,1.172,12.1163,1098,0,
215.022,3.73993,9.45892,1.172,12.1163,1098,0,
215.022,3.73932,9.45587,1.172,12.1163,1098,0,
215.022,3.73962,9.45435,1.172,12.1163,1098,0,
215.023,3.74023,9.45892,1.172,12.1163,1098,0,
215.023,3.73718,9.4574,1.172,12.1163,1098,0,
215.023,3.73474,9.45587,1.172,12.1163,1098,0,
215.023,3.73474,9.4574,1.172,12.1163,1098,0,
215.023,3.73566,9.46045,1.172,12.1163,1098,0,
215.023,3.73444,9.45587,1.172,12.1163,1098,0,
215.023,3.73474,9.45892,1.172,12.1163,1098,0,
215.023,3.73505,9.45892,1.172,12.1163,1098,0,
215.023,3.73505,9.45892,1.172,12.1163,1098,0,
215.023,3.73505,9.46045,1.172,12.1163,1098,0,
215.023,3.73047,9.46198,1.172,12.1163,1098,0,
215.023,3.73016,9.45892,1.172,12.1163,1098,0,
215.023,3.73047,9.4574,1.172,12.1163,1098,0,
215.023,3.72955,9.45435,1.172,12.1163,1098,0,
215.023,3.73077,9.45892,1.172,12.1163,1098,0,
215.023,3.73047,9.4574,1.172,12.1163,1098,0,
215.023,3.73016,9.4574,1.172,12.1163,1098,0,
215.023,3.72955,9.4574,1.172,12.1163,1098,0,
215.023,3.73047,9.45892,1.172,12.1163,1098,0,
215.023,3.72711,9.45892,1.172,12.1163,1098,0,
215.023,3.72498,9.45892,1.172,12.1163,1098,0,
215.023,3.72589,9.45892,1.172,12.1163,1098,0,
215.023,3.72498,9.45587,1.172,12.1163,1098,0,
215.023,3.72498,9.45892,1.172,12.1163,1098,0,
215.023,3.72559,9.4574,1.172,12.1163,1098,0,
215.023,3.72467,9.4574,1.172,12.1163,1098,0,
215.023,3.72467,9.45892,1.172,12.1163,1098,0,
215.023,3.72498,9.46045,1.172,12.1163,1098,0,
215.023,3.72528,9.45435,1.172,12.1163,1098,0,
215.023,3.72498,9.45587,1.172,12.1163,1098,0,
215.024,3.72467,9.45892,1.172,12.1163,1098,0,
215.024,3.72528,9.45892,1.172,12.1163,1098,0,
215.024,3.72498,9.45892,1.172,12.1163,1098,0,
215.024,3.72437,9.47266,1.172,12.1163,1098,0,
215.024,3.72009,9.47113,1.172,12.1163,1098,0,
215.024,3.7207,9.46961,1.172,12.1163,1098,0,
215.024,3.7207,9.46808,1.172,12.1163,1098,0,
215.024,3.71979,9.47418,1.172,12.1163,1098,0,
215.024,3.72101,9.46961,1.172,12.1163,1098,0,
215.024,3.71948,9.47113,1.172,12.1163,1098,0,
215.024,3.7207,9.47418,1.172,12.1163,1098,0,
215.024,3.72009,9.46961,1.172,12.1163,1098,0,
215.024,3.7207,9.47113,1.172,12.1163,1098,0,
215.024,3.7207,9.47266,1.172,12.1163,1098,0,
215.024,3.7207,9.46808,1.172,12.1163,1098,0,
215.024,3.71979,9.46961,1.172,12.1163,1098,0,
215.024,3.71918,9.47266,1.172,12.1163,1098,0,
215.024,3.7204,9.47113,1.172,12.1163,1098,0,
215.024,3.72009,9.46961,1.172,12.1163,1098,0,
215.024,3.72009,9.47418,1.172,12.1163,1098,0,
215.024,3.72009,9.47418,1.172,12.1163,1098,0,
215.024,3.7204,9.47266,1.172,12.1163,1098,0,
215.024,3.7204,9.46961,1.172,12.1163,1098,0,
215.024,3.71979,9.46961,1.172,12.1163,1098,0,
215.024,3.72009,9.47266,1.172,12.1163,1098,0,
215.024,3.71979,9.47266,1.172,12.1163,1098,0,
215.024,3.7204,9.47113,1.172,12.1163,1098,0,
215.024,3.72009,9.46961,1.172,12.1163,1098,0,
215.024,3.72009,9.46961,1.172,12.1163,1098,0,
215.024,3.72009,9.46961,1.172,12.1163,1098,0,
215.024,3.72009,9.47113,1.172,12.1163,1098,0,
215.025,3.72009,9.46961,1.172,12.1163,1098,0,
215.025,3.72009,9.46961,1.172,12.1163,1098,0,
215.025,3.71979,9.46961,1.172,12.1163,1098,0,
215.025,3.71918,9.47266,1.172,12.1163,1098,0,
215.025,3.7207,9.47266,1.172,12.1163,1098,0,
215.025,3.72009,9.46961,1.172,12.1163,1098,0,
215.025,3.72009,9.46808,1.172,12.1163,1098,0,
215.025,3.72101,9.47266,1.172,12.1163,1098,0,
215.025,3.72009,9.47113,1.172,12.1163,1098,0,
215.025,3.71948,9.47266,1.172,12.1163,1098,0,
215.025,3.71979,9.47113,1.172,12.1163,1098,0,
215.025,3.7204,9.46961,1.172,12.1163,1098,0,
215.025,3.7207,9.46961,1.172,12.1163,1098,0,
215.025,3.72498,9.47113,1.172,12.1163,1098,0,
215.025,3.72528,9.47266,1.172,12.1163,1098,0,
215.025,3.72528,9.46808,1.172,12.1163,1098,0,
215.025,3.72498,9.48334,1.172,12.1163,1098,0,
215.025,3.72498,9.48334,1.172,12.1163,1098,0,
215.025,3.72498,9.48334,1.172,12.1163,1098,0,
215.025,3.72528,9.48334,1.172,12.1163,1098,0,
215.025,3.72498,9.48181,1.172,12.1163,1098,0,
215.025,3.72498,9.48334,1.172,12.1163,1098,0,
215.025,3.72498,9.48181,1.172,12.1163,1098,0,
215.025,3.72559,9.48486,1.172,12.1163,1098,0,
215.025,3.72437,9.48334,1.172,12.1163,1098,0,
215.025,3.72559,9.48486,1.172,12.1163,1098,0,
215.025,3.72528,9.47876,1.172,12.1163,1098,0,
215.025,3.72467,9.48181,1.172,12.1163,1098,0,
215.025,3.72498,9.48181,1.172,12.1163,1098,0,
215.025,3.72467,9.48639,1.172,12.1163,1098,0,
215.026,3.72589,9.48029,1.172,12.1163,1098,0,
215.026,3.72528,9.48334,1.172,12.1163,1098,0,
215.026,3.73047,9.48181,1.172,12.1163,1098,0,
215.026,3.72925,9.48181,1.172,12.1163,1098,0,
215.026,3.73016,9.48181,1.172,12.1163,1098,0,
215.026,3.73016,9.48334,1.172,12.1163,1098,0,
215.026,3.73016,9.48334,1.172,12.1163,1098,0,
215.026,3.72986,9.48029,1.172,12.1163,1098,0,
215.026,3.73016,9.48181,1.172,12.1163,1098,0,
215.026,3.72955,9.48334,1.172,12.1163,1098,0,
215.026,3.72986,9.48334,1.172,12.1163,1098,0,
215.026,3.73047,9.48486,1.172,12.1163,1098,0,
215.026,3.73016,9.48334,1.172,12.1163,1098,0,
215.026,3.72925,9.48029,1.172,12.1163,1098,0,
215.026,3.73077,9.48486,1.172,12.1163,1098,0,
215.026,3.73474,9.48181,1.172,12.1163,1098,0,
215.026,3.73474,9.48181,1.172,12.1163,1098,0,
215.026,3.73474,9.48181,1.172,12.1163,1098,0,
215.026,3.73413,9.48181,1.172,12.1163,1098,0,
215.026,3.73474,9.48334,1.172,12.1163,1098,0,
215.026,3.73474,9.48029,1.172,12.1163,1098,0,
215.026,3.73505,9.48639,1.172,12.1163,1098,0,
215.026,3.73505,9.48334,1.172,12.1163,1098,0,
215.026,3.73444,9.48181,1.172,12.1163,1098,0,
215.026,3.73535,9.48181,1.172,12.1163,1098,0,
215.026,3.73871,9.48181,1.172,12.1163,1098,0,
215.026,3.73932,9.47723,1.172,12.1163,1098,0,
215.026,3.73962,9.48029,1.172,12.1163,1098,0,
215.026,3.73932,9.48334,1.172,12.1163,1098,0,
215.026,3.74023,9.48639,1.172,12.1163,1098,0,
215.027,3.73962,9.48334,1.172,12.1163,1098,0,
215.027,3.73962,9.48334,1.172,12.1163,1098,0,
215.027,3.74023,9.48181,1.172,12.1163,1098,0,
215.027,3.73962,9.48334,1.172,12.1163,1098,0,
215.027,3.74054,9.48334,1.172,12.1163,1098,0,
215.027,3.74451,9.48639,1.172,12.1163,1098,0,
215.027,3.7442,9.48029,1.172,12.1163,1098,0,
215.027,3.74512,9.48181,1.172,12.1163,1098,0,
215.027,3.74481,9.48181,1.172,12.1163,1098,0,
215.027,3.74512,9.48334,1.172,12.1163,1098,0,
215.027,3.7442,9.49402,1.172,12.1163,1098,0,
215.027,3.74512,9.49097,1.172,12.1163,1098,0,
215.027,3.74451,9.49402,1.172,12.1163,1098,0,
215.027,3.74939,9.49555,1.172,12.1163,1098,0,
215.027,3.74969,9.49402,1.172,12.1163,1098,0,
215.027,3.74939,9.49555,1.172,12.1163,1098,0,
215.027,3.74939,9.49249,1.172,12.1163,1098,0,
215.027,3.74878,9.49555,1.172,12.1163,1098,0,
215.027,3.74939,9.49402,1.172,12.1163,1098,0,
215.027,3.74908,9.49555,1.172,12.1163,1098,0,
215.027,3.74969,9.49555,1.172,12.1163,1098,0,
215.027,3.75214,9.49707,1.172,12.1163,1098,0,
215.027,3.75458,9.49402,1.172,12.1163,1098,0,
215.027,3.75427,9.4986,1.172,12.1163,1098,0,
215.027,3.75458,9.49555,1.172,12.1163,1098,0,
215.027,3.75488,9.49555,1.172,12.1163,1098,0,
215.027,3.75488,9.49249,1.172,12.1163,1098,0,
215.027,3.75488,9.48944,1.172,12.1163,1098,0,
215.027,3.75458,9.49555,1.172,12.1163,1098,0,
215.028,3.75977,9.49707,1.172,12.1163,1098,0,
215.028,3.75977,9.49555,1.172,12.1163,1098,0,
215.028,3.75977,9.49707,1.172,12.1163,1098,0,
215.028,3.75946,9.49555,1.172,12.1163,1098,0,
215.028,3.75916,9.49402,1.172,12.1163,1098,0,
215.028,3.75977,9.4986,1.172,12.1163,1098,0,
215.028,3.76007,9.49402,1.172,12.1163,1098,0,
215.028,3.76251,9.49249,1.172,12.1163,1098,0,
215.028,3.76434,9.49555,1.172,12.1163,1098,0,
215.028,3.76495,9.49402,1.172,12.1163,1098,0,
215.028,3.76434,9.49402,1.172,12.1163,1098,0,
215.028,3.76373,9.49402,1.172,12.1163,1098,0,
215.028,3.76434,9.49707,1.172,12.1163,1098,0,
215.028,3.76404,9.49249,1.172,12.1163,1098,0,
215.028,3.76678,9.49707,1.172,12.1163,1098,0,
215.028,3.76862,9.49249,1.172,12.1163,1098,0,
215.028,3.76801,9.49097,1.172,12.1163,1098,0,
215.028,3.76953,9.49555,1.172,12.1163,1098,0,
215.028,3.76892,9.49402,1.172,12.1163,1098,0,
215.028,3.76862,9.49249,1.172,12.1163,1098,0,
215.028,3.76862,9.49707,1.172,12.1163,1098,0,
215.028,3.77136,9.49707,1.172,12.1163,1098,0,
215.028,3.77258,9.49402,1.172,12.1163,1098,0,
215.028,3.7735,9.49555,1.172,12.1163,1098,0,
215.028,3.77319,9.49707,1.172,12.1163,1098,0,
215.028,3.7735,9.49249,1.172,12.1163,1098,0,
215.028,3.7735,9.49402,1.172,12.1163,1098,0,
215.028,3.7735,9.49707,1.172,12.1163,1098,0,
215.028,3.77747,9.49707,1.172,12.1163,1098,0,
215.028,3.7793,9.49402,1.172,12.1163,1098,0,
215.029,3.77899,9.49707,1.172,12.1163,1098,0,
215.029,3.77838,9.49555,1.172,12.1163,1098,0,
215.029,3.77869,9.49707,1.172,12.1163,1098,0,
215.029,3.7796,9.49707,1.172,12.1163,1098,0,
215.029,3.77808,9.49555,1.172,12.1163,1098,0,
215.029,3.78326,9.49249,1.172,12.1163,1098,0,
215.029,3.78418,9.49402,1.172,12.1163,1098,0,
215.029,3.78296,9.49402,1.172,12.1163,1098,0,
215.029,3.78326,9.49249,1.172,12.1163,1098,0,
215.029,3.78387,9.49402,1.172,12.1163,1098,0,
215.029,3.78387,9.49402,1.172,12.1163,1098,0,
215.029,3.78632,9.49402,1.172,12.1163,1098,0,
215.029,3.78723,9.49249,1.172,12.1163,1098,0,
215.029,3.78815,9.49707,1.172,12.1163,1098,0,
215.029,3.78906,9.49555,1.172,12.1163,1098,0,
215.029,3.78845,9.49707,1.172,12.1163,1098,0,
215.029,3.78876,9.49402,1.172,12.1163,1098,0,
215.029,3.79211,9.49402,1.172,12.1163,1098,0,
215.029,3.79333,9.49249,1.172,12.1163,1098,0,
215.029,3.79395,9.49402,1.172,12.1163,1098,0,
215.029,3.79333,9.49707,1.172,12.1163,1098,0,
215.029,3.79425,9.49402,1.172,12.1163,1098,0,
215.029,3.79395,9.49402,1.172,12.1163,1098,0,
215.029,3.79333,9.49555,1.172,12.1163,1098,0,
215.029,3.79791,9.49707,1.172,12.1163,1098,0,
215.029,3.79822,9.49707,1.172,12.1163,1098,0,
215.029,3.79791,9.49402,1.172,12.1163,1098,0,
215.029,3.79883,9.49555,1.172,12.1163,1098,0,
215.029,3.79822,9.49555,1.172,12.1163,1098,0,
215.029,3.79883,9.49555,1.172,12.1163,1098,0,
215.03,3.8028,9.49707,1.172,12.1163,1098,0,
215.03,3.8028,9.49707,1.172,12.1163,1098,0,
215.03,3.80341,9.50623,1.172,12.1163,1098,0,
215.03,3.8031,9.5047,1.172,12.1163,1098,0,
215.03,3.8031,9.50775,1.172,12.1163,1098,0,
215.03,3.80371,9.50623,1.172,12.1163,1098,0,
215.03,3.80859,9.5047,1.172,12.1163,1098,0,
215.03,3.80798,9.5108,1.172,12.1163,1098,0,
215.03,3.80768,9.50623,1.172,12.1163,1098,0,
215.03,3.80798,9.5047,1.172,12.1163,1098,0,
215.03,3.80859,9.50775,1.172,12.1163,1098,0,
215.03,3.80768,9.50623,1.172,12.1163,1098,0,
215.03,3.81287,9.50928,1.172,12.1163,1098,0,
215.03,3.81287,9.50317,1.172,12.1163,1098,0,
215.03,3.81317,9.5047,1.172,12.1163,1098,0,
215.03,3.81317,9.50623,1.172,12.1163,1098,0,
215.03,3.81287,9.50775,1.172,12.1163,1098,0,
215.03,3.81348,9.50623,1.172,12.1163,1098,0,
215.03,3.81836,9.50623,1.172,12.1163,1098,0,
215.03,3.81714,9.50775,1.172,12.1163,1098,0,
215.03,3.81775,9.50623,1.172,12.1163,1098,0,
215.03,3.81744,9.50623,1.172,12.1163,1098,0,
215.03,3.81805,9.50623,1.172,12.1163,1098,0,
215.03,3.81775,9.50623,1.172,12.1163,1098,0,
215.03,3.82294,9.5108,1.172,12.1163,1098,0,
215.03,3.82294,9.50623,1.172,12.1163,1098,0,
215.03,3.82263,9.50623,1.172,12.1163,1098,0,
215.03,3.82324,9.50623,1.172,12.1163,1098,0,
215.03,3.82324,9.50928,1.172,12.1163,1098,0,
215.03,3.82263,9.5108,1.172,12.1163,1098,0,
215.03,3.82568,9.50775,1.172,12.1163,1098,0,
215.031,3.82843,9.50623,1.172,12.1163,1098,0,
215.031,3.82812,9.50775,1.172,12.1163,1098,0,
215.031,3.82904,9.50775,1.172,12.1163,1098,0,
215.031,3.82843,9.5108,1.172,12.1163,1098,0,
215.031,3.82751,9.50012,1.172,12.1163,1098,0,
215.031,3.82751,9.50623,1.172,12.1163,1098,0,
215.031,3.8327,9.50775,1.172,12.1163,1098,0,
215.031,3.8327,9.50775,1.172,12.1163,1098,0,
215.031,3.83301,9.50623,1.172,12.1163,1098,0,
215.031,3.8324,9.50775,1.172,12.1163,1098,0,
215.031,3.8327,9.50623,1.172,12.1163,1098,0,
215.031,3.83301,9.50928,1.172,12.1163,1098,0,
215.031,3.83575,9.50623,1.172,12.1163,1098,0,
215.031,3.83759,9.5047,1.172,12.1163,1098,0,
215.031,3.83789,9.50623,1.172,12.1163,1098,0,
215.031,3.83728,9.5047,1.172,12.1163,1098,0,
215.031,3.83728,9.50317,1.172,12.1163,1098,0,
215.031,3.8382,9.5047,1.172,12.1163,1098,0,
215.031,3.83728,9.50775,1.172,12.1163,1098,0,
215.031,3.84064,9.5108,1.172,12.1163,1098,0,
215.031,3.84186,9.5108,1.172,12.1163,1098,0,
215.031,3.84277,9.50623,1.172,12.1163,1098,0,
215.031,3.84247,9.50775,1.172,12.1163,1098,0,
215.031,3.84247,9.50165,1.172,12.1163,1098,0,
215.031,3.84308,9.5108,1.172,12.1163,1098,0,
215.031,3.84308,9.50775,1.172,12.1163,1098,0,
215.031,3.84277,9.50775,1.172,12.1163,1098,0,
215.031,3.84796,9.50775,1.172,12.1163,1098,0,
215.031,3.84766,9.5108,1.172,12.1163,1098,0,
215.031,3.84827,9.50317,1.172,12.1163,1098,0,
215.032,3.84766,9.50775,1.172,12.1163,1098,0,
215.032,3.84735,9.50623,1.172,12.1163,1098,0,
215.032,3.84766,9.50775,1.172,12.1163,1098,0,
215.032,3.84705,9.5047,1.172,12.1163,1098,0,
215.032,3.8501,9.5108,1.172,12.1163,1098,0,
215.032,3.85284,9.5047,1.172,12.1163,1099,0,
215.032,3.85193,9.5047,1.172,12.1163,1099,0,
215.032,3.85254,9.5047,1.172,12.1163,1099,0,
215.032,3.85223,9.50775,1.172,12.1163,1099,0,
215.032,3.85254,9.50775,1.172,12.1163,1099,0,
215.032,3.85284,9.50623,1.172,12.1163,1099,0,
215.032,3.85223,9.50775,1.172,12.1163,1099,0,
215.032,3.85529,9.50623,1.172,12.1163,1099,0,
215.032,3.85742,9.50928,1.172,12.1163,1099,0,
215.032,3.85773,9.50775,1.172,12.1163,1099,0,
215.032,3.85742,9.50317,1.172,12.1163,1099,0,
215.032,3.85773,9.50775,1.172,12.1163,1099,0,
215.032,3.85681,9.5047,1.172,12.1163,1099,0,
215.032,3.85773,9.50623,1.172,12.1163,1099,0,
215.032,3.85742,9.50623,1.172,12.1163,1099,0,
215.032,3.85742,9.5047,1.172,12.1163,1099,0,
215.032,3.862,9.5108,1.172,12.1163,1099,0,
215.032,3.86261,9.50623,1.172,12.1163,1099,0,
215.032,3.86261,9.50317,1.172,12.1163,1099,0,
215.032,3.8623,9.50623,1.172,12.1163,1099,0,
215.032,3.86169,9.50775,1.172,12.1163,1099,0,
215.032,3.8623,9.51996,1.172,12.1163,1099,0,
215.032,3.8623,9.51843,1.172,12.1163,1099,0,
215.032,3.862,9.52149,1.172,12.1163,1099,0,
215.032,3.862,9.51996,1.172,12.1163,1099,0,
215.033,3.86261,9.51843,1.172,12.1163,1099,0,
215.033,3.86719,9.51843,1.172,12.1163,1099,0,
215.033,3.86627,9.51996,1.172,12.1163,1099,0,
215.033,3.86749,9.51996,1.172,12.1163,1099,0,
215.033,3.86658,9.51996,1.172,12.1163,1099,0,
215.033,3.86658,9.51843,1.172,12.1163,1099,0,
215.033,3.86719,9.52301,1.172,12.1163,1099,0,
215.033,3.8678,9.51691,1.172,12.1163,1099,0,
215.033,3.86719,9.51996,1.172,12.1163,1099,0,
215.033,3.86627,9.51996,1.172,12.1163,1099,0,
215.033,3.86749,9.51691,1.172,12.1163,1099,0,
215.033,3.87146,9.51996,1.172,12.1163,1099,0,
215.033,3.87207,9.51843,1.172,12.1163,1099,0,
215.033,3.87207,9.52149,1.172,12.1163,1099,0,
215.033,3.87238,9.51996,1.172,12.1163,1099,0,
215.033,3.87177,9.52149,1.172,12.1163,1099,0,
215.033,3.87207,9.51691,1.172,12.1163,1099,0,
215.033,3.87207,9.51996,1.172,12.1163,1099,0,
215.033,3.87146,9.51996,1.172,12.1163,1099,0,
215.033,3.87115,9.51843,1.172,12.1163,1099,0,
215.033,3.87177,9.51843,1.172,12.1163,1099,0,
215.033,3.87207,9.51843,1.172,12.1163,1099,0,
215.033,3.87238,9.51996,1.172,12.1163,1099,0,
215.033,3.87695,9.51996,1.172,12.1163,1099,0,
215.033,3.87695,9.51691,1.172,12.1163,1099,0,
215.033,3.87695,9.51996,1.172,12.1163,1099,0,
215.033,3.87726,9.52149,1.172,12.1163,1099,0,
215.033,3.87665,9.51996,1.172,12.1163,1099,0,
215.033,3.87695,9.51843,1.172,12.1163,1099,0,
215.034,3.87634,9.51843,1.172,12.1163,1099,0,
215.034,3.87695,9.51843,1.172,12.1163,1099,0,
215.034,3.87634,9.51843,1.172,12.1163,1099,0,
215.034,3.87695,9.51538,1.172,12.1163,1099,0,
215.034,3.87695,9.51996,1.172,12.1163,1099,0,
215.034,3.87695,9.51386,1.172,12.1163,1099,0,
215.034,3.87695,9.51996,1.172,12.1163,1099,0,
215.034,3.88153,9.51843,1.172,12.1163,1099,0,
215.034,3.88214,9.51843,1.172,12.1163,1099,0,
215.034,3.88184,9.51691,1.172,12.1163,1099,0,
215.034,3.88214,9.52301,1.172,12.1163,1099,0,
215.034,3.88214,9.51843,1.172,12.1163,1099,0,
215.034,3.88184,9.51843,1.172,12.1163,1099,0,
215.034,3.88153,9.52301,1.172,12.1163,1099,0,
215.034,3.88153,9.51996,1.172,12.1163,1099,0,
215.034,3.88184,9.51843,1.172,12.1163,1099,0,
215.034,3.88123,9.51843,1.172,12.1163,1099,0,
215.034,3.88184,9.51843,1.172,12.1163,1099,0,
215.034,3.88092,9.51843,1.172,12.1163,1099,0,
215.034,3.88184,9.51843,1.172,12.1163,1099,0,
215.034,3.88123,9.51996,1.172,12.1163,1099,0,
215.034,3.88123,9.51843,1.172,12.1163,1099,0,
215.034,3.88611,9.52149,1.172,12.1163,1099,0,
215.034,3.88672,9.51691,1.172,12.1163,1099,0,
215.034,3.88672,9.52149,1.172,12.1163,1099,0,
215.034,3.88672,9.51996,1.172,12.1163,1099,0,
215.034,3.88672,9.51691,1.172,12.1163,1099,0,
215.034,3.88702,9.52149,1.172,12.1163,1099,0,
215.034,3.88763,9.51843,1.172,12.1163,1099,0,
215.034,3.88702,9.51843,1.172,12.1163,1099,0,
215.035,3.88702,9.51538,1.172,12.1163,1099,0,
215.035,3.88672,9.52149,1.172,12.1163,1099,0,
215.035,3.88702,9.51691,1.172,12.1163,1099,0,
215.035,3.88702,9.51843,1.172,12.1163,1099,0,
215.035,3.88733,9.51996,1.172,12.1163,1099,0,
215.035,3.88611,9.51996,1.172,12.1163,1099,0,
215.035,3.88702,9.52301,1.172,12.1163,1099,0,
215.035,3.88702,9.51843,1.172,12.1163,1099,0,
215.035,3.88702,9.52149,1.172,12.1163,1099,0,
215.035,3.89099,9.51691,1.172,12.1163,1099,0,
215.035,3.89099,9.51996,1.172,12.1163,1099,0,
215.035,3.89191,9.51996,1.172,12.1163,1099,0,
215.035,3.8913,9.51843,1.172,12.1163,1099,0,
215.035,3.8913,9.51996,1.172,12.1163,1099,0,
215.035,3.8916,9.51843,1.172,12.1163,1099,0,
215.035,3.89099,9.51691,1.172,12.1163,1099,0,
215.035,3.8916,9.51843,1.172,12.1163,1099,0,
215.035,3.8916,9.51691,1.172,12.1163,1099,0,
215.035,3.8916,9.51691,1.172,12.1163,1099,0,
215.035,3.8913,9.51843,1.172,12.1163,1099,0,
215.035,3.8913,9.51843,1.172,12.1163,1099,0,
215.035,3.8916,9.51843,1.172,12.1163,1099,0,
215.035,3.8913,9.51691,1.172,12.1163,1099,0,
215.035,3.89252,9.51843,1.172,12.1163,1099,0,
215.035,3.8916,9.51996,1.172,12.1163,1099,0,
215.035,3.8916,9.51996,1.172,12.1163,1099,0,
215.035,3.8916,9.52149,1.172,12.1163,1099,0,
215.035,3.89099,9.51843,1.172,12.1163,1099,0,
215.035,3.8916,9.51843,1.172,12.1163,1099,0,
215.035,3.8916,9.51843,1.172,12.1163,1099,0,
215.036,3.8916,9.52149,1.172,12.1163,1099,0,
215.036,3.8916,9.51843,1.172,12.1163,1099,0,
215.036,3.8916,9.51996,1.172,12.1163,1099,0,
215.036,3.8913,9.51843,1.172,12.1163,1099,0,
215.036,3.89099,9.52149,1.172,12.1163,1099,0,
215.036,3.8916,9.51691,1.172,12.1163,1099,0,
215.036,3.8916,9.51691,1.172,12.1163,1099,0,
215.036,3.89191,9.52301,1.172,12.1163,1099,0,
215.036,3.8913,9.51843,1.172,12.1163,1099,0,
215.036,3.89099,9.52149,1.172,12.1163,1099,0,
215.036,3.89221,9.52149,1.172,12.1163,1099,0,
215.036,3.8913,9.51843,1.172,12.1163,1099,0,
215.036,3.89221,9.52149,1.172,12.1163,1099,0,
215.036,3.8916,9.51843,1.172,12.1163,1099,0,
215.036,3.89099,9.52301,1.172,12.1163,1099,0,
215.036,3.89191,9.52454,1.172,12.1163,1099,0,
215.036,3.8913,9.51691,1.172,12.1163,1099,0,
215.036,3.8916,9.51996,1.172,12.1163,1099,0,
215.036,3.89221,9.51996,1.172,12.1163,1099,0,
215.036,3.89191,9.51843,1.172,12.1163,1099,0,
215.036,3.8916,9.51843,1.172,12.1163,1099,0,
215.036,3.8916,9.51691,1.172,12.1163,1099,0,
215.036,3.8916,9.51538,1.172,12.1163,1099,0,
215.036,3.8916,9.52149,1.172,12.1163,1099,0,
215.036,3.89191,9.51843,1.172,12.1163,1099,0,
215.036,3.8913,9.51843,1.172,12.1163,1099,0,
215.036,3.8913,9.51996,1.172,12.1163,1099,0,
215.036,3.8916,9.51691,1.172,12.1163,1099,0,
215.036,3.8916,9.52149,1.172,12.1163,1099,0,
215.036,3.8916,9.51843,1.172,12.1163,1099,0,
215.036,3.89221,9.53064,1.172,12.1163,1099,0,
215.037,3.8916,9.52911,1.172,12.1163,1099,0,
215.037,3.89099,9.53217,1.172,12.1163,1099,0,
215.037,3.89191,9.53064,1.172,12.1163,1099,0,
215.037,3.8916,9.52911,1.172,12.1163,1099,0,
215.037,3.89252,9.53217,1.172,12.1163,1099,0,
215.037,3.8916,9.53522,1.172,12.1163,1099,0,
215.037,3.89221,9.52911,1.172,12.1163,1099,0,
215.037,3.8916,9.53064,1.172,12.1163,1099,0,
215.037,3.8913,9.52759,1.172,12.1163,1099,0,
215.037,3.8916,9.53064,1.172,12.1163,1099,0,
215.037,3.89191,9.53064,1.172,12.1163,1099,0,
215.037,3.8916,9.53217,1.172,12.1163,1099,0,
215.037,3.89191,9.53064,1.172,12.1163,1099,0,
215.037,3.8916,9.52911,1.172,12.1163,1099,0,
215.037,3.8916,9.52911,1.172,12.1163,1099,0,
215.037,3.8916,9.53217,1.172,12.1163,1099,0,
215.037,3.8916,9.53064,1.172,12.1163,1099,0,
215.037,3.89191,9.53217,1.172,12.1163,1099,0,
215.037,3.89191,9.53369,1.172,12.1163,1099,0,
215.037,3.8913,9.53064,1.172,12.1163,1099,0,
215.037,3.8916,9.53064,1.172,12.1163,1099,0,
215.037,3.89221,9.52759,1.172,12.1163,1099,0,
215.037,3.8916,9.53522,1.172,12.1163,1099,0,
215.037,3.8916,9.53064,1.172,12.1163,1099,0,
215.037,3.8916,9.52911,1.172,12.1163,1099,0,
215.037,3.8916,9.52911,1.172,12.1163,1099,0,
215.037,3.88611,9.53217,1.376,12.1163,1099,0,
215.037,3.88672,9.53217,1.376,12.1163,1099,0,
215.037,3.88672,9.53064,1.376,12.1163,1099,0,
215.037,3.8858,9.53064,1.376,12.1163,1099,0,
215.038,3.88733,9.53217,1.376,12.1163,1099,0,
215.038,3.88672,9.52911,1.376,12.1163,1099,0,
215.038,3.88702,9.53064,1.376,12.1163,1099,0,
215.038,3.88672,9.53064,1.376,12.1163,1099,0,
215.038,3.88702,9.53369,1.376,12.1163,1099,0,
215.038,3.88672,9.52911,1.376,12.1163,1099,0,
215.038,3.88641,9.53064,1.376,12.1163,1099,0,
215.038,3.88672,9.53369,1.376,12.1163,1099,0,
215.038,3.88672,9.53369,1.376,12.1163,1099,0,
215.038,3.88672,9.52911,1.376,12.1163,1099,0,
215.038,3.88672,9.53217,1.376,12.1163,1099,0,
215.038,3.88702,9.53217,1.376,12.1163,1099,0,
215.038,3.88611,9.53522,1.376,12.1163,1099,0,
215.038,3.88336,9.53217,1.376,12.1163,1099,0,
215.038,3.88275,9.53369,1.376,12.1163,1099,0,
215.038,3.88245,9.52911,1.376,12.1163,1099,0,
215.038,3.88184,9.53064,1.376,12.1163,1099,0,
215.038,3.88214,9.53217,1.376,12.1163,1099,0,
215.038,3.88214,9.52911,1.376,12.1163,1099,0,
215.038,3.88214,9.52911,1.376,12.1163,1099,0,
215.038,3.88245,9.53064,1.376,12.1163,1099,0,
215.038,3.88214,9.52759,1.376,12.1163,1099,0,
215.038,3.88184,9.53369,1.376,12.1163,1099,0,
215.038,3.88153,9.53064,1.376,12.1163,1099,0,
215.038,3.88184,9.53064,1.376,12.1163,1099,0,
215.038,3.88214,9.53217,1.376,12.1163,1099,0,
215.038,3.88153,9.53217,1.376,12.1163,1099,0,
215.038,3.88245,9.52911,1.376,12.1163,1099,0,
215.038,3.88245,9.52911,1.376,12.1163,1099,0,
215.038,3.87787,9.53217,1.376,12.1163,1099,0,
215.039,3.87787,9.52911,1.376,12.1163,1099,0,
215.039,3.87726,9.53064,1.376,12.1163,1099,0,
215.039,3.87695,9.53064,1.376,12.1163,1099,0,
215.039,3.87695,9.52911,1.376,12.1163,1099,0,
215.039,3.87756,9.53064,1.376,12.1163,1099,0,
215.039,3.87726,9.52911,1.376,12.1163,1099,0,
215.039,3.87726,9.53674,1.376,12.1163,1099,0,
215.039,3.87695,9.53217,1.376,12.1163,1099,0,
215.039,3.87726,9.52759,1.376,12.1163,1099,0,
215.039,3.87695,9.52759,1.376,12.1163,1099,0,
215.039,3.87634,9.53064,1.376,12.1163,1099,0,
215.039,3.87756,9.53064,1.376,12.1163,1099,0,
215.039,3.87756,9.53064,1.376,12.1163,1099,0,
215.039,3.87115,9.53369,1.376,12.1163,1099,0,
215.039,3.87238,9.53217,1.376,12.1163,1099,0,
215.039,3.87146,9.53217,1.376,12.1163,1099,0,
215.039,3.87115,9.53827,1.376,12.1163,1099,0,
215.039,3.87238,9.54743,1.376,12.1163,1099,0,
215.039,3.87238,9.54285,1.376,12.1163,1099,0,
215.039,3.87207,9.5459,1.376,12.1163,1099,0,
215.039,3.87238,9.5459,1.376,12.1163,1099,0,
215.039,3.87177,9.54437,1.376,12.1163,1099,0,
215.039,3.87177,9.54437,1.376,12.1163,1099,0,
215.039,3.87238,9.54285,1.376,12.1163,1099,0,
215.039,3.87177,9.5398,1.376,12.1163,1099,0,
215.039,3.86871,9.54437,1.376,12.1163,1099,0,
215.039,3.86719,9.54437,1.376,12.1163,1099,0,
215.039,3.86688,9.54437,1.376,12.1163,1099,0,
215.039,3.86658,9.54132,1.376,12.1163,1099,0,
215.04,3.8681,9.54132,1.376,12.1163,1099,0,
215.04,3.86688,9.54132,1.376,12.1163,1099,0,
215.04,3.86749,9.5459,1.376,12.1163,1099,0,
215.04,3.86719,9.54437,1.376,12.1163,1099,0,
215.04,3.86719,9.54437,1.376,12.1163,1099,0,
215.04,3.86688,9.5459,1.376,12.1163,1099,0,
215.04,3.86749,9.54437,1.376,12.1163,1099,0,
215.04,3.8623,9.54285,1.376,12.1163,1099,0,
215.04,3.8623,9.54743,1.376,12.1163,1099,0,
215.04,3.8623,9.54285,1.376,12.1163,1099,0,
215.04,3.86139,9.54132,1.376,12.1163,1099,0,
215.04,3.86169,9.5459,1.376,12.1163,1099,0,
215.04,3.862,9.54437,1.376,12.1163,1099,0,
215.04,3.8623,9.5398,1.376,12.1163,1099,0,
215.04,3.8623,9.54285,1.376,12.1163,1099,0,
215.04,3.8623,9.5459,1.376,12.1163,1099,0,
215.04,3.85651,9.54437,1.376,12.1163,1099,0,
215.04,3.85742,9.54132,1.376,12.1163,1099,0,
215.04,3.85773,9.5459,1.376,12.1163,1099,0,
215.04,3.85742,9.54285,1.376,12.1163,1099,0,
215.04,3.85712,9.5459,1.376,12.1163,1099,0,
215.04,3.85712,9.54285,1.376,12.1163,1099,0,
215.04,3.85742,9.54437,1.376,12.1163,1099,0,
215.04,3.85742,9.54437,1.376,12.1163,1099,0,
215.04,3.85254,9.54132,1.376,12.1163,1099,0,
215.04,3.85223,9.5459,1.376,12.1163,1099,0,
215.04,3.85132,9.54437,1.376,12.1163,1099,0,
215.04,3.85254,9.54437,1.376,12.1163,1099,0,
215.04,3.85254,9.54743,1.376,12.1163,1099,0,
215.04,3.85254,9.54437,1.376,12.1163,1099,0,
215.041,3.85223,9.54285,1.376,12.1163,1099,0,
215.041,3.84949,9.54285,1.376,12.1163,1099,0,
215.041,3.84674,9.54743,1.376,12.1163,1099,0,
215.041,3.84766,9.5459,1.376,12.1163,1099,0,
215.041,3.84766,9.5459,1.376,12.1163,1099,0,
215.041,3.84766,9.54437,1.376,12.1163,1099,0,
215.041,3.84766,9.54437,1.376,12.1163,1099,0,
215.041,3.84674,9.54743,1.376,12.1163,1099,0,
215.041,3.8443,9.54132,1.376,12.1163,1099,0,
215.041,3.84247,9.54437,1.376,12.1163,1099,0,
215.041,3.84247,9.54285,1.376,12.1163,1099,0,
215.041,3.84216,9.54285,1.376,12.1163,1099,0,
215.041,3.84186,9.5459,1.376,12.1163,1099,0,
215.041,3.84308,9.54132,1.376,12.1163,1099,0,
215.041,3.84277,9.54437,1.376,12.1163,1099,0,
215.041,3.83789,9.54132,1.376,12.1163,1099,0,
215.041,3.83789,9.54132,1.376,12.1163,1099,0,
215.041,3.8382,9.5459,1.376,12.1163,1099,0,
215.041,3.83728,9.55505,1.376,12.1163,1099,0,
215.041,3.83759,9.55505,1.376,12.1163,1099,0,
215.041,3.83728,9.55658,1.376,12.1163,1099,0,
215.041,3.83301,9.55505,1.376,12.1163,1099,0,
215.041,3.83301,9.55505,1.376,12.1163,1099,0,
215.041,3.8324,9.55353,1.376,12.1163,1099,0,
215.041,3.8327,9.55505,1.376,12.1163,1099,0,
215.041,3.83301,9.55353,1.376,12.1163,1099,0,
215.041,3.83301,9.55505,1.376,12.1163,1099,0,
215.041,3.82843,9.56116,1.376,12.1163,1099,0,
215.041,3.82782,9.55658,1.376,12.1163,1099,0,
215.041,3.82751,9.55811,1.376,12.1163,1099,0,
215.042,3.82812,9.55811,1.376,12.1163,1099,0,
215.042,3.82812,9.552,1.376,12.1163,1099,0,
215.042,3.82812,9.55505,1.376,12.1163,1099,0,
215.042,3.82446,9.55353,1.376,12.1163,1099,0,
215.042,3.82263,9.55658,1.376,12.1163,1099,0,
215.042,3.82324,9.55353,1.376,12.1163,1099,0,
215.042,3.82294,9.55353,1.376,12.1163,1099,0,
215.042,3.82324,9.55505,1.376,12.1163,1099,0,
215.042,3.82263,9.55963,1.376,12.1163,1099,0,
215.042,3.81927,9.55811,1.376,12.1163,1099,0,
215.042,3.81775,9.55658,1.376,12.1163,1099,0,
215.042,3.81805,9.55505,1.376,12.1163,1099,0,
215.042,3.81805,9.55353,1.376,12.1163,1099,0,
215.042,3.81836,9.55505,1.376,12.1163,1099,0,
215.042,3.81836,9.55505,1.376,12.1163,1099,0,
215.042,3.81714,9.55658,1.376,12.1163,1099,0,
215.042,3.81317,9.55505,1.376,12.1163,1099,0,
215.042,3.81348,9.55658,1.376,12.1163,1099,0,
215.042,3.81348,9.55658,1.376,12.1163,1099,0,
215.042,3.81317,9.55658,1.376,12.1163,1099,0,
215.042,3.81409,9.55658,1.376,12.1163,1099,0,
215.042,3.81378,9.55505,1.376,12.1163,1099,0,
215.042,3.80951,9.55505,1.376,12.1163,1099,0,
215.042,3.80829,9.55811,1.376,12.1163,1099,0,
215.042,3.80798,9.55658,1.376,12.1163,1099,0,
215.042,3.8089,9.55505,1.376,12.1163,1099,0,
215.042,3.80829,9.55811,1.376,12.1163,1099,0,
215.042,3.80859,9.55963,1.376,12.1163,1099,0,
215.042,3.80829,9.55353,1.376,12.1163,1099,0,
215.042,3.80371,9.55811,1.376,12.1163,1099,0,
215.042,3.80341,9.55658,1.376,12.1163,1099,0,
215.043,3.8028,9.55658,1.376,12.1163,1099,0,
215.043,3.8028,9.55658,1.376,12.1163,1099,0,
215.043,3.8028,9.56116,1.376,12.1163,1099,0,
215.043,3.80341,9.57184,1.376,12.1163,1099,0,
215.043,3.80249,9.57031,1.376,12.1163,1099,0,
215.043,3.79791,9.56879,1.376,12.1163,1099,0,
215.043,3.79883,9.56879,1.376,12.1163,1099,0,
215.043,3.79883,9.56726,1.376,12.1163,1099,0,
215.043,3.79761,9.56726,1.376,12.1163,1099,0,
215.043,3.79822,9.56879,1.376,12.1163,1099,0,
215.043,3.79822,9.57031,1.376,12.1163,1099,0,
215.043,3.79791,9.56879,1.376,12.1163,1099,0,
215.043,3.79303,9.57184,1.376,12.1163,1099,0,
215.043,3.79364,9.56879,1.376,12.1163,1099,0,
215.043,3.79303,9.56726,1.376,12.1163,1099,0,
215.043,3.79303,9.56726,1.376,12.1163,1099,0,
215.043,3.79303,9.56879,1.376,12.1163,1099,0,
215.043,3.79333,9.56726,1.376,12.1163,1099,0,
215.043,3.79333,9.56726,1.376,12.1163,1099,0,
215.043,3.79272,9.56726,1.376,12.1163,1099,0,
215.043,3.78784,9.57031,1.376,12.1163,1099,0,
215.043,3.78845,9.56726,1.376,12.1163,1099,0,
215.043,3.78815,9.56574,1.376,12.1163,1099,0,
215.043,3.78845,9.57184,1.376,12.1163,1099,0,
215.043,3.78937,9.56726,1.376,12.1163,1099,0,
215.043,3.78815,9.56726,1.376,12.1163,1099,0,
215.043,3.78845,9.56574,1.376,12.1163,1099,0,
215.043,3.78754,9.57031,1.376,12.1163,1099,0,
215.043,3.78387,9.56726,1.376,12.1163,1099,0,
215.043,3.78418,9.56879,1.376,12.1163,1099,0,
215.044,3.78357,9.56726,1.376,12.1163,1099,0,
215.044,3.78418,9.56726,1.376,12.1163,1099,0,
215.044,3.78357,9.56879,1.376,12.1163,1099,0,
215.044,3.78326,9.56726,1.376,12.1163,1099,0,
215.044,3.78418,9.56726,1.376,12.1163,1099,0,
215.044,3.78357,9.56879,1.376,12.1163,1099,0,
215.044,3.78052,9.57031,1.376,12.1163,1099,0,
215.044,3.7796,9.56726,1.376,12.1163,1099,0,
215.044,3.77899,9.56879,1.376,12.1163,1099,0,
215.044,3.77808,9.56879,1.376,12.1163,1099,0,
215.044,3.77838,9.58252,1.376,12.1163,1099,0,
215.044,3.7793,9.57947,1.376,12.1163,1099,0,
215.044,3.77869,9.58099,1.376,12.1163,1099,0,
215.044,3.7793,9.58252,1.376,12.1163,1099,0,
215.044,3.77808,9.57947,1.376,12.1163,1099,0,
215.044,3.7793,9.57947,1.376,12.1163,1099,0,
215.044,3.7735,9.57794,1.376,12.1163,1099,0,
215.044,3.77472,9.57947,1.376,12.1163,1099,0,
215.044,3.7738,9.57794,1.376,12.1163,1099,0,
215.044,3.7735,9.58252,1.376,12.1163,1099,0,
215.044,3.7738,9.57794,1.376,12.1163,1099,0,
215.044,3.7738,9.58099,1.376,12.1163,1099,0,
215.044,3.7738,9.57947,1.376,12.1163,1099,0,
215.044,3.77441,9.58099,1.376,12.1163,1099,0,
215.044,3.77319,9.57947,1.376,12.1163,1099,0,
215.044,3.7735,9.57947,1.376,12.1163,1099,0,
215.044,3.7735,9.57947,1.376,12.1163,1099,0,
215.044,3.76953,9.58405,1.376,12.1163,1099,0,
215.044,3.76892,9.58099,1.376,12.1163,1099,0,
215.044,3.76892,9.58405,1.376,12.1163,1099,0,
215.045,3.76862,9.58099,1.376,12.1163,1099,0,
215.045,3.76862,9.57947,1.376,12.1163,1099,0,
215.045,3.76831,9.57947,1.376,12.1163,1099,0,
215.045,3.76953,9.58099,1.376,12.1163,1099,0,
215.045,3.76953,9.58405,1.376,12.1163,1099,0,
215.045,3.76892,9.57947,1.376,12.1163,1099,0,
215.045,3.76923,9.57947,1.376,12.1163,1099,0,
215.045,3.76892,9.58099,1.376,12.1163,1099,0,
215.045,3.76923,9.58099,1.376,12.1163,1099,0,
215.045,3.76923,9.57947,1.376,12.1163,1099,0,
215.045,3.76434,9.57947,1.376,12.1163,1099,0,
215.045,3.76404,9.59168,1.376,12.1163,1099,0,
215.045,3.76434,9.59168,1.376,12.1163,1099,0,
215.045,3.76434,9.59473,1.376,12.1163,1099,0,
215.045,3.76495,9.5932,1.376,12.1163,1099,0,
215.045,3.76404,9.59473,1.376,12.1163,1099,0,
215.045,3.76404,9.58862,1.376,12.1163,1099,0,
215.045,3.76434,9.59168,1.376,12.1163,1099,0,
215.045,3.76404,9.59168,1.376,12.1163,1099,0,
215.045,3.76434,9.59168,1.376,12.1163,1099,0,
215.045,3.76495,9.5932,1.376,12.1163,1099,0,
215.045,3.76404,9.5932,1.376,12.1163,1099,0,
215.045,3.76404,9.59168,1.376,12.1163,1099,0,
215.045,3.76404,9.5932,1.376,12.1163,1099,0,
215.045,3.76434,9.5932,1.376,12.1163,1099,0,
215.045,3.76404,9.5932,1.376,12.1163,1099,0,
215.045,3.76404,9.59168,1.376,12.1163,1099,0,
215.045,3.75977,9.59473,1.376,12.1163,1099,0,
215.045,3.75916,9.59473,1.376,12.1163,1099,0,
215.046,3.75977,9.59168,1.376,12.1163,1099,0,
215.046,3.75916,9.59168,1.376,12.1163,1099,0,
215.046,3.75916,9.59168,1.376,12.1163,1099,0,
215.046,3.75854,9.59015,1.376,12.1163,1099,0,
215.046,3.75977,9.59015,1.376,12.1163,1099,0,
215.046,3.75916,9.59015,1.376,12.1163,1099,0,
215.046,3.75916,9.59168,1.376,12.1163,1099,0,
215.046,3.75916,9.59473,1.376,12.1163,1099,0,
215.046,3.75916,9.58862,1.376,12.1163,1099,0,
215.046,3.75885,9.59168,1.376,12.1163,1099,0,
215.046,3.76007,9.59168,1.376,12.1163,1099,0,
215.046,3.75916,9.60236,1.376,12.1163,1099,0,
215.046,3.75885,9.60541,1.376,12.1163,1099,0,
215.046,3.75977,9.60541,1.376,12.1163,1099,0,
215.046,3.75946,9.60083,1.376,12.1163,1099,0,
215.046,3.76007,9.60541,1.376,12.1163,1099,0,
215.046,3.75946,9.60388,1.376,12.1163,1099,0,
215.046,3.75916,9.60693,1.376,12.1163,1099,0,
215.046,3.75946,9.60693,1.376,12.1163,1099,0,
215.046,3.75977,9.60236,1.376,12.1163,1099,0,
215.046,3.75977,9.60388,1.376,12.1163,1099,0,
215.046,3.75977,9.60541,1.376,12.1163,1099,0,
215.046,3.75946,9.60388,1.376,12.1163,1099,0,
215.046,3.75885,9.59931,1.376,12.1163,1099,0,
215.046,3.75977,9.60693,1.376,12.1163,1099,0,
215.046,3.75946,9.60388,1.376,12.1163,1099,0,
215.046,3.75977,9.60388,1.376,12.1163,1099,0,
215.046,3.75854,9.60388,1.376,12.1163,1099,0,
215.046,3.75519,9.60388,1.376,12.1163,1099,0,
215.046,3.75458,9.60693,1.376,12.1163,1099,0,
215.047,3.75488,9.60388,1.376,12.1163,1099,0,
215.047,3.75458,9.60236,1.376,12.1163,1099,0,
215.047,3.75458,9.60388,1.376,12.1163,1099,0,
215.047,3.75488,9.60693,1.376,12.1163,1099,0,
215.047,3.75488,9.60541,1.376,12.1163,1099,0,
215.047,3.75397,9.60388,1.376,12.1163,1099,0,
215.047,3.75427,9.61914,1.376,12.1163,1099,0,
215.047,3.75519,9.62067,1.376,12.1163,1099,0,
215.047,3.75488,9.61762,1.376,12.1163,1099,0,
215.047,3.75488,9.61914,1.376,12.1163,1099,0,
215.047,3.75519,9.62067,1.376,12.1163,1099,0,
215.047,3.75488,9.61762,1.376,12.1163,1099,0,
215.047,3.75397,9.61914,1.376,12.1163,1099,0,
215.047,3.75427,9.61609,1.376,12.1163,1099,0,
215.047,3.75397,9.61609,1.376,12.1163,1099,0,
215.047,3.75397,9.61609,1.376,12.1163,1099,0,
215.047,3.75427,9.61762,1.376,12.1163,1099,0,
215.047,3.75488,9.62067,1.376,12.1163,1099,0,
215.047,3.75458,9.61609,1.376,12.1163,1099,0,
215.047,3.75427,9.61609,1.376,12.1163,1099,0,
215.047,3.75488,9.61762,1.376,12.1163,1099,0,
215.047,3.75366,9.61609,1.376,12.1163,1099,0,
215.047,3.75397,9.61762,1.376,12.1163,1099,0,
215.047,3.75488,9.61456,1.376,12.1163,1099,0,
215.047,3.75488,9.61456,1.376,12.1163,1099,0,
215.047,3.75458,9.61456,1.376,12.1163,1099,0,
215.047,3.75458,9.61609,1.376,12.1163,1099,0,
215.047,3.75397,9.61609,1.376,12.1163,1099,0,
215.047,3.75366,9.61609,1.376,12.1163,1099,0,
215.047,3.75397,9.62372,1.376,12.1163,1099,0,
215.048,3.75458,9.6283,1.376,12.1163,1099,0,
215.048,3.75977,9.6283,1.376,12.1163,1099,0,
215.048,3.75916,9.62525,1.016,12.1163,1099,0,
215.048,3.75854,9.62677,1.016,12.1163,1099,0,
215.048,3.76007,9.62982,1.016,12.1163,1099,0,
215.048,3.75916,9.62982,1.016,12.1163,1099,0,
215.048,3.75916,9.6283,1.016,12.1163,1099,0,
215.048,3.75885,9.6283,1.016,12.1163,1099,0,
215.048,3.75885,9.6283,1.016,12.1163,1099,0,
215.048,3.75916,9.62677,1.016,12.1163,1099,0,
215.048,3.75885,9.6283,1.016,12.1163,1099,0,
215.048,3.75916,9.62982,1.016,12.1163,1099,0,
215.048,3.75977,9.63287,1.016,12.1163,1099,0,
215.048,3.75916,9.63135,1.016,12.1163,1099,0,
215.048,3.75916,9.63135,1.016,12.1163,1099,0,
215.048,3.75885,9.63287,1.016,12.1163,1099,0,
215.048,3.75977,9.6283,1.016,12.1163,1099,0,
215.048,3.75916,9.6283,1.016,12.1163,1099,0,
215.048,3.75885,9.62677,1.016,12.1163,1099,0,
215.048,3.75885,9.62982,1.016,12.1163,1099,0,
215.048,3.75977,9.62677,1.016,12.1163,1099,0,
215.048,3.75916,9.62677,1.016,12.1163,1099,0,
215.048,3.75854,9.64203,1.016,12.1163,1099,0,
215.048,3.75854,9.6405,1.016,12.1163,1099,0,
215.048,3.75977,9.6405,1.016,12.1163,1099,0,
215.048,3.75977,9.63898,1.016,12.1163,1099,0,
215.048,3.75916,9.64203,1.016,12.1163,1099,0,
215.048,3.75916,9.6405,1.016,12.1163,1099,0,
215.048,3.76373,9.64508,1.016,12.1163,1099,0,
215.048,3.76404,9.6405,1.016,12.1163,1099,0,
215.048,3.76404,9.64356,1.016,12.1163,1099,0,
215.049,3.76404,9.64203,1.016,12.1163,1099,0,
215.049,3.76404,9.6405,1.016,12.1163,1099,0,
215.049,3.76404,9.64356,1.016,12.1163,1099,0,
215.049,3.76404,9.64203,1.016,12.1163,1099,0,
215.049,3.76343,9.64356,1.016,12.1163,1099,0,
215.049,3.76434,9.64203,1.016,12.1163,1099,0,
215.049,3.76373,9.64203,1.016,12.1163,1099,0,
215.049,3.76373,9.64203,1.016,12.1163,1099,0,
215.049,3.76404,9.64508,1.016,12.1163,1099,0,
215.049,3.76343,9.64203,1.016,12.1163,1099,0,
215.049,3.76373,9.64356,1.016,12.1163,1099,0,
215.049,3.76373,9.64203,1.016,12.1163,1099,0,
215.049,3.76678,9.65424,1.016,12.1163,1099,0,
215.049,3.76892,9.65729,1.016,12.1163,1099,0,
215.049,3.76892,9.65271,1.016,12.1163,1099,0,
215.049,3.76862,9.65576,1.016,12.1163,1099,0,
215.049,3.76862,9.65729,1.016,12.1163,1099,0,
215.049,3.76923,9.65424,1.016,12.1163,1099,0,
215.049,3.76831,9.65119,1.016,12.1163,1099,0,
215.049,3.76892,9.65271,1.016,12.1163,1099,0,
215.049,3.76862,9.65576,1.016,12.1163,1099,0,
215.049,3.76892,9.65424,1.016,12.1163,1099,0,
215.049,3.76953,9.65424,1.016,12.1163,1099,0,
215.049,3.76923,9.65424,1.016,12.1163,1099,0,
215.049,3.7738,9.65119,1.016,12.1163,1099,0,
215.049,3.77319,9.65271,1.016,12.1163,1099,0,
215.049,3.77319,9.65271,1.016,12.1163,1099,0,
215.049,3.7735,9.65729,1.016,12.1163,1099,0,
215.049,3.7735,9.65576,1.016,12.1163,1099,0,
215.049,3.7738,9.65424,1.016,12.1163,1099,0,
215.05,3.77319,9.65424,1.016,12.1163,1099,0,
215.05,3.77411,9.65424,1.016,12.1163,1099,0,
215.05,3.7738,9.66492,1.016,12.1163,1099,0,
215.05,3.77838,9.66797,1.016,12.1163,1099,0,
215.05,3.7793,9.66492,1.016,12.1163,1099,0,
215.05,3.77838,9.6695,1.016,12.1163,1099,0,
215.05,3.7793,9.66644,1.016,12.1163,1099,0,
215.05,3.77869,9.66492,1.016,12.1163,1099,0,
215.05,3.77838,9.66339,1.016,12.1163,1099,0,
215.05,3.77838,9.66644,1.016,12.1163,1099,0,
215.05,3.77808,9.66797,1.016,12.1163,1099,0,
215.05,3.78357,9.6695,1.016,12.1163,1099,0,
215.05,3.78357,9.6695,1.016,12.1163,1099,0,
215.05,3.78418,9.66797,1.016,12.1163,1099,0,
215.05,3.78326,9.66797,1.016,12.1163,1099,0,
215.05,3.78387,9.66339,1.016,12.1163,1099,0,
215.05,3.78326,9.66797,1.016,12.1163,1099,0,
215.05,3.78326,9.66644,1.016,12.1163,1099,0,
215.05,3.78662,9.66797,1.016,12.1163,1099,0,
215.05,3.78845,9.67102,1.016,12.1163,1099,0,
215.05,3.78937,9.6756,1.016,12.1163,1099,0,
215.05,3.78845,9.67865,1.016,12.1163,1099,0,
215.05,3.78937,9.67865,1.016,12.1163,1099,0,
215.05,3.78906,9.67865,1.016,12.1163,1099,0,
215.05,3.78906,9.68323,1.016,12.1163,1099,0,
215.05,3.79211,9.67865,1.016,12.1163,1099,0,
215.05,3.79333,9.67865,1.016,12.1163,1099,0,
215.05,3.79333,9.67865,1.016,12.1163,1099,0,
215.05,3.79303,9.67712,1.016,12.1163,1099,0,
215.05,3.79333,9.68018,1.016,12.1163,1099,0,
215.051,3.79364,9.67407,1.016,12.1163,1099,0,
215.051,3.79395,9.68018,1.016,12.1163,1099,0,
215.051,3.79791,9.67865,1.016,12.1163,1099,0,
215.051,3.79883,9.67865,1.016,12.1163,1099,0,
215.051,3.79822,9.67712,1.016,12.1163,1099,0,
215.051,3.79791,9.68018,1.016,12.1163,1099,0,
215.051,3.79883,9.68933,1.016,12.1163,1099,0,
215.051,3.79883,9.68781,1.016,12.1163,1099,0,
215.051,3.79822,9.69086,1.016,12.1163,1099,0,
215.051,3.8028,9.68933,1.016,12.1163,1099,0,
215.051,3.80371,9.68781,1.016,12.1163,1099,0,
215.051,3.80371,9.68781,1.016,12.1163,1099,0,
215.051,3.8031,9.68781,1.016,12.1163,1099,0,
215.051,3.80371,9.68781,1.016,12.1163,1099,0,
215.051,3.80341,9.68781,1.016,12.1163,1099,0,
215.051,3.80646,9.69086,1.016,12.1163,1099,0,
215.051,3.80798,9.69238,1.016,12.1163,1099,0,
215.051,3.80829,9.69238,1.016,12.1163,1099,0,
215.051,3.80859,9.69391,1.016,12.1163,1099,0,
215.051,3.8089,9.69391,1.016,12.1163,1099,0,
215.051,3.80859,9.68933,1.016,12.1163,1099,0,
215.051,3.8089,9.69849,1.016,12.1163,1099,0,
215.051,3.81348,9.70459,1.016,12.1163,1099,0,
215.051,3.81287,9.70001,1.016,12.1163,1099,0,
215.051,3.81256,9.70001,1.016,12.1163,1099,0,
215.051,3.81378,9.70154,1.016,12.1163,1099,0,
215.051,3.81378,9.70306,1.016,12.1163,1099,0,
215.051,3.81287,9.70306,1.016,12.1163,1099,0,
215.051,3.81592,9.70306,1.016,12.1163,1099,0,
215.052,3.81897,9.70154,1.016,12.1163,1099,0,
215.052,3.81744,9.70612,1.016,12.1163,1099,0,
215.052,3.81866,9.70306,1.016,12.1163,1099,0,
215.052,3.81775,9.70154,1.016,12.1163,1099,0,
215.052,3.81897,9.70154,1.016,12.1163,1099,0,
215.052,3.81805,9.70459,1.016,12.1163,1099,0,
215.052,3.82355,9.70917,1.016,12.1163,1099,0,
215.052,3.82294,9.7168,1.016,12.1163,1099,0,
215.052,3.82263,9.71832,1.016,12.1163,1099,0,
215.052,3.82202,9.71832,1.016,12.1163,1099,0,
215.052,3.82355,9.71527,1.016,12.1163,1099,0,
215.052,3.82324,9.7168,1.016,12.1163,1099,0,
215.052,3.82629,9.71527,1.016,12.1163,1099,0,
215.052,3.82751,9.71527,1.016,12.1163,1099,0,
215.052,3.82812,9.71527,1.016,12.1163,1099,0,
215.052,3.82812,9.71527,1.016,12.1163,1099,0,
215.052,3.82812,9.7168,1.016,12.1163,1099,0,
215.052,3.82812,9.71222,1.016,12.1163,1099,0,
215.052,3.82812,9.71222,1.016,12.1163,1099,0,
215.052,3.83301,9.729,1.016,12.1163,1099,0,
215.052,3.83362,9.72443,1.016,12.1163,1099,0,
215.052,3.83209,9.72748,1.016,12.1163,1099,0,
215.052,3.8324,9.73206,1.016,12.1163,1099,0,
215.052,3.8324,9.72748,1.016,12.1163,1099,0,
215.052,3.8327,9.72748,1.016,12.1163,1099,0,
215.052,3.83575,9.73053,1.016,12.1163,1099,0,
215.052,3.8382,9.72595,1.016,12.1163,1099,0,
215.052,3.83789,9.72748,1.016,12.1163,1099,0,
215.052,3.83759,9.72443,1.016,12.1163,1099,0,
215.052,3.83728,9.72748,1.016,12.1163,1099,0,
215.053,3.83728,9.73053,1.016,12.1163,1099,0,
215.053,3.83698,9.73969,1.016,12.1163,1099,0,
215.053,3.84338,9.74121,1.016,12.1163,1099,0,
215.053,3.84308,9.73511,1.016,12.1163,1099,0,
215.053,3.84338,9.73969,1.016,12.1163,1099,0,
215.053,3.84216,9.74274,1.016,12.1163,1099,0,
215.053,3.84308,9.73969,1.016,12.1163,1099,0,
215.053,3.84308,9.73663,1.016,12.1163,1099,0,
215.053,3.84583,9.73969,1.016,12.1163,1099,0,
215.053,3.84674,9.73969,1.016,12.1163,1099,0,
215.053,3.84766,9.73816,1.016,12.1163,1099,0,
215.053,3.84705,9.73816,1.016,12.1163,1099,0,
215.053,3.84735,9.74121,1.016,12.1163,1099,0,
215.053,3.84796,9.74884,1.016,12.1163,1099,0,
215.053,3.84766,9.75647,1.016,12.1163,1099,0,
215.053,3.85254,9.75342,1.016,12.1163,1099,0,
215.053,3.85193,9.75189,1.016,12.1163,1099,0,
215.053,3.85223,9.75342,1.016,12.1163,1099,0,
215.053,3.85223,9.75189,1.016,12.1163,1099,0,
215.053,3.85284,9.75189,1.016,12.1163,1099,0,
215.053,3.85254,9.75037,1.016,12.1163,1099,0,
215.053,3.85559,9.75494,1.016,12.1163,1099,0,
215.053,3.85712,9.75037,1.016,12.1163,1099,0,
215.053,3.85742,9.75037,1.016,12.1163,1099,0,
215.053,3.85803,9.758,1.016,12.1163,1099,0,
215.053,3.85742,9.76257,1.016,12.1163,1099,0,
215.053,3.85742,9.75952,1.016,12.1163,1099,0,
215.053,3.85773,9.76563,1.016,12.1163,1099,0,
215.053,3.86169,9.76257,1.016,12.1163,1099,0,
215.053,3.8623,9.76257,1.016,12.1163,1099,0,
215.054,3.86292,9.75952,1.016,12.1163,1099,0,
215.054,3.8623,9.76563,1.016,12.1163,1099,0,
215.054,3.8623,9.76257,1.016,12.1163,1099,0,
215.054,3.8623,9.76563,1.016,12.1163,1099,0,
215.054,3.86719,9.76563,1.016,12.1163,1099,0,
215.054,3.86719,9.7641,1.016,12.1163,1099,0,
215.054,3.86658,9.77478,1.016,12.1163,1099,0,
215.054,3.86719,9.77936,1.016,12.1163,1099,0,
215.054,3.8678,9.77478,1.016,12.1163,1099,0,
215.054,3.86749,9.77478,1.016,12.1163,1099,0,
215.054,3.87024,9.77936,1.016,12.1163,1099,0,
215.054,3.87177,9.77936,1.016,12.1163,1099,0,
215.054,3.87238,9.77631,1.016,12.1163,1099,0,
215.054,3.87177,9.77783,1.016,12.1163,1099,0,
215.054,3.87207,9.77783,1.016,12.1163,1099,0,
215.054,3.87238,9.77326,1.016,12.1163,1099,0,
215.054,3.87268,9.77936,1.016,12.1163,1099,0,
215.054,3.87665,9.77631,1.016,12.1163,1099,0,
215.054,3.87756,9.78088,1.016,12.1163,1099,0,
215.054,3.87695,9.79004,1.016,12.1163,1099,0,
215.054,3.87726,9.79004,1.016,12.1163,1099,0,
215.054,3.87665,9.78851,1.016,12.1163,1099,0,
215.054,3.87665,9.78699,1.016,12.1163,1099,0,
215.054,3.88214,9.79004,1.016,12.1163,1099,0,
215.054,3.88245,9.78851,1.016,12.1163,1099,0,
215.054,3.88184,9.79004,1.016,12.1163,1099,0,
215.054,3.88214,9.79004,1.016,12.1163,1099,0,
215.054,3.88214,9.79004,1.016,12.1163,1099,0,
215.054,3.88184,9.78699,1.016,12.1163,1099,0,
215.054,3.88611,9.79004,1.016,12.1163,1099,0,
215.054,3.88672,9.79157,1.016,12.1163,1099,0,
215.055,3.88611,9.79462,1.016,12.1163,1099,0,
215.055,3.88702,9.8053,1.016,12.1163,1099,0,
215.055,3.88611,9.80225,1.016,12.1163,1099,0,
215.055,3.88733,9.79767,1.016,12.1163,1099,0,
215.055,3.88763,9.80225,1.016,12.1163,1099,0,
215.055,3.8916,9.7992,1.016,12.1163,1099,0,
215.055,3.8916,9.7992,1.016,12.1163,1099,0,
215.055,3.8913,9.80225,1.016,12.1163,1099,0,
215.055,3.8916,9.80072,1.016,12.1163,1099,0,
215.055,3.8913,9.80225,1.016,12.1163,1099,0,
215.055,3.89191,9.7992,1.016,12.1163,1099,0,
215.055,3.89648,9.79767,1.016,12.1163,1099,0,
215.055,3.89679,9.80377,1.016,12.1163,1099,0,
215.055,3.89618,9.80072,1.016,12.1163,1099,0,
215.055,3.89557,9.81445,1.016,12.1163,1099,0,
215.055,3.89679,9.81445,1.016,12.1163,1099,0,
215.055,3.89557,9.81293,1.016,12.1163,1099,0,
215.055,3.90045,9.81293,1.016,12.1163,1099,0,
215.055,3.90137,9.81293,1.016,12.1163,1099,0,
215.055,3.90106,9.81293,1.016,12.1163,1099,0,
215.055,3.90137,9.8114,1.016,12.1163,1099,0,
215.055,3.90198,9.8114,1.016,12.1163,1099,0,
215.055,3.90137,9.81598,1.016,12.1163,1099,0,
215.055,3.90228,9.81293,1.016,12.1163,1099,0,
215.055,3.90625,9.8114,1.016,12.1163,1099,0,
215.055,3.90533,9.81598,1.016,12.1163,1099,0,
215.055,3.90533,9.81293,1.016,12.1163,1099,0,
215.055,3.90656,9.81293,1.016,12.1163,1099,0,
215.055,3.90625,9.82666,1.016,12.1163,1099,0,
215.055,3.90594,9.82514,1.016,12.1163,1099,0,
215.056,3.91052,9.82666,1.016,12.1163,1099,0,
215.056,3.91113,9.82514,1.016,12.1163,1099,0,
215.056,3.91144,9.82666,1.016,12.1163,1099,0,
215.056,3.91174,9.82819,1.016,12.1163,1099,0,
215.056,3.91083,9.82514,1.016,12.1163,1099,0,
215.056,3.91113,9.82361,1.016,12.1163,1099,0,
215.056,3.91418,9.82819,1.016,12.1163,1099,0,
215.056,3.91632,9.82514,1.016,12.1163,1099,0,
215.056,3.91541,9.82514,1.016,12.1163,1099,0,
215.056,3.91571,9.82819,1.016,12.1163,1099,0,
215.056,3.91602,9.82819,1.016,12.1163,1099,0,
215.056,3.91602,9.83582,1.016,12.1163,1099,0,
215.056,3.91632,9.83734,1.016,12.1163,1099,0,
215.056,3.9209,9.83734,1.016,12.1163,1099,0,
215.056,3.9212,9.84039,1.016,12.1163,1099,0,
215.056,3.9212,9.83887,1.016,12.1163,1099,0,
215.056,3.92029,9.83734,1.016,12.1163,1099,0,
215.056,3.9209,9.83887,1.016,12.1163,1099,0,
215.056,3.9209,9.83734,1.016,12.1163,1099,0,
215.056,3.92548,9.83734,1.016,12.1163,1099,0,
215.056,3.92609,9.83429,1.016,12.1163,1099,0,
215.056,3.92517,9.83734,1.016,12.1163,1099,0,
215.056,3.92609,9.83734,1.016,12.1163,1099,0,
215.056,3.92609,9.83582,1.016,12.1163,1099,0,
215.056,3.9267,9.83734,1.016,12.1163,1099,0,
215.056,3.93158,9.8526,1.016,12.1163,1099,0,
215.056,3.93066,9.84802,1.016,12.1163,1099,0,
215.056,3.93127,9.84955,1.016,12.1163,1099,0,
215.056,3.93097,9.84955,1.016,12.1163,1099,0,
215.056,3.93158,9.85108,1.016,12.1163,1099,0,
215.057,3.93494,9.84955,1.016,12.1163,1099,0,
215.057,3.93616,9.85108,1.016,12.1163,1099,0,
215.057,3.93585,9.84802,1.016,12.1163,1099,0,
215.057,3.93585,9.85108,1.016,12.1163,1099,0,
215.057,3.93616,9.85108,1.016,12.1163,1099,0,
215.057,3.93616,9.84955,1.016,12.1163,1099,0,
215.057,3.94104,9.84955,1.016,12.1163,1099,0,
215.057,3.94043,9.85108,1.016,12.1163,1099,0,
215.057,3.94043,9.86176,1.016,12.1163,1099,0,
215.057,3.94073,9.86023,1.016,12.1163,1099,0,
215.057,3.94104,9.86176,1.016,12.1163,1099,0,
215.057,3.94562,9.86328,1.016,12.1163,1099,0,
215.057,3.9447,9.86023,1.016,12.1163,1099,0,
215.057,3.94562,9.86328,1.016,12.1163,1099,0,
215.057,3.94592,9.86023,1.016,12.1163,1099,0,
215.057,3.94531,9.86023,1.016,12.1163,1099,0,
215.057,3.94989,9.86176,1.016,12.1163,1099,0,
215.057,3.9505,9.86023,1.016,12.1163,1099,0,
215.057,3.9505,9.86176,1.016,12.1163,1099,0,
215.057,3.9502,9.86023,1.016,12.1163,1099,0,
215.057,3.9505,9.86633,1.016,12.1163,1099,0,
215.057,3.95477,9.87549,1.016,12.1163,1099,0,
215.057,3.95508,9.87549,1.016,12.1163,1099,0,
215.057,3.95538,9.87702,1.016,12.1163,1099,0,
215.057,3.95508,9.87396,1.016,12.1163,1099,0,
215.057,3.95508,9.87396,1.016,12.1163,1099,0,
215.057,3.95935,9.87549,1.016,12.1163,1099,0,
215.057,3.96027,9.87396,1.016,12.1163,1099,0,
215.057,3.95966,9.87244,1.016,12.1163,1099,0,
215.058,3.95996,9.87702,1.016,12.1163,1099,0,
215.058,3.95966,9.87396,1.016,12.1163,1099,0,
215.058,3.96423,9.87702,1.016,12.1163,1099,0,
215.058,3.96423,9.87702,1.016,12.1163,1099,0,
215.058,3.96484,9.87549,1.016,12.1163,1099,0,
215.058,3.96515,9.88312,1.016,12.1163,1099,0,
215.058,3.9682,9.8877,1.016,12.1163,1099,0,
215.058,3.97064,9.88464,1.016,12.1163,1099,0,
215.058,3.96973,9.8877,1.016,12.1163,1099,0,
215.058,3.97003,9.88617,1.016,12.1163,1099,0,
215.058,3.96973,9.8877,1.016,12.1163,1099,0,
215.058,3.9743,9.8877,1.016,12.1163,1099,0,
215.058,3.97461,9.88922,1.016,12.1163,1099,0,
215.058,3.97461,9.8877,1.016,12.1163,1099,0,
215.058,3.97491,9.88464,1.016,12.1163,1099,0,
215.058,3.97736,9.88922,1.016,12.1163,1099,0,
215.058,3.97949,9.8877,1.016,12.1163,1099,0,
215.058,3.98041,9.88617,1.016,12.1163,1099,0,
215.058,3.9798,9.8999,1.016,12.1163,1099,0,
215.058,3.97949,9.89838,1.016,12.1163,1099,0,
215.058,3.98468,9.89838,1.016,12.1163,1099,0,
215.058,3.98529,9.89838,1.016,12.1163,1099,0,
215.058,3.98468,9.8999,1.016,12.1163,1099,0,
215.058,3.98499,9.89838,1.016,12.1163,1099,0,
215.058,3.98834,9.90296,1.016,12.1163,1099,0,
215.058,3.98926,9.90143,1.016,12.1163,1099,0,
215.058,3.98987,9.89838,1.016,12.1163,1099,0,
215.058,3.98956,9.90296,1.016,12.1163,1099,0,
215.058,3.99048,9.89685,1.016,12.1163,1099,0,
215.058,3.99445,9.8999,1.016,12.1163,1099,0,
215.059,3.99414,9.91364,1.016,12.1163,1099,0,
215.059,3.99445,9.91211,1.016,12.1163,1099,0,
215.059,3.99445,9.91058,1.016,12.1163,1099,0,
215.059,3.99902,9.91211,1.016,12.1163,1099,0,
215.059,3.99933,9.91211,1.016,12.1163,1099,0,
215.059,3.99933,9.91058,1.016,12.1163,1099,0,
215.059,3.99902,9.91211,1.016,12.1163,1099,0,
215.059,4.0033,9.91058,1.016,12.1163,1099,0,
215.059,4.00421,9.91058,1.016,12.1163,1099,0,
215.059,4.00452,9.91058,1.016,12.1163,1099,0,
215.059,4.00391,9.91364,1.016,12.1163,1099,0,
215.059,4.00726,9.91211,1.016,12.1163,1099,0,
215.059,4.00909,9.92889,1.016,12.1163,1099,0,
215.059,4.00879,9.92584,1.016,12.1163,1099,0,
215.059,4.0094,9.92279,1.016,12.1163,1099,0,
215.059,4.0094,9.92279,1.016,12.1163,1099,0,
215.059,4.01428,9.92432,1.016,12.1163,1099,0,
215.059,4.01398,9.92432,1.016,12.1163,1099,0,
215.059,4.01398,9.92432,1.016,12.1163,1099,0,
215.059,4.01398,9.91974,1.016,12.1163,1099,0,
215.059,4.01917,9.91974,1.016,12.1163,1099,0,
215.059,4.01917,9.92127,1.016,12.1163,1099,0,
215.059,4.01886,9.92432,1.016,12.1163,1099,0,
215.059,4.01947,9.93042,1.016,12.1163,1099,0,
215.059,4.02252,9.93805,1.016,12.1163,1099,0,
215.059,4.02405,9.93652,1.016,12.1163,1099,0,
215.059,4.02374,9.93652,1.016,12.1163,1099,0,
215.059,4.02435,9.93652,1.016,12.1163,1099,0,
215.059,4.02496,9.935,1.016,12.1163,1099,0,
215.059,4.02924,9.935,1.016,12.1163,1099,0,
215.06,4.02954,9.93652,1.016,12.1163,1099,0,
215.06,4.02924,9.93652,1.016,12.1163,1099,0,
215.06,4.02893,9.93805,1.016,12.1163,1099,0,
215.06,4.03412,9.935,1.016,12.1163,1099,0,
215.06,4.03351,9.935,1.016,12.1163,1099,0,
215.06,4.03351,9.94873,1.016,12.1163,1099,0,
215.06,4.03381,9.95026,1.016,12.1163,1099,0,
215.06,4.03687,9.95331,1.016,12.1163,1099,0,
215.06,4.0387,9.95026,1.016,12.1163,1099,0,
215.06,4.0387,9.94721,1.016,12.1163,1099,0,
215.06,4.039,9.94415,1.016,12.1163,1099,0,
215.06,4.039,9.94721,1.016,12.1163,1099,0,
215.06,4.04327,9.94873,1.016,12.1163,1099,0,
215.06,4.04388,9.94568,1.016,12.1163,1099,0,
215.06,4.04327,9.94568,1.016,12.1163,1099,0,
215.06,4.04419,9.94721,1.016,12.1163,1099,0,
215.06,4.04694,9.95178,1.016,12.1163,1099,0,
215.06,4.04846,9.96246,1.016,12.1163,1099,0,
215.06,4.04877,9.95789,1.016,12.1163,1099,0,
215.06,4.04877,9.95941,1.016,12.1163,1099,0,
215.06,4.04785,9.95789,1.016,12.1163,1099,0,
215.06,4.05365,9.95941,1.016,12.1163,1099,0,
215.06,4.05396,9.96094,1.016,12.1163,1099,0,
215.06,4.05426,9.96094,1.016,12.1163,1099,0,
215.06,4.05426,9.95789,1.016,12.1163,1099,0,
215.06,4.05334,9.96094,1.016,12.1163,1099,0,
215.06,4.05823,9.95941,1.016,12.1163,1099,0,
215.06,4.05823,9.95941,1.016,12.1163,1099,0,
215.06,4.05884,9.97467,1.016,12.1163,1099,0,
215.06,4.05884,9.97009,1.016,12.1163,1099,0,
215.06,4.05884,9.97162,1.016,12.1163,1099,0,
215.061,4.06342,9.97162,1.016,12.1163,1099,0,
215.061,4.06342,9.97315,1.016,12.1163,1099,0,
215.061,4.06372,9.97315,1.016,12.1163,1099,0,
215.061,4.06311,9.96857,1.016,12.1163,1099,0,
215.061,4.06372,9.97162,1.016,12.1163,1099,0,
215.061,4.0686,9.97162,1.016,12.1163,1099,0,
215.061,4.06769,9.97467,1.016,12.1163,1099,0,
215.061,4.0683,9.97009,1.016,12.1163,1099,0,
215.061,4.06799,9.97772,1.016,12.1163,1099,0,
215.061,4.06799,9.9823,1.016,12.1163,1099,0,
215.061,4.07227,9.98383,1.016,12.1163,1099,0,
215.061,4.07318,9.98383,1.016,12.1163,1099,0,
215.061,4.07288,9.98383,1.016,12.1163,1099,0,
215.061,4.07318,9.98688,1.016,12.1163,1099,0,
215.061,4.07318,9.9823,1.016,12.1163,1099,0,
215.061,4.07837,9.9823,1.016,12.1163,1099,0,
215.061,4.07806,9.98535,1.016,12.1163,1099,0,
215.061,4.07776,9.98383,1.016,12.1163,1099,0,
215.061,4.07776,9.98535,1.016,12.1163,1099,0,
215.061,4.07745,9.98383,1.016,12.1163,1099,0,
215.061,4.08081,9.99451,1.016,12.1163,1099,0,
215.061,4.08325,9.99603,1.016,12.1163,1099,0,
215.061,4.08264,9.99451,1.016,12.1163,1099,0,
215.061,4.08234,9.99756,1.016,12.1163,1099,0,
215.061,4.08264,9.99909,1.016,12.1163,1099,0,
215.061,4.08234,9.99756,1.016,12.1163,1099,0,
215.061,4.08813,9.99451,1.016,12.1163,1099,0,
215.061,4.08783,9.99603,1.016,12.1163,1099,0,
215.061,4.08722,9.99603,1.016,12.1163,1099,0,
215.061,4.08722,9.99603,1.016,12.1163,1099,0,
215.062,4.08813,9.99603,1.016,12.1163,1099,0,
215.062,4.08783,10.0021,1.016,12.1163,1099,0,
215.062,4.09271,10.0067,1.016,12.1163,1099,0,
215.062,4.0921,10.0098,1.016,12.1163,1099,0,
215.062,4.09241,10.0128,1.016,12.1163,1099,0,
215.062,4.09241,10.0067,1.016,12.1163,1099,0,
215.062,4.0921,10.0082,1.016,12.1163,1099,0,
215.062,4.09576,10.0113,1.016,12.1163,1099,0,
215.062,4.09698,10.0098,1.016,12.1163,1099,0,
215.062,4.09729,10.0113,1.016,12.1163,1099,0,
215.062,4.09698,10.0098,1.016,12.1163,1099,0,
215.062,4.09698,10.0067,1.016,12.1163,1099,0,
215.062,4.09698,10.0067,1.016,12.1163,1099,0,
215.062,4.09698,10.0189,1.016,12.1163,1099,0,
215.062,4.10187,10.0189,1.016,12.1163,1099,0,
215.062,4.10248,10.0235,1.016,12.1163,1099,0,
215.062,4.10248,10.0204,1.016,12.1163,1099,0,
215.062,4.10217,10.025,1.016,12.1163,1099,0,
215.062,4.10187,10.0204,1.016,12.1163,1099,0,
215.062,4.10126,10.0159,1.016,12.1163,1099,0,
215.062,4.10706,10.025,1.016,12.1163,1099,0,
215.062,4.10675,10.0204,1.016,12.1163,1099,0,
215.062,4.10706,10.0189,1.016,12.1163,1099,0,
215.062,4.10736,10.0357,1.016,12.1163,1099,0,
215.062,4.10736,10.0296,1.016,12.1163,1099,0,
215.062,4.10706,10.0357,1.016,12.1163,1099,0,
215.062,4.11072,10.0342,1.016,12.1163,1099,0,
215.062,4.11194,10.0327,1.016,12.1163,1099,0,
215.062,4.11255,10.0357,1.016,12.1163,1099,0,
215.062,4.11194,10.0327,1.016,12.1163,1099,0,
215.063,4.11102,10.0311,1.016,12.1163,1099,0,
215.063,4.11224,10.0357,1.016,12.1163,1099,0,
215.063,4.11194,10.0327,1.016,12.1163,1099,0,
215.063,4.11591,10.0464,1.016,12.1163,1099,0,
215.063,4.11743,10.0433,1.016,12.1163,1099,0,
215.063,4.11713,10.0449,1.016,12.1163,1099,0,
215.063,4.11743,10.0464,1.016,12.1163,1099,0,
215.063,4.11682,10.0449,1.016,12.1163,1099,0,
215.063,4.11682,10.0449,1.016,12.1163,1099,0,
215.063,4.11682,10.0479,1.016,12.1163,1099,0,
215.063,4.11713,10.0418,1.016,12.1163,1099,0,
215.063,4.1217,10.0494,1.016,12.1163,1099,0,
215.063,4.12201,10.0449,1.016,12.1163,1099,0,
215.063,4.12201,10.0571,1.016,12.1163,1099,0,
215.063,4.12201,10.0586,1.016,12.1163,1099,0,
215.063,4.1217,10.0586,1.016,12.1163,1099,0,
215.063,4.1217,10.0555,1.016,12.1163,1099,0,
215.063,4.1214,10.0601,1.016,12.1163,1099,0,
215.063,4.12231,10.0586,1.016,12.1163,1099,0,
215.063,4.12659,10.0586,1.016,12.1163,1099,0,
215.063,4.12689,10.0571,1.016,12.1163,1099,0,
215.063,4.12659,10.0571,1.016,12.1163,1099,0,
215.063,4.12659,10.0586,1.016,12.1163,1099,0,
215.063,4.12659,10.0647,1.016,12.1163,1099,0,
215.063,4.12659,10.0662,1.016,12.1163,1099,0,
215.063,4.12628,10.0708,1.016,12.1163,1099,0,
215.063,4.12659,10.0693,1.016,12.1163,1099,0,
215.063,4.12659,10.0693,1.016,12.1163,1099,0,
215.063,4.12628,10.0739,1.016,12.1163,1099,0,
215.064,4.12994,10.0693,1.016,12.1163,1099,0,
215.064,4.13177,10.0693,1.016,12.1163,1099,0,
215.064,4.13177,10.0739,1.016,12.1163,1099,0,
215.064,4.13177,10.0693,1.016,12.1163,1099,0,
215.064,4.13147,10.0708,1.016,12.1163,1099,0,
215.064,4.13239,10.08,1.016,12.1163,1099,0,
215.064,4.13147,10.0815,1.016,12.1163,1099,0,
215.064,4.13177,10.0815,1.016,12.1163,1099,0,
215.064,4.13177,10.0815,1.016,12.1163,1099,0,
215.064,4.13208,10.0845,1.016,12.1163,1099,0,
215.064,4.13147,10.08,1.016,12.1163,1099,0,
215.064,4.13116,10.0784,1.016,12.1163,1099,0,
215.064,4.13147,10.0845,0.612,12.1163,1099,0,
215.064,4.13116,10.083,0.612,12.1163,1099,0,
215.064,4.13574,10.0861,0.612,12.1163,1099,0,
215.064,4.13666,10.083,0.612,12.1163,1099,0,
215.064,4.13635,10.0922,0.612,12.1163,1099,0,
215.064,4.13605,10.0967,0.612,12.1163,1099,0,
215.064,4.13666,10.0967,0.612,12.1163,1099,0,
215.064,4.13696,10.0952,0.612,12.1163,1099,0,
215.064,4.13696,10.0952,0.612,12.1163,1099,0,
215.064,4.13605,10.0937,0.612,12.1163,1099,0,
215.064,4.13727,10.0937,0.612,12.1163,1099,0,
215.064,4.13635,10.0937,0.612,12.1163,1099,0,
215.064,4.13635,10.0952,0.612,12.1163,1099,0,
215.064,4.13635,10.0967,0.612,12.1163,1099,0,
215.064,4.13635,10.0952,0.612,12.1163,1099,0,
215.064,4.13666,10.0998,0.612,12.1163,1099,0,
215.064,4.13605,10.1089,0.612,12.1163,1099,0,
215.064,4.13666,10.1028,0.612,12.1163,1099,0,
215.065,4.13666,10.1089,0.612,12.1163,1099,0,
215.065,4.13605,10.1089,0.612,12.1163,1099,0,
215.065,4.13666,10.1089,0.612,12.1163,1099,0,
215.065,4.13666,10.1044,0.612,12.1163,1099,0,
215.065,4.13666,10.1089,0.612,12.1163,1099,0,
215.065,4.13635,10.1105,0.612,12.1163,1099,0,
215.065,4.13635,10.1074,0.612,12.1163,1099,0,
215.065,4.13666,10.1074,0.612,12.1163,1099,0,
215.065,4.13635,10.1089,0.612,12.1163,1099,0,
215.065,4.13727,10.1181,0.612,12.1163,1099,0,
215.065,4.13666,10.1181,0.612,12.1163,1099,0,
215.065,4.13666,10.1196,0.612,12.1163,1099,0,
215.065,4.13605,10.1212,0.612,12.1163,1099,0,
215.065,4.13666,10.1196,0.612,12.1163,1099,0,
215.065,4.13727,10.1212,0.612,12.1163,1099,0,
215.065,4.13605,10.1227,0.612,12.1163,1099,0,
215.065,4.13696,10.1181,0.612,12.1163,1099,0,
215.065,4.13696,10.1181,0.612,12.1163,1099,0,
215.065,4.13635,10.1212,0.612,12.1163,1099,0,
215.065,4.13635,10.1212,0.612,12.1163,1099,0,
215.065,4.13635,10.1196,0.612,12.1163,1099,0,
215.065,4.13635,10.1166,0.612,12.1163,1099,0,
215.065,4.13666,10.1318,0.612,12.1163,1099,0,
215.065,4.13635,10.1303,0.612,12.1163,1099,0,
215.065,4.13666,10.1303,0.612,12.1163,1099,0,
215.065,4.13635,10.1318,0.612,12.1163,1099,0,
215.065,4.13635,10.1318,0.612,12.1163,1099,0,
215.065,4.13696,10.1334,0.612,12.1163,1099,0,
215.065,4.13727,10.1303,0.612,12.1163,1099,0,
215.065,4.13696,10.1318,0.612,12.1163,1099,0,
215.065,4.13666,10.1303,0.612,12.1163,1099,0,
215.066,4.13635,10.1318,0.612,12.1163,1099,0,
215.066,4.13727,10.1288,0.612,12.1163,1099,0,
215.066,4.13666,10.1318,0.612,12.1163,1099,0,
215.066,4.13696,10.1364,0.612,12.1163,1099,0,
215.066,4.13605,10.1425,0.612,12.1163,1099,0,
215.066,4.13727,10.1425,0.612,12.1163,1099,0,
215.066,4.13727,10.1456,0.612,12.1163,1099,0,
215.066,4.13635,10.1395,0.612,12.1163,1099,0,
215.066,4.13635,10.141,0.612,12.1163,1099,0,
215.066,4.13666,10.1456,0.612,12.1163,1099,0,
215.066,4.13666,10.1456,0.612,12.1163,1099,0,
215.066,4.13666,10.1425,0.612,12.1163,1099,0,
215.066,4.13605,10.1395,0.612,12.1163,1099,0,
215.066,4.13666,10.1395,0.612,12.1163,1099,0,
215.066,4.13605,10.1456,0.612,12.1163,1099,0,
215.066,4.13666,10.144,0.612,12.1163,1099,0,
215.066,4.13757,10.1563,0.612,12.1163,1099,0,
215.066,4.13635,10.1578,0.612,12.1163,1099,0,
215.066,4.13727,10.1593,0.612,12.1163,1099,0,
215.066,4.13635,10.1547,0.612,12.1163,1099,0,
215.066,4.13605,10.1563,0.612,12.1163,1099,0,
215.066,4.13605,10.1547,0.612,12.1163,1099,0,
215.066,4.13696,10.1563,0.612,12.1163,1099,0,
215.066,4.13666,10.1563,0.612,12.1163,1099,0,
215.066,4.13666,10.1532,0.612,12.1163,1099,0,
215.066,4.13666,10.1563,0.612,12.1163,1099,0,
215.066,4.13696,10.1547,0.612,12.1163,1099,0,
215.066,4.13574,10.1547,0.612,12.1163,1099,0,
215.066,4.133,10.1669,0.612,12.1163,1099,0,
215.066,4.13177,10.17,0.612,12.1163,1099,0,
215.067,4.13116,10.1669,0.612,12.1163,1099,0,
215.067,4.13177,10.1685,0.612,12.1163,1099,0,
215.067,4.13147,10.17,0.612,12.1163,1099,0,
215.067,4.13177,10.1685,0.612,12.1163,1099,0,
215.067,4.13116,10.1685,0.612,12.1163,1099,0,
215.067,4.13177,10.1654,0.612,12.1163,1099,0,
215.067,4.13208,10.17,0.612,12.1163,1099,0,
215.067,4.13208,10.17,0.612,12.1163,1099,0,
215.067,4.13147,10.1685,0.612,12.1163,1099,0,
215.067,4.13147,10.1654,0.612,12.1163,1099,0,
215.067,4.13147,10.1761,0.612,12.1163,1099,0,
215.067,4.13177,10.1791,0.612,12.1163,1099,0,
215.067,4.13116,10.1822,0.612,12.1163,1099,0,
215.067,4.13177,10.1822,0.612,12.1163,1099,0,
215.067,4.13177,10.1837,0.612,12.1163,1099,0,
215.067,4.13177,10.1791,0.612,12.1163,1099,0,
215.067,4.13177,10.1791,0.612,12.1163,1099,0,
215.067,4.13177,10.1807,0.612,12.1163,1099,0,
215.067,4.13208,10.1807,0.612,12.1163,1099,0,
215.067,4.13208,10.1807,0.612,12.1163,1099,0,
215.067,4.13116,10.1807,0.612,12.1163,1099,0,
215.067,4.12689,10.1837,0.612,12.1163,1099,0,
215.067,4.12689,10.1791,0.612,12.1163,1099,0,
215.067,4.12628,10.1929,0.612,12.1163,1099,0,
215.067,4.12659,10.1898,0.612,12.1163,1099,0,
215.067,4.12659,10.1944,0.612,12.1163,1099,0,
215.067,4.12628,10.1898,0.612,12.1163,1099,0,
215.067,4.12689,10.1913,0.612,12.1163,1099,0,
215.067,4.12689,10.1944,0.612,12.1163,1099,0,
215.067,4.12659,10.1913,0.612,12.1163,1099,0,
215.068,4.12659,10.1913,0.612,12.1163,1099,0,
215.068,4.12689,10.1929,0.612,12.1163,1099,0,
215.068,4.12689,10.1913,0.612,12.1163,1099,0,
215.068,4.12689,10.1929,0.612,12.1163,1099,0,
215.068,4.12628,10.1944,0.612,12.1163,1099,0,
215.068,4.12689,10.202,0.612,12.1163,1099,0,
215.068,4.12659,10.2036,0.612,12.1163,1099,0,
215.068,4.12628,10.2051,0.612,12.1163,1099,0,
215.068,4.12689,10.2036,0.612,12.1163,1099,0,
215.068,4.12689,10.2051,0.612,12.1163,1099,0,
215.068,4.12689,10.2097,0.612,12.1163,1099,0,
215.068,4.12323,10.202,0.612,12.1163,1099,0,
215.068,4.12231,10.2051,0.612,12.1163,1099,0,
215.068,4.1217,10.202,0.612,12.1163,1099,0,
215.068,4.1217,10.2036,0.612,12.1163,1099,0,
215.068,4.12201,10.2036,0.612,12.1163,1099,0,
215.068,4.1217,10.2066,0.612,12.1163,1099,0,
215.068,4.1217,10.2036,0.612,12.1163,1099,0,
215.068,4.12201,10.2188,0.612,12.1163,1099,0,
215.068,4.1217,10.2173,0.612,12.1163,1099,0,
215.068,4.12201,10.2188,0.612,12.1163,1099,0,
215.068,4.1217,10.2158,0.612,12.1163,1099,0,
215.068,4.12231,10.2142,0.612,12.1163,1099,0,
215.068,4.12201,10.2158,0.612,12.1163,1099,0,
215.068,4.1217,10.2188,0.612,12.1163,1099,0,
215.068,4.12262,10.2203,0.612,12.1163,1099,0,
215.068,4.12201,10.2142,0.612,12.1163,1099,0,
215.068,4.12201,10.2158,0.612,12.1163,1099,0,
215.068,4.12292,10.2173,0.612,12.1163,1099,0,
215.069,4.12231,10.2188,0.612,12.1163,1099,0,
215.069,4.12201,10.2219,0.612,12.1163,1099,0,
215.069,4.12201,10.228,0.612,12.1163,1099,0,
215.069,4.11774,10.228,0.612,12.1163,1099,0,
215.069,4.11774,10.228,0.612,12.1163,1099,0,
215.069,4.11774,10.2295,0.612,12.1163,1099,0,
215.069,4.11743,10.228,0.612,12.1163,1099,0,
215.069,4.11713,10.2295,0.612,12.1163,1099,0,
215.069,4.11682,10.2264,0.612,12.1163,1099,0,
215.069,4.11713,10.231,0.612,12.1163,1099,0,
215.069,4.11682,10.2264,0.612,12.1163,1099,0,
215.069,4.11713,10.2295,0.612,12.1163,1099,0,
215.069,4.11804,10.231,0.612,12.1163,1099,0,
215.069,4.11743,10.2264,0.612,12.1163,1099,0,
215.069,4.11743,10.2264,0.612,12.1163,1099,0,
215.069,4.11743,10.2386,0.612,12.1163,1099,0,
215.069,4.11652,10.2417,0.612,12.1163,1099,0,
215.069,4.11713,10.2386,0.612,12.1163,1099,0,
215.069,4.11743,10.2417,0.612,12.1163,1099,0,
215.069,4.11713,10.2448,0.612,12.1163,1099,0,
215.069,4.11743,10.2417,0.612,12.1163,1099,0,
215.069,4.11743,10.2402,0.612,12.1163,1099,0,
215.069,4.11316,10.2402,0.612,12.1163,1099,0,
215.069,4.11224,10.2448,0.612,12.1163,1099,0,
215.069,4.11194,10.2448,0.612,12.1163,1099,0,
215.069,4.11194,10.2417,0.612,12.1163,1099,0,
215.069,4.11224,10.2432,0.612,12.1163,1099,0,
215.069,4.11285,10.2432,0.612,12.1163,1099,0,
215.069,4.11285,10.2509,0.612,12.1163,1099,0,
215.069,4.11255,10.2539,0.612,12.1163,1099,0,
215.07,4.11224,10.2554,0.612,12.1163,1099,0,
215.07,4.11224,10.257,0.612,12.1163,1099,0,
215.07,4.11255,10.2539,0.612,12.1163,1099,0,
215.07,4.11224,10.2493,0.612,12.1163,1099,0,
215.07,4.11285,10.2539,0.612,12.1163,1099,0,
215.07,4.11255,10.2539,0.612,12.1163,1099,0,
215.07,4.11285,10.2554,0.612,12.1163,1099,0,
215.07,4.11194,10.2524,0.612,12.1163,1099,0,
215.07,4.11224,10.2539,0.612,12.1163,1099,0,
215.07,4.11224,10.2539,0.612,12.1163,1099,0,
215.07,4.11194,10.2524,0.612,12.1163,1099,0,
215.07,4.10919,10.2615,0.612,12.1163,1099,0,
215.07,4.10736,10.2676,0.612,12.1163,1099,0,
215.07,4.10736,10.2631,0.612,12.1163,1099,0,
215.07,4.10675,10.2646,0.612,12.1163,1099,0,
215.07,4.10706,10.2676,0.612,12.1163,1099,0,
215.07,4.10706,10.2646,0.612,12.1163,1099,0,
215.07,4.10767,10.2646,0.612,12.1163,1099,0,
215.07,4.10736,10.2615,0.612,12.1163,1099,0,
215.07,4.10675,10.2676,0.612,12.1163,1099,0,
215.07,4.10767,10.2646,0.612,12.1163,1099,0,
215.07,4.10767,10.2631,0.612,12.1163,1099,0,
215.07,4.10706,10.2646,0.612,12.1163,1099,0,
215.07,4.10736,10.2646,0.612,12.1163,1099,0,
215.07,4.10675,10.2798,0.612,12.1163,1099,0,
215.07,4.10706,10.2798,0.612,12.1163,1099,0,
215.07,4.10736,10.2798,0.612,12.1163,1099,0,
215.07,4.10675,10.2768,0.612,12.1163,1099,0,
215.07,4.10706,10.2798,0.612,12.1163,1099,0,
215.07,4.10736,10.2783,0.612,12.1163,1099,0,
215.071,4.10706,10.2753,0.612,12.1163,1099,0,
215.071,4.10248,10.2814,0.612,12.1163,1099,0,
215.071,4.10278,10.2814,0.612,12.1163,1099,0,
215.071,4.10278,10.2768,0.612,12.1163,1099,0,
215.071,4.10248,10.2753,0.612,12.1163,1099,0,
215.071,4.10248,10.2768,0.612,12.1163,1099,0,
215.071,4.10217,10.2768,0.612,12.1163,1099,0,
215.071,4.10217,10.2875,0.612,12.1163,1099,0,
215.071,4.10187,10.2921,0.612,12.1163,1099,5,
215.071,4.10217,10.2875,0.612,12.1163,1099,0,
215.071,4.10278,10.2921,0.612,12.1163,1099,5,
215.071,4.10248,10.2875,0.612,12.1163,1099,0,
215.071,4.10248,10.2921,0.612,12.1163,1099,5,
215.071,4.10217,10.289,0.612,12.1163,1099,0,
215.071,4.10278,10.2875,0.612,12.1163,1099,0,
215.071,4.10278,10.2921,0.612,12.1163,1099,5,
215.071,4.10278,10.2921,0.612,12.1163,1099,5,
215.071,4.10248,10.2875,0.612,12.1163,1099,0,
215.071,4.10278,10.286,0.612,12.1163,1099,0,
215.071,4.10339,10.289,0.612,12.1163,1099,0,
215.071,4.09821,10.2905,0.612,12.1163,1099,5,
215.071,4.09821,10.3012,0.612,12.1163,1099,5,
215.071,4.0979,10.3043,0.612,12.1163,1099,5,
215.071,4.0979,10.3012,0.612,12.1163,1099,5,
215.071,4.09729,10.2997,0.612,12.1163,1099,5,
215.071,4.0976,10.3043,0.612,12.1163,1099,5,
215.071,4.0979,10.3012,0.612,12.1163,1099,0,
215.071,4.09698,10.3012,0.612,12.1163,1099,0,
215.071,4.09698,10.2982,0.612,12.1163,1099,0,
215.071,4.09729,10.2982,0.612,12.1163,1099,0,
215.071,4.09698,10.3027,0.612,12.1163,1099,0,
215.072,4.09729,10.3043,0.612,12.1163,1099,0,
215.072,4.09698,10.3043,0.612,12.1163,1099,0,
215.072,4.09668,10.3012,0.612,12.1163,1099,0,
215.072,4.0976,10.3012,0.612,12.1163,1099,0,
215.072,4.09729,10.3027,0.612,12.1163,1099,0,
215.072,4.09729,10.3119,0.612,12.1163,1099,0,
215.072,4.09729,10.3149,0.612,12.1163,1099,0,
215.072,4.09729,10.3165,0.612,12.1163,1099,0,
215.072,4.09271,10.3134,0.612,12.1163,1099,0,
215.072,4.09241,10.3165,0.612,12.1163,1099,0,
215.072,4.09241,10.3149,0.612,12.1163,1099,0,
215.072,4.09241,10.318,0.612,12.1163,1099,0,
215.072,4.0918,10.318,0.612,12.1163,1099,0,
215.072,4.09241,10.3149,0.612,12.1163,1099,0,
215.072,4.09241,10.3134,0.612,12.1163,1099,0,
215.072,4.09271,10.3134,0.612,12.1163,1099,0,
215.072,4.0918,10.3134,0.612,12.1163,1099,0,
215.072,4.0921,10.3149,0.612,12.1163,1099,0,
215.072,4.09241,10.3134,0.612,12.1163,1099,0,
215.072,4.09241,10.3165,0.612,12.1163,1099,0,
215.072,4.0918,10.3119,0.612,12.1163,1099,0,
215.072,4.09271,10.3119,0.612,12.1163,1099,0,
215.072,4.0918,10.3271,0.612,12.1163,1099,0,
215.072,4.09241,10.3271,0.612,12.1163,1099,0,
215.072,4.09271,10.3256,0.612,12.1163,1099,0,
215.072,4.08936,10.3256,0.612,12.1163,1099,0,
215.072,4.08752,10.3271,0.612,12.1163,1099,0,
215.072,4.08752,10.3256,0.612,12.1163,1099,0,
215.072,4.08783,10.3271,0.612,12.1163,1099,0,
215.072,4.08783,10.3256,0.612,12.1163,1099,0,
215.073,4.08752,10.3287,0.612,12.1163,1099,0,
215.073,4.08783,10.3287,0.612,12.1163,1099,0,
215.073,4.08722,10.3271,0.612,12.1163,1099,0,
215.073,4.08783,10.3256,0.612,12.1163,1099,0,
215.073,4.08752,10.3271,0.612,12.1163,1099,0,
215.073,4.08783,10.3287,0.612,12.1163,1099,0,
215.073,4.08752,10.3287,0.612,12.1163,1099,0,
215.073,4.08691,10.3256,0.612,12.1163,1099,0,
215.073,4.08783,10.3256,0.612,12.1163,1099,0,
215.073,4.08813,10.3378,0.612,12.1163,1099,0,
215.073,4.08722,10.3378,0.612,12.1163,1099,0,
215.073,4.08325,10.3394,0.612,12.1163,1099,0,
215.073,4.08264,10.3363,0.612,12.1163,1099,0,
215.073,4.08295,10.3378,0.612,12.1163,1099,0,
215.073,4.08264,10.3378,0.612,12.1163,1099,0,
215.073,4.08264,10.3378,0.612,12.1163,1099,0,
215.073,4.08295,10.3378,0.612,12.1163,1099,0,
215.073,4.08295,10.3363,0.612,12.1163,1099,0,
215.073,4.08264,10.3409,0.612,12.1163,1099,0,
215.073,4.08234,10.3409,0.612,12.1163,1099,0,
215.073,4.08203,10.3394,0.612,12.1163,1099,0,
215.073,4.08264,10.3378,0.612,12.1163,1099,0,
215.073,4.08264,10.3424,0.612,12.1163,1099,0,
215.073,4.08264,10.3485,0.612,12.1163,1099,0,
215.073,4.08203,10.35,0.612,12.1163,1099,0,
215.073,4.07776,10.35,0.612,12.1163,1099,0,
215.073,4.07776,10.3516,0.612,12.1163,1099,0,
215.073,4.07806,10.3516,0.612,12.1163,1099,0,
215.073,4.07745,10.3531,0.612,12.1163,1099,0,
215.073,4.07776,10.347,0.612,12.1163,1099,0,
215.074,4.07806,10.35,0.612,12.1163,1099,0,
215.074,4.07776,10.3516,0.612,12.1163,1099,0,
215.074,4.07776,10.35,0.612,12.1163,1099,0,
215.074,4.07806,10.35,0.612,12.1163,1099,0,
215.074,4.07806,10.3516,0.612,12.1163,1099,0,
215.074,4.07806,10.3516,0.612,12.1163,1099,0,
215.074,4.07806,10.35,0.612,12.1163,1099,0,
215.074,4.07776,10.3592,0.612,12.1163,1099,0,
215.074,4.07349,10.3638,0.612,12.1163,1099,0,
215.074,4.07349,10.3622,0.612,12.1163,1099,0,
215.074,4.07288,10.3622,0.612,12.1163,1099,0,
215.074,4.07318,10.3638,0.612,12.1163,1099,0,
215.074,4.07349,10.3638,0.612,12.1163,1099,0,
215.074,4.07349,10.3622,0.612,12.1163,1099,0,
215.074,4.07318,10.3622,0.612,12.1163,1099,0,
215.074,4.07318,10.3622,0.612,12.1163,1099,0,
215.074,4.07318,10.3638,0.612,12.1163,1099,0,
215.074,4.07257,10.3653,0.612,12.1163,1099,0,
215.074,4.07349,10.3653,0.612,12.1163,1099,0,
215.074,4.07257,10.3653,0.612,12.1163,1099,0,
215.074,4.07043,10.3638,0.612,12.1163,1099,0,
215.074,4.06799,10.3638,0.612,12.1163,1099,0,
215.074,4.06799,10.3745,0.612,12.1163,1099,0,
215.074,4.06769,10.3714,0.612,12.1163,1099,0,
215.074,4.0683,10.3729,0.612,12.1163,1099,0,
215.074,4.06799,10.376,0.612,12.1163,1099,0,
215.074,4.0683,10.3745,0.612,12.1163,1099,0,
215.074,4.0686,10.379,0.612,12.1163,1099,0,
215.074,4.06799,10.3745,0.612,12.1163,1099,0,
215.075,4.0683,10.3775,0.612,12.1163,1099,0,
215.075,4.06891,10.3745,0.612,12.1163,1099,0,
215.075,4.06799,10.3745,0.612,12.1163,1099,0,
215.075,4.06311,10.376,0.612,12.1163,1099,0,
215.075,4.06311,10.3745,0.612,12.1163,1099,0,
215.075,4.06311,10.3745,0.612,12.1163,1099,0,
215.075,4.06372,10.376,0.612,12.1163,1099,0,
215.075,4.06342,10.3729,0.612,12.1163,1099,0,
215.075,4.06372,10.3867,0.612,12.1163,1099,0,
215.075,4.06372,10.3836,0.612,12.1163,1099,0,
215.075,4.06342,10.3897,0.612,12.1163,1099,0,
215.075,4.06311,10.3867,0.612,12.1163,1099,0,
215.075,4.06281,10.3882,0.612,12.1163,1099,0,
215.075,4.06372,10.3851,0.612,12.1163,1099,0,
215.075,4.05884,10.3897,0.612,12.1163,1099,0,
215.075,4.05823,10.3867,0.612,12.1163,1099,0,
215.075,4.05853,10.3867,0.612,12.1163,1099,0,
215.075,4.05792,10.3867,0.612,12.1163,1099,0,
215.075,4.05884,10.3867,0.612,12.1163,1099,0,
215.075,4.05853,10.3912,0.612,12.1163,1099,0,
215.075,4.05823,10.3851,0.612,12.1163,1099,0,
215.075,4.05792,10.3882,0.612,12.1163,1099,0,
215.075,4.05884,10.3836,0.612,12.1163,1099,0,
215.075,4.05884,10.3882,0.612,12.1163,1099,0,
215.075,4.05823,10.3851,0.612,12.1163,1099,0,
215.075,4.05518,10.4004,0.612,12.1163,1099,0,
215.075,4.05365,10.4004,0.612,12.1163,1099,0,
215.075,4.05273,10.4004,0.612,12.1163,1099,0,
215.075,4.05334,10.4019,0.612,12.1163,1099,0,
215.075,4.05396,10.4004,0.612,12.1163,1099,0,
215.076,4.05426,10.3989,0.612,12.1163,1099,0,
215.076,4.05365,10.4019,0.612,12.1163,1099,0,
215.076,4.05365,10.3989,0.612,12.1163,1099,0,
215.076,4.05334,10.3973,0.612,12.1163,1099,0,
215.076,4.05334,10.3989,0.612,12.1163,1099,0,
215.076,4.05365,10.4019,0.612,12.1163,1099,0,
215.076,4.0506,10.3989,0.612,12.1163,1099,0,
215.076,4.04816,10.3989,0.612,12.1163,1099,0,
215.076,4.04907,10.3989,0.612,12.1163,1099,0,
215.076,4.04846,10.4019,0.612,12.1163,1099,0,
215.076,4.04816,10.4004,0.612,12.1163,1099,0,
215.076,4.04846,10.4034,0.612,12.1163,1099,0,
215.076,4.04816,10.4004,0.612,12.1163,1099,0,
215.076,4.04816,10.4111,0.612,12.1163,1099,0,
215.076,4.04846,10.408,0.612,12.1163,1099,0,
215.076,4.04785,10.4111,0.612,12.1163,1099,0,
215.076,4.04785,10.4126,0.612,12.1163,1099,0,
215.076,4.04846,10.4095,0.612,12.1163,1099,0,
215.076,4.04327,10.4111,0.612,12.1163,1099,0,
215.076,4.04358,10.4111,0.612,12.1163,1099,0,
215.076,4.04358,10.4111,0.612,12.1163,1099,0,
215.076,4.04388,10.4126,0.612,12.1163,1099,0,
215.076,4.04419,10.4111,0.612,12.1163,1099,0,
215.076,4.04297,10.4126,0.612,12.1163,1099,0,
215.076,4.04327,10.4111,0.612,12.1163,1099,0,
215.076,4.04419,10.4141,0.612,12.1163,1099,0,
215.076,4.04358,10.4111,0.612,12.1163,1099,0,
215.076,4.04327,10.4172,0.612,12.1163,1099,0,
215.076,4.04297,10.4141,0.612,12.1163,1099,0,
215.076,4.03839,10.4095,0.612,12.1163,1099,0,
215.077,4.03839,10.4111,0.612,12.1163,1099,0,
215.077,4.03839,10.4248,0.612,12.1163,1099,0,
215.077,4.03839,10.4263,0.612,12.1163,1099,0,
215.077,4.0387,10.4263,0.612,12.1163,1099,0,
215.077,4.03839,10.4279,0.612,12.1163,1099,0,
215.077,4.0387,10.4248,0.612,12.1163,1099,0,
215.077,4.03809,10.4233,0.612,12.1163,1099,0,
215.077,4.03839,10.4233,0.612,12.1163,1099,0,
215.077,4.039,10.4263,0.612,12.1163,1099,0,
215.077,4.0387,10.4248,0.612,12.1163,1099,0,
215.077,4.03351,10.4233,0.612,12.1163,1099,0,
215.077,4.03351,10.4279,0.612,12.1163,1099,0,
215.077,4.03351,10.4248,0.612,12.1163,1099,0,
215.077,4.03351,10.4248,0.612,12.1163,1099,0,
215.077,4.03381,10.4248,0.612,12.1163,1099,0,
215.077,4.0332,10.4263,0.612,12.1163,1099,0,
215.077,4.03412,10.4279,0.612,12.1163,1099,0,
215.077,4.03412,10.4233,0.612,12.1163,1099,0,
215.077,4.03351,10.4263,0.612,12.1163,1099,0,
215.077,4.03351,10.4263,0.612,12.1163,1099,0,
215.077,4.03381,10.4385,0.612,12.1163,1099,0,
215.077,4.03259,10.4355,0.612,12.1163,1099,0,
215.077,4.02893,10.437,0.612,12.1163,1099,0,
215.077,4.02893,10.434,0.612,12.1163,1099,0,
215.077,4.02832,10.437,0.612,12.1163,1099,0,
215.077,4.02924,10.4355,0.612,12.1163,1099,0,
215.077,4.02863,10.4401,0.612,12.1163,1099,0,
215.077,4.02924,10.4385,0.612,12.1163,1099,0,
215.077,4.02832,10.4385,0.612,12.1163,1099,0,
215.077,4.02893,10.437,0.612,12.1163,1099,0,
215.077,4.02832,10.4385,0.612,12.1163,1099,0,
215.078,4.02954,10.4355,0.612,12.1163,1099,0,
215.078,4.02893,10.437,0.612,12.1163,1099,0,
215.078,4.02802,10.4416,0.612,12.1163,1099,0,
215.078,4.02435,10.4385,0.612,12.1163,1099,0,
215.078,4.02435,10.437,0.612,12.1163,1099,0,
215.078,4.02344,10.4416,0.612,12.1163,1099,0,
215.078,4.02374,10.4385,0.612,12.1163,1099,0,
215.078,4.02405,10.434,0.612,12.1163,1099,0,
215.078,4.02435,10.434,0.612,12.1163,1099,0,
215.078,4.02405,10.4523,0.612,12.1163,1099,0,
215.078,4.02466,10.4477,0.612,12.1163,1099,0,
215.078,4.02405,10.4507,0.612,12.1163,1099,0,
215.078,4.02313,10.4507,0.612,12.1163,1099,0,
215.078,4.02405,10.4507,0.612,12.1163,1099,0,
215.078,4.02374,10.4492,0.612,12.1163,1099,0,
215.078,4.02466,10.4507,0.612,12.1163,1099,0,
215.078,4.02435,10.4492,0.612,12.1163,1099,0,
215.078,4.01855,10.4507,0.612,12.1163,1099,0,
215.078,4.01855,10.4492,0.612,12.1163,1099,0,
215.078,4.01947,10.4462,0.612,12.1163,1099,0,
215.078,4.01917,10.4492,0.612,12.1163,1099,0,
215.078,4.01886,10.4477,0.612,12.1163,1099,0,
215.078,4.01917,10.4462,0.612,12.1163,1099,0,
215.078,4.01917,10.4492,0.612,12.1163,1099,0,
215.078,4.01947,10.4477,0.612,12.1163,1099,0,
215.078,4.01917,10.4477,0.612,12.1163,1099,0,
215.078,4.01886,10.4492,0.612,12.1163,1099,0,
215.078,4.01886,10.4492,0.612,12.1163,1099,0,
215.078,4.01917,10.4492,0.612,12.1163,1099,0,
215.078,4.01917,10.4523,0.612,12.1163,1099,0,
215.079,4.01886,10.4599,0.612,12.1163,1099,0,
215.079,4.01581,10.463,0.612,12.1163,1099,0,
215.079,4.01459,10.463,0.612,12.1163,1099,0,
215.079,4.01398,10.4614,0.612,12.1163,1099,0,
215.079,4.01398,10.463,0.612,12.1163,1099,0,
215.079,4.01459,10.4614,0.612,12.1163,1099,0,
215.079,4.01398,10.463,0.612,12.1163,1099,0,
215.079,4.01367,10.4599,0.612,12.1163,1099,0,
215.079,4.01489,10.463,0.612,12.1163,1099,0,
215.079,4.01398,10.4599,0.612,12.1163,1099,0,
215.079,4.01337,10.4599,0.612,12.1163,1099,0,
215.079,4.01459,10.463,0.612,12.1163,1099,0,
215.079,4.01398,10.4614,0.612,12.1163,1099,0,
215.079,4.01428,10.4614,0.612,12.1163,1099,0,
215.079,4.01367,10.4645,0.612,12.1163,1099,0,
215.079,4.01367,10.463,0.612,12.1163,1099,0,
215.079,4.01367,10.463,0.612,12.1163,1099,0,
215.079,4.01459,10.4599,0.612,12.1163,1099,0,
215.079,4.01001,10.4645,0.612,12.1163,1099,0,
215.079,4.00909,10.463,0.612,12.1163,1099,0,
215.079,4.0094,10.4599,0.612,12.1163,1099,0,
215.079,4.00848,10.4599,0.612,12.1163,1099,0,
215.079,4.0094,10.4706,0.612,12.1163,1099,0,
215.079,4.00909,10.4721,0.612,12.1163,1099,0,
215.079,4.00848,10.4721,0.612,12.1163,1099,0,
215.079,4.00909,10.4736,0.612,12.1163,1099,0,
215.079,4.00879,10.4752,0.612,12.1163,1099,0,
215.079,4.00909,10.4721,0.612,12.1163,1099,0,
215.079,4.00909,10.4736,0.612,12.1163,1099,0,
215.079,4.00879,10.4736,0.612,12.1163,1099,0,
215.08,4.00909,10.4721,0.612,12.1163,1099,0,
215.08,4.0094,10.4767,0.612,12.1163,1099,0,
215.08,4.00909,10.4767,0.612,12.1163,1099,0,
215.08,4.00848,10.4721,0.612,12.1163,1099,0,
215.08,4.00909,10.4767,0.612,12.1163,1099,0,
215.08,4.00909,10.4736,0.612,12.1163,1099,0,
215.08,4.00879,10.4706,0.612,12.1163,1099,0,
215.08,4.00909,10.4721,0.612,12.1163,1099,0,
215.08,4.00421,10.4721,0.612,12.1163,1099,0,
215.08,4.00421,10.4736,0.612,12.1163,1099,0,
215.08,4.00421,10.4752,0.612,12.1163,1099,0,
215.08,4.0036,10.4736,0.612,12.1163,1099,0,
215.08,4.00421,10.4736,0.612,12.1163,1099,0,
215.08,4.00452,10.4752,0.612,12.1163,1099,0,
215.08,4.0036,10.4721,0.612,12.1163,1099,0,
215.08,4.00421,10.4736,0.612,12.1163,1099,0,
215.08,4.00421,10.4797,0.612,12.1163,1099,0,
215.08,4.00421,10.4828,0.612,12.1163,1099,0,
215.08,4.00482,10.4843,0.612,12.1163,1099,0,
215.08,4.00421,10.4843,0.612,12.1163,1099,0,
215.08,4.00452,10.4843,0.612,12.1163,1099,0,
215.08,4.00421,10.4858,0.612,12.1163,1099,0,
215.08,4.00452,10.4828,0.612,12.1163,1099,0,
215.08,4.00391,10.4858,0.612,12.1163,1099,0,
215.08,4.00482,10.4874,0.612,12.1163,1099,0,
215.08,4.00421,10.4858,0.612,12.1163,1099,0,
215.08,4.00421,10.4874,0.612,12.1163,1099,0,
215.08,4.00391,10.4843,0.612,12.1163,1099,0,
215.08,4.00452,10.4874,0.612,12.1163,1099,0,
215.081,4.00452,10.4843,0.612,12.1163,1099,0,
215.081,4.00391,10.4858,0.612,12.1163,1099,0,
215.081,4.00421,10.4858,0.612,12.1163,1099,0,
215.081,4.0036,10.4874,0.612,12.1163,1099,0,
215.081,4.00146,10.4858,0.612,12.1163,1099,0,
215.081,3.99902,10.4858,0.612,12.1163,1099,0,
215.081,3.99994,10.4843,0.612,12.1163,1099,0,
215.081,3.99994,10.4828,0.612,12.1163,1099,0,
215.081,3.99902,10.4843,0.612,12.1163,1099,0,
215.081,3.99963,10.4828,0.612,12.1163,1099,0,
215.081,3.99963,10.4858,0.612,12.1163,1099,0,
215.081,3.99902,10.4843,0.612,12.1163,1099,0,
215.081,3.99933,10.4874,0.612,12.1163,1099,0,
215.081,3.99933,10.4843,0.612,12.1163,1099,0,
215.081,3.99933,10.4965,0.612,12.1163,1099,0,
215.081,3.99902,10.495,0.612,12.1163,1099,0,
215.081,3.99902,10.4965,0.612,12.1163,1099,0,
215.081,3.99902,10.4965,0.612,12.1163,1099,0,
215.081,3.99963,10.4996,0.612,12.1163,1099,0,
215.081,3.99872,10.4965,0.612,12.1163,1099,0,
215.081,3.99963,10.498,0.612,12.1163,1099,0,
215.081,3.99963,10.498,0.612,12.1163,1099,0,
215.081,3.99963,10.498,0.612,12.1163,1099,0,
215.081,3.99933,10.4965,0.612,12.1163,1099,0,
215.081,3.99994,10.498,0.612,12.1163,1099,0,
215.081,3.99963,10.498,0.612,12.1163,1099,0,
215.081,3.99933,10.498,0.612,12.1163,1099,0,
215.081,3.99902,10.498,0.612,12.1163,1099,0,
215.081,3.99963,10.4965,0.612,12.1163,1099,0,
215.081,3.99963,10.498,0.612,12.1163,1099,0,
215.082,3.99902,10.498,0.612,12.1163,1099,0,
215.082,3.99963,10.498,0.612,12.1163,1099,0,
215.082,3.99933,10.4965,0.612,12.1163,1099,0,
215.082,3.99994,10.498,0.612,12.1163,1099,0,
215.082,3.99963,10.4965,0.612,12.1163,1099,0,
215.082,3.99994,10.498,0.612,12.1163,1099,0,
215.082,3.99963,10.4965,0.612,12.1163,1099,0,
215.082,3.99963,10.498,0.612,12.1163,1099,0,
215.082,3.99994,10.498,0.612,12.1163,1099,0,
215.082,3.99902,10.4996,0.612,12.1163,1099,0,
215.082,3.99994,10.498,0.612,12.1163,1099,0,
215.082,3.99933,10.4996,0.612,12.1163,1099,0,
215.082,3.99933,10.498,0.612,12.1163,1099,0,
215.082,3.99902,10.498,0.612,12.1163,1099,0,
215.082,3.99902,10.4965,0.612,12.1163,1099,0,
215.082,3.99933,10.5011,0.612,12.1163,1099,0,
215.082,3.99902,10.5042,0.612,12.1163,1099,0,
215.082,3.99933,10.5118,0.612,12.1163,1099,0,
215.082,3.99872,10.5118,0.612,12.1163,1099,0,
215.082,3.99963,10.5103,0.612,12.1163,1099,0,
215.082,3.99902,10.5133,0.612,12.1163,1099,0,
215.082,3.99994,10.5103,0.612,12.1163,1099,0,
215.082,3.99963,10.5118,0.612,12.1163,1099,0,
215.082,3.99933,10.5103,0.612,12.1163,1099,0,
215.082,3.99872,10.5103,0.612,12.1163,1099,0,
215.082,3.99902,10.5072,0.612,12.1163,1099,0,
215.082,3.99963,10.5072,0.612,12.1163,1099,0,
215.082,3.99902,10.5133,0.612,12.1163,1099,0,
215.082,3.99963,10.5072,0.612,12.1163,1099,0,
215.082,3.99902,10.5072,0.612,12.1163,1099,0,
215.083,3.99963,10.5118,0.612,12.1163,1099,0,
215.083,3.99933,10.5118,0.612,12.1163,1099,0,
215.083,3.99963,10.5103,0.612,12.1163,1099,0,
215.083,3.99963,10.5087,0.612,12.1163,1099,0,
215.083,3.99933,10.5072,0.612,12.1163,1099,0,
215.083,3.99933,10.5072,0.612,12.1163,1099,0,
215.083,3.99933,10.5118,0.612,12.1163,1099,0,
215.083,3.99811,10.5087,0.612,12.1163,1099,0,
215.083,3.99933,10.5087,0.612,12.1163,1099,0,
215.083,3.99902,10.5103,0.612,12.1163,1099,0,
215.083,3.99994,10.5118,0.612,12.1163,1099,0,
215.083,3.99994,10.5118,0.612,12.1163,1099,0,
215.083,3.99933,10.5133,0.612,12.1163,1099,0,
215.083,3.99902,10.5118,0.612,12.1163,1099,0,
215.083,4.00024,10.5118,0.612,12.1163,1099,0,
215.083,3.99902,10.5087,0.612,12.1163,1099,0,
215.083,3.99933,10.5118,0.612,12.1163,1099,0,
215.083,3.99963,10.5103,0.612,12.1163,1099,0,
215.083,3.99902,10.5087,0.612,12.1163,1099,0,
215.083,3.99963,10.5087,0.612,12.1163,1099,0,
215.083,3.99963,10.5255,0.612,12.1163,1099,0,
215.083,3.99933,10.5255,0.612,12.1163,1099,0,
215.083,3.99994,10.5225,0.612,12.1163,1099,0,
215.083,3.99963,10.5225,0.612,12.1163,1099,0,
215.083,3.99902,10.524,0.612,12.1163,1099,0,
215.083,3.99994,10.524,0.612,12.1163,1099,0,
215.083,3.99963,10.527,0.612,12.1163,1099,0,
215.083,4.00024,10.5255,0.612,12.1163,1099,0,
215.083,3.99963,10.527,0.612,12.1163,1099,0,
215.083,3.99963,10.5225,0.612,12.1163,1099,0,
215.083,3.99902,10.5255,0.612,12.1163,1099,0,
215.084,3.99963,10.5255,0.612,12.1163,1099,0,
215.084,3.99933,10.524,0.612,12.1163,1099,0,
215.084,3.99933,10.5225,0.612,12.1163,1099,0,
215.084,3.99963,10.524,0.612,12.1163,1099,0,
215.084,3.99963,10.5209,0.612,12.1163,1099,0,
215.084,3.99994,10.5225,0.612,12.1163,1099,0,
215.084,3.99841,10.5225,0.612,12.1163,1099,0,
215.084,3.99963,10.5209,0.612,12.1163,1099,0,
215.084,3.99994,10.5225,0.612,12.1163,1099,0,
215.084,3.99963,10.5225,0.612,12.1163,1099,0,
215.084,3.99933,10.524,0.612,12.1163,1099,0,
215.084,3.99933,10.5225,0.612,12.1163,1099,0,
215.084,3.99963,10.5209,0.612,12.1163,1099,0,
215.084,3.99963,10.524,0.612,12.1163,1099,0,
215.084,3.99963,10.5225,0.612,12.1163,1099,0,
215.084,3.99963,10.524,0.612,12.1163,1099,0,
215.084,3.99902,10.5225,0.612,12.1163,1099,0,
215.084,3.99872,10.524,0.612,12.1163,1099,0,
215.084,3.99963,10.5225,0.612,12.1163,1099,0,
215.084,3.99994,10.5347,0.612,12.1163,1099,0,
215.084,3.99933,10.5377,0.612,12.1163,1099,0,
215.084,3.99933,10.5362,0.612,12.1163,1099,0,
215.084,3.99933,10.5347,0.612,12.1163,1099,0,
215.084,3.99963,10.5347,0.612,12.1163,1099,0,
215.084,3.99902,10.5377,0.612,12.1163,1099,0,
215.084,3.99994,10.5362,0.612,12.1163,1099,0,
215.084,3.99963,10.5377,0.612,12.1163,1099,0,
215.084,3.99902,10.5347,0.612,12.1163,1099,0,
215.084,3.99963,10.5331,0.612,12.1163,1099,0,
215.084,3.99963,10.5362,0.612,12.1163,1099,0,
215.085,3.99963,10.5316,0.612,12.1163,1099,0,
215.085,3.99933,10.5316,0.612,12.1163,1099,0,
215.085,3.99963,10.5331,0.612,12.1163,1099,0,
215.085,3.99933,10.5377,0.612,12.1163,1099,0,
215.085,3.99994,10.5362,0.612,12.1163,1099,0,
215.085,4.00391,10.5362,0.612,12.1163,1099,0,
215.085,4.00482,10.5362,0.612,12.1163,1099,0,
215.085,4.00452,10.5347,0.612,12.1163,1099,0,
215.085,4.00482,10.5331,0.612,12.1163,1099,0,
215.085,4.00391,10.5362,0.612,12.1163,1099,0,
215.085,4.00391,10.5362,0.612,12.1163,1099,0,
215.085,4.0036,10.5377,0.612,12.1163,1099,0,
215.085,4.00452,10.5392,0.612,12.1163,1099,0,
215.085,4.0036,10.5331,0.612,12.1163,1099,0,
215.085,4.00452,10.5347,0.612,12.1163,1099,0,
215.085,4.00452,10.5377,0.612,12.1163,1099,0,
215.085,4.00421,10.5347,0.612,12.1163,1099,0,
215.085,4.00391,10.5316,0.612,12.1163,1099,0,
215.085,4.00391,10.5331,0.612,12.1163,1099,0,
215.085,4.00452,10.5377,0.612,12.1163,1099,0,
215.085,4.00452,10.5377,0.612,12.1163,1099,0,
215.085,4.00421,10.5347,0.612,12.1163,1099,0,
215.085,4.00421,10.5331,0.612,12.1163,1099,0,
215.085,4.00421,10.5484,0.612,12.1163,1099,0,
215.085,4.00421,10.5454,0.612,12.1163,1099,0,
215.085,4.00452,10.5454,0.612,12.1163,1099,0,
215.085,4.00452,10.5469,0.612,12.1163,1099,0,
215.085,4.00452,10.5484,0.612,12.1163,1099,0,
215.085,4.00452,10.5454,0.612,12.1163,1099,0,
215.085,4.00421,10.5469,0.612,12.1163,1099,0,
215.086,4.00452,10.5454,0.612,12.1163,1099,0,
215.086,4.00482,10.5484,0.612,12.1163,1099,0,
215.086,4.00391,10.5469,0.612,12.1163,1099,0,
215.086,4.00391,10.5454,0.612,12.1163,1099,0,
215.086,4.00482,10.5499,0.612,12.1163,1099,0,
215.086,4.00452,10.5454,0.612,12.1163,1099,0,
215.086,4.00482,10.5469,0.612,12.1163,1099,0,
215.086,4.00421,10.5454,0.612,12.1163,1099,0,
215.086,4.00391,10.5484,0.612,12.1163,1099,0,
215.086,4.00513,10.5438,0.612,12.1163,1099,0,
215.086,4.00421,10.5499,0.612,12.1163,1099,0,
215.086,4.0036,10.5469,0.612,12.1163,1099,0,
215.086,4.00513,10.5469,0.612,12.1163,1099,0,
215.086,4.00452,10.5484,0.612,12.1163,1099,0,
215.086,4.00482,10.5469,0.612,12.1163,1099,0,
215.086,4.00421,10.5499,0.612,12.1163,1099,0,
215.086,4.00482,10.5469,0.612,12.1163,1099,0,
215.086,4.00482,10.5454,0.612,12.1163,1099,0,
215.086,4.00452,10.5454,0.612,12.1163,1099,0,
215.086,4.00421,10.5438,0.612,12.1163,1099,0,
215.086,4.00482,10.5499,0.612,12.1163,1099,0,
215.086,4.00452,10.5454,0.612,12.1163,1099,0,
215.086,4.00726,10.5484,0.612,12.1163,1099,0,
215.086,4.00848,10.5484,0.612,12.1163,1099,0,
215.086,4.00879,10.5484,0.612,12.1163,1099,0,
215.086,4.00909,10.5499,0.612,12.1163,1099,0,
215.086,4.00909,10.5469,0.612,12.1163,1099,0,
215.086,4.00879,10.5469,0.612,12.1163,1099,0,
215.086,4.00818,10.5484,0.612,12.1163,1099,0,
215.087,4.00879,10.5469,0.612,12.1163,1099,0,
215.087,4.00787,10.5484,0.612,12.1163,1099,0,
215.087,4.00909,10.5515,0.612,12.1163,1099,0,
215.087,4.00879,10.5484,0.612,12.1163,1099,0,
215.087,4.00879,10.5499,0.612,12.1163,1099,0,
215.087,4.00879,10.5454,0.612,12.1163,1099,0,
215.087,4.00879,10.5484,0.612,12.1163,1099,0,
215.087,4.00818,10.5484,0.612,12.1163,1099,0,
215.087,4.00848,10.5469,0.612,12.1163,1099,0,
215.087,4.00818,10.5484,0.612,12.1163,1099,0,
215.087,4.00818,10.5454,0.612,12.1163,1099,0,
215.087,4.00879,10.5469,0.612,12.1163,1099,0,
215.087,4.00909,10.5484,0.612,12.1163,1099,0,
215.087,4.00909,10.5438,0.612,12.1163,1099,0,
215.087,4.0097,10.556,0.612,12.1163,1099,0,
215.087,4.00879,10.5606,0.612,12.1163,1099,0,
215.087,4.00909,10.5576,0.612,12.1163,1099,0,
215.087,4.00909,10.5606,0.612,12.1163,1099,0,
215.087,4.00848,10.5576,0.612,12.1163,1099,0,
215.087,4.00909,10.5576,0.612,12.1163,1099,0,
215.087,4.0094,10.5606,0.612,12.1163,1099,0,
215.087,4.00879,10.5591,0.612,12.1163,1099,0,
215.087,4.00879,10.5621,0.612,12.1163,1099,0,
215.087,4.00879,10.5591,0.612,12.1163,1099,0,
215.087,4.00909,10.5576,0.612,12.1163,1099,0,
215.087,4.00879,10.5606,0.612,12.1163,1099,0,
215.087,4.00848,10.5621,0.612,12.1163,1099,0,
215.087,4.0094,10.5591,0.612,12.1163,1099,0,
215.087,4.0094,10.5591,0.612,12.1163,1099,0,
215.087,4.0094,10.5637,0.612,12.1163,1099,0,
215.088,4.0094,10.5576,0.612,12.1163,1099,0,
215.088,4.0094,10.5606,0.612,12.1163,1099,0,
215.088,4.0094,10.5606,0.612,12.1163,1099,0,
215.088,4.00909,10.5621,0.612,12.1163,1099,0,
215.088,4.00879,10.5591,0.612,12.1163,1099,0,
215.088,4.00909,10.5606,0.612,12.1163,1099,0,
215.088,4.00848,10.5637,0.612,12.1163,1099,0,
215.088,4.00848,10.5621,0.612,12.1163,1099,0,
215.088,4.00848,10.5606,0.612,12.1163,1099,0,
215.088,4.00909,10.5576,0.612,12.1163,1099,0,
215.088,4.0094,10.5621,0.612,12.1163,1099,0,
215.088,4.01367,10.5606,0.612,12.1163,1099,0,
215.088,4.01398,10.5591,0.612,12.1163,1099,0,
215.088,4.01428,10.5637,0.612,12.1163,1099,0,
215.088,4.01398,10.5591,0.612,12.1163,1099,0,
215.088,4.01428,10.5606,0.612,12.1163,1099,0,
215.088,4.01489,10.5637,0.612,12.1163,1099,0,
215.088,4.01367,10.5576,0.612,12.1163,1099,0,
215.088,4.01398,10.556,0.612,12.1163,1099,0,
215.088,4.01459,10.5621,0.612,12.1163,1099,0,
215.088,4.01428,10.5621,0.612,12.1163,1099,0,
215.088,4.01428,10.5606,0.612,12.1163,1099,0,
215.088,4.01489,10.5606,0.612,12.1163,1099,0,
215.088,4.01367,10.5576,0.612,12.1163,1099,0,
215.088,4.01428,10.5606,0.612,12.1163,1099,0,
215.088,4.01459,10.5637,0.612,12.1163,1099,0,
215.088,4.01459,10.5637,0.612,12.1163,1099,0,
215.088,4.01367,10.5606,0.612,12.1163,1099,0,
215.088,4.01459,10.5606,0.612,12.1163,1099,0,
215.088,4.01398,10.5621,0.612,12.1163,1099,0,
215.089,4.01489,10.5621,0.612,12.1163,1099,0,
215.089,4.01428,10.5591,0.612,12.1163,1099,0,
215.089,4.01428,10.5713,0.612,12.1163,1099,0,
215.089,4.01428,10.5698,0.612,12.1163,1099,0,
215.089,4.01428,10.5713,0.612,12.1163,1099,0,
215.089,4.01428,10.5728,0.612,12.1163,1099,0,
215.089,4.01398,10.5698,0.612,12.1163,1099,0,
215.089,4.01367,10.5698,0.612,12.1163,1099,0,
215.089,4.01428,10.5713,0.612,12.1163,1099,0,
215.089,4.01367,10.5728,0.612,12.1163,1099,0,
215.089,4.01428,10.5698,0.612,12.1163,1099,0,
215.089,4.01428,10.5728,0.612,12.1163,1099,0,
215.089,4.01459,10.5743,0.612,12.1163,1099,0,
215.089,4.01367,10.5728,0.612,12.1163,1099,0,
215.089,4.01428,10.5713,0.612,12.1163,1099,0,
215.089,4.01428,10.5682,0.612,12.1163,1099,0,
215.089,4.01367,10.5728,0.612,12.1163,1099,0,
215.089,4.01428,10.5698,0.612,12.1163,1099,0,
215.089,4.01489,10.5682,0.612,12.1163,1099,0,
215.089,4.01428,10.5713,0.612,12.1163,1099,0,
215.089,4.01459,10.5698,0.612,12.1163,1099,0,
215.089,4.01489,10.5698,0.612,12.1163,1099,0,
215.089,4.01398,10.5728,0.612,12.1163,1099,0,
215.089,4.01459,10.5713,0.612,12.1163,1099,0,
215.089,4.01459,10.5713,0.612,12.1163,1099,0,
215.089,4.01428,10.5743,0.612,12.1163,1099,0,
215.089,4.01428,10.5743,0.612,12.1163,1099,0,
215.089,4.01367,10.5743,0.612,12.1163,1099,0,
215.089,4.01428,10.5728,0.612,12.1163,1099,0,
215.089,4.01459,10.5698,0.612,12.1163,1099,0,
215.089,4.01459,10.5713,0.612,12.1163,1099,0,
215.09,4.01428,10.5698,0.612,12.1163,1099,0,
215.09,4.01489,10.5728,0.612,12.1163,1099,0,
215.09,4.01428,10.5759,0.612,12.1163,1099,0,
215.09,4.01398,10.5698,0.612,12.1163,1099,0,
215.09,4.01917,10.5728,0.612,12.1163,1099,0,
215.09,4.01855,10.5698,0.612,12.1163,1099,0,
215.09,4.01886,10.5698,0.612,12.1163,1099,0,
215.09,4.01947,10.5728,0.612,12.1163,1099,0,
215.09,4.01947,10.5728,0.612,12.1163,1099,0,
215.09,4.01947,10.5743,0.612,12.1163,1099,0,
215.09,4.01917,10.5713,0.612,12.1163,1099,0,
215.09,4.01947,10.5713,0.612,12.1163,1099,0,
215.09,4.01917,10.5728,0.612,12.1163,1099,0,
215.09,4.01917,10.5728,0.612,12.1163,1099,0,
215.09,4.01917,10.5728,0.612,12.1163,1099,0,
215.09,4.01947,10.5713,0.612,12.1163,1099,0,
215.09,4.01886,10.5728,0.612,12.1163,1099,0,
215.09,4.01886,10.5728,0.612,12.1163,1099,0,
215.09,4.01917,10.5759,0.612,12.1163,1099,0,
215.09,4.01886,10.5713,0.612,12.1163,1099,0,
215.09,4.01886,10.5713,0.612,12.1163,1099,0,
215.09,4.01947,10.5728,0.612,12.1163,1099,0,
215.09,4.01855,10.5698,0.612,12.1163,1099,0,
215.09,4.01917,10.5682,0.612,12.1163,1099,0,
215.09,4.01947,10.5728,0.612,12.1163,1099,0,
215.09,4.01917,10.5804,0.612,12.1163,1099,0,
215.09,4.01886,10.5835,0.612,12.1163,1099,0,
215.09,4.02008,10.5804,0.612,12.1163,1099,0,
215.09,4.01886,10.5835,0.612,12.1163,1099,0,
215.09,4.01917,10.585,0.612,12.1163,1099,0,
215.091,4.01917,10.5865,0.612,12.1163,1099,0,
215.091,4.01855,10.585,0.612,12.1163,1099,0,
215.091,4.01886,10.5804,0.612,12.1163,1099,0,
215.091,4.01855,10.582,0.612,12.1163,1099,0,
215.091,4.01886,10.582,0.612,12.1163,1099,0,
215.091,4.01886,10.582,0.612,12.1163,1099,0,
215.091,4.01886,10.582,0.612,12.1163,1099,0,
215.091,4.01825,10.5865,0.612,12.1163,1099,0,
215.091,4.01917,10.585,0.612,12.1163,1099,0,
215.091,4.01855,10.5804,0.612,12.1163,1099,0,
215.091,4.01886,10.582,0.612,12.1163,1099,0,
215.091,4.01855,10.5835,0.612,12.1163,1099,0,
215.091,4.01947,10.5804,0.612,12.1163,1099,0,
215.091,4.01855,10.585,0.612,12.1163,1099,0,
215.091,4.01947,10.585,0.612,12.1163,1099,0,
215.091,4.01825,10.582,0.612,12.1163,1099,0,
215.091,4.01398,10.5865,0.612,12.1163,1099,0,
215.091,4.01428,10.5835,0.612,12.1163,1099,0,
215.091,4.01428,10.585,0.612,12.1163,1099,0,
215.091,4.01398,10.582,0.612,12.1163,1099,0,
215.091,4.01428,10.5835,0.612,12.1163,1099,0,
215.091,4.01367,10.585,0.612,12.1163,1099,0,
215.091,4.01398,10.585,0.612,12.1163,1099,0,
215.091,4.01428,10.582,0.612,12.1163,1099,0,
215.091,4.01398,10.585,0.612,12.1163,1099,0,
215.091,4.01367,10.585,0.612,12.1163,1099,0,
215.091,4.01367,10.5804,0.612,12.1163,1099,0,
215.091,4.01367,10.585,0.612,12.1163,1099,0,
215.091,4.01398,10.585,0.612,12.1163,1099,0,
215.091,4.01428,10.5835,0.612,12.1163,1099,0,
215.092,4.01428,10.585,0.612,12.1163,1099,0,
215.092,4.01428,10.585,0.612,12.1163,1099,0,
215.092,4.01398,10.5835,0.612,12.1163,1099,0,
215.092,4.01428,10.585,0.612,12.1163,1099,0,
215.092,4.01459,10.582,0.612,12.1163,1099,0,
215.092,4.01398,10.5835,0.612,12.1163,1099,0,
215.092,4.01367,10.585,0.612,12.1163,1099,0,
215.092,4.01398,10.5835,0.612,12.1163,1099,0,
215.092,4.01398,10.585,0.612,12.1163,1099,0,
215.092,4.01367,10.582,0.612,12.1163,1099,0,
215.092,4.01428,10.5896,0.612,12.1163,1099,0,
215.092,4.01459,10.5881,0.612,12.1163,1099,0,
215.092,4.01398,10.585,0.612,12.1163,1099,0,
215.092,4.01428,10.5835,0.612,12.1163,1099,0,
215.092,4.01459,10.5789,0.612,12.1163,1099,0,
215.092,4.01337,10.5865,0.612,12.1163,1099,0,
215.092,4.01428,10.5835,0.612,12.1163,1099,0,
215.092,4.01459,10.585,0.612,12.1163,1099,0,
215.092,4.01398,10.582,0.612,12.1163,1099,0,
215.092,4.01337,10.5835,0.612,12.1163,1099,0,
215.092,4.01398,10.585,0.612,12.1163,1099,0,
215.092,4.01459,10.582,0.612,12.1163,1099,0,
215.092,4.01428,10.5881,0.612,12.1163,1099,0,
215.092,4.01398,10.5835,0.612,12.1163,1099,0,
215.092,4.01398,10.582,0.612,12.1163,1099,0,
215.092,4.01428,10.5881,0.612,12.1163,1099,0,
215.092,4.01459,10.5835,0.612,12.1163,1099,0,
215.092,4.01459,10.585,0.612,12.1163,1099,0,
215.092,4.01398,10.585,0.612,12.1163,1099,0,
215.093,4.01398,10.5835,0.612,12.1163,1099,0,
215.093,4.01398,10.5835,0.612,12.1163,1099,0,
215.093,4.01367,10.582,0.612,12.1163,1099,0,
215.093,4.01398,10.5835,0.612,12.1163,1099,0,
215.093,4.01398,10.582,0.612,12.1163,1099,0,
215.093,4.01398,10.5865,0.612,12.1163,1099,0,
215.093,4.01398,10.582,0.612,12.1163,1099,0,
215.093,4.00909,10.5865,0.612,12.1163,1099,0,
215.093,4.0097,10.585,0.612,12.1163,1099,0,
215.093,4.00909,10.5865,0.612,12.1163,1099,0,
215.093,4.00879,10.5835,0.612,12.1163,1099,0,
215.093,4.0094,10.582,0.612,12.1163,1099,0,
215.093,4.0094,10.5942,0.612,12.1163,1099,0,
215.093,4.00879,10.5957,0.612,12.1163,1099,0,
215.093,4.00909,10.5957,0.612,12.1163,1099,0,
215.093,4.00879,10.5988,0.612,12.1163,1099,0,
215.093,4.00879,10.5972,0.612,12.1163,1099,0,
215.093,4.00848,10.5972,0.612,12.1163,1099,0,
215.093,4.0097,10.5988,0.612,12.1163,1099,0,
215.093,4.00909,10.5972,0.612,12.1163,1099,0,
215.093,4.00879,10.5957,0.612,12.1163,1099,0,
215.093,4.00848,10.5972,0.612,12.1163,1099,0,
215.093,4.00909,10.5988,0.612,12.1163,1099,0,
215.093,4.00909,10.5927,0.612,12.1163,1099,0,
215.093,4.00909,10.5942,0.612,12.1163,1099,0,
215.093,4.00909,10.5988,0.612,12.1163,1099,0,
215.093,4.0094,10.5927,0.612,12.1163,1099,0,
215.093,4.00909,10.5972,0.612,12.1163,1099,0,
215.093,4.0094,10.5972,0.612,12.1163,1099,0,
215.093,4.00909,10.5988,0.612,12.1163,1099,0,
215.094,4.00909,10.5972,0.612,12.1163,1099,0,
215.094,4.0097,10.5972,0.612,12.1163,1099,0,
215.094,4.00909,10.5972,0.612,12.1163,1099,0,
215.094,4.00848,10.5942,0.612,12.1163,1099,0,
215.094,4.00909,10.5957,0.612,12.1163,1099,0,
215.094,4.0097,10.5957,0.612,12.1163,1099,0,
215.094,4.00879,10.5942,0.612,12.1163,1099,0,
215.094,4.01001,10.6003,0.612,12.1163,1099,0,
215.094,4.0094,10.5942,0.612,12.1163,1099,0,
215.094,4.00909,10.5972,0.612,12.1163,1099,0,
215.094,4.00909,10.5972,0.612,12.1163,1099,0,
215.094,4.00909,10.5957,0.612,12.1163,1099,0,
215.094,4.00909,10.5988,0.612,12.1163,1099,0,
215.094,4.0094,10.5972,0.612,12.1163,1099,0,
215.094,4.00909,10.5988,0.612,12.1163,1099,0,
215.094,4.0094,10.6003,0.612,12.1163,1099,0,
215.094,4.00909,10.5988,0.612,12.1163,1099,0,
215.094,4.00909,10.5972,0.612,12.1163,1099,0,
215.094,4.00604,10.5942,0.612,12.1163,1099,0,
215.094,4.0036,10.5957,0.612,12.1163,1099,0,
215.094,4.00391,10.5942,0.612,12.1163,1099,0,
215.094,4.00421,10.5972,0.612,12.1163,1099,0,
215.094,4.00452,10.5972,0.612,12.1163,1099,0,
215.094,4.00391,10.5972,0.612,12.1163,1099,0,
215.094,4.0036,10.5942,0.612,12.1163,1099,0,
215.094,4.00421,10.5972,0.612,12.1163,1099,0,
215.094,4.00421,10.5957,0.612,12.1163,1099,0,
215.094,4.00452,10.5957,0.612,12.1163,1099,0,
215.094,4.00452,10.5957,0.612,12.1163,1099,0,
215.094,4.00482,10.6003,0.612,12.1163,1099,0,
215.095,4.00391,10.5957,0.612,12.1163,1099,0,
215.095,4.00391,10.5988,0.612,12.1163,1099,0,
215.095,4.00421,10.6003,0.612,12.1163,1099,0,
215.095,4.0036,10.5972,0.612,12.1163,1099,0,
215.095,4.00391,10.5957,0.612,12.1163,1099,0,
215.095,4.00452,10.5972,0.612,12.1163,1099,0,
215.095,4.00391,10.5957,0.612,12.1163,1099,0,
215.095,4.00421,10.5972,0.612,12.1163,1099,0,
215.095,4.00452,10.5988,0.612,12.1163,1099,0,
215.095,4.00452,10.5957,0.612,12.1163,1099,0,
215.095,4.00452,10.5988,0.612,12.1163,1099,0,
215.095,4.00391,10.5957,0.612,12.1163,1099,0,
215.095,4.00391,10.5988,0.612,12.1163,1099,0,
215.095,4.0033,10.6003,0.612,12.1163,1099,0,
215.095,4.00452,10.5972,0.612,12.1163,1099,0,
215.095,4.00452,10.5957,0.612,12.1163,1099,0,
215.095,4.0036,10.5988,0.612,12.1163,1099,0,
215.095,4.00391,10.5957,0.612,12.1163,1099,0,
215.095,4.00391,10.5988,0.612,12.1163,1099,0,
215.095,4.00391,10.5972,0.612,12.1163,1099,0,
215.095,4.00421,10.5988,0.612,12.1163,1099,0,
215.095,4.00421,10.5972,0.612,12.1163,1099,0,
215.095,4.00482,10.5957,0,12.1163,1099,0,
215.095,4.00421,10.5988,0,12.1163,1099,0,
215.095,4.00421,10.5942,0,12.1163,1099,0,
215.095,4.00452,10.5972,0,12.1163,1099,0,
215.095,4.00421,10.5942,2.256,12.1163,1099,0,
215.095,4.00421,10.5957,2.256,12.1163,1099,0,
215.095,4.00421,10.5957,2.256,12.1163,1099,0,
215.095,4.00452,10.5957,2.256,12.1163,1099,0,
215.095,4.00146,10.5957,2.256,12.1163,1099,0,
215.096,3.99933,10.611,2.256,12.1163,1099,0,
215.096,3.99963,10.6079,2.256,12.1163,1099,0,
215.096,3.99963,10.611,2.256,12.1163,1099,0,
215.096,3.99902,10.6049,2.256,12.1163,1099,0,
215.096,3.99994,10.6094,2.256,12.1163,1099,0,
215.096,3.99902,10.6094,2.256,12.1163,1099,0,
215.096,3.99963,10.6094,2.256,12.1163,1099,0,
215.096,3.99902,10.6094,2.256,12.1163,1099,0,
215.096,3.99902,10.6094,2.256,12.1163,1099,0,
215.096,3.99933,10.6094,2.256,12.1163,1099,0,
215.096,3.99963,10.6094,2.256,12.1163,1099,0,
215.096,3.99933,10.6094,2.256,12.1163,1099,0,
215.096,3.99963,10.6079,2.256,12.1163,1099,0,
215.096,3.99933,10.6049,2.256,12.1163,1099,0,
215.096,3.99902,10.611,2.256,12.1163,1099,0,
215.096,3.99963,10.611,2.256,12.1163,1099,0,
215.096,3.99902,10.611,2.256,12.1163,1099,0,
215.096,3.99933,10.6094,2.256,12.1163,1099,0,
215.096,3.99963,10.6064,2.256,12.1163,1099,0,
215.096,3.99933,10.611,2.256,12.1163,1099,0,
215.096,3.99963,10.6094,2.256,12.1163,1099,0,
215.096,3.99811,10.6094,2.256,12.1163,1099,0,
215.096,3.99994,10.611,2.256,12.1163,1099,0,
215.096,3.99933,10.6064,2.256,12.1163,1099,0,
215.096,3.99933,10.6064,2.256,12.1163,1099,0,
215.096,3.99902,10.6064,2.256,12.1163,1099,0,
215.096,3.99933,10.6064,2.256,12.1163,1099,0,
215.096,3.99963,10.6079,2.256,12.1163,1099,0,
215.096,3.99933,10.6079,2.256,12.1163,1099,0,
215.096,3.99963,10.6079,2.256,12.1163,1099,0,
215.097,3.99963,10.611,2.256,12.1163,1099,0,
215.097,3.99933,10.6079,2.256,12.1163,1099,0,
215.097,3.99902,10.6064,2.256,12.1163,1099,0,
215.097,3.99933,10.6049,2.256,12.1163,1099,0,
215.097,3.99994,10.6049,2.256,12.1163,1099,0,
215.097,3.99994,10.6079,2.256,12.1163,1099,0,
215.097,3.99933,10.6079,2.256,12.1163,1099,0,
215.097,3.99994,10.6064,2.256,12.1163,1099,0,
215.097,3.99963,10.6064,2.256,12.1163,1099,0,
215.097,3.99933,10.6079,2.256,12.1163,1099,0,
215.097,3.99963,10.6049,2.256,12.1163,1099,0,
215.097,3.99872,10.611,2.256,12.1163,1099,0,
215.097,3.99994,10.6064,2.256,12.1163,1099,0,
215.097,3.99994,10.6064,2.256,12.1163,1099,0,
215.097,3.99902,10.611,2.256,12.1163,1099,0,
215.097,3.99963,10.6064,2.256,12.1163,1099,0,
215.097,3.99933,10.611,2.256,12.1163,1099,0,
215.097,3.99933,10.6064,2.256,12.1163,1099,0,
215.097,3.99445,10.6125,2.256,12.1163,1099,0,
215.097,3.99414,10.6079,2.256,12.1163,1099,0,
215.097,3.99414,10.6094,2.256,12.1163,1099,0,
215.097,3.99445,10.611,2.256,12.1163,1099,0,
215.097,3.99445,10.6094,2.256,12.1163,1099,0,
215.097,3.99475,10.6079,2.256,12.1163,1099,0,
215.097,3.99414,10.6094,2.256,12.1163,1099,0,
215.097,3.99323,10.6094,2.256,12.1163,1099,0,
215.097,3.99445,10.6079,2.256,12.1163,1099,0,
215.097,3.99475,10.6064,2.256,12.1163,1099,0,
215.097,3.99445,10.611,2.256,12.1163,1099,0,
215.097,3.99445,10.6094,2.256,12.1163,1099,0,
215.098,3.99475,10.6064,2.256,12.1163,1099,0,
215.098,3.99445,10.611,2.256,12.1163,1099,0,
215.098,3.99445,10.6049,2.256,12.1163,1099,0,
215.098,3.99506,10.6094,2.256,12.1163,1099,0,
215.098,3.99475,10.6094,2.256,12.1163,1099,0,
215.098,3.99445,10.5957,2.256,12.1163,1099,0,
215.098,3.99414,10.6003,2.256,12.1163,1099,0,
215.098,3.99445,10.5927,2.256,12.1163,1099,0,
215.098,3.99414,10.5972,2.256,12.1163,1099,0,
215.098,3.99384,10.5957,2.256,12.1163,1099,0,
215.098,3.99445,10.5988,2.256,12.1163,1099,0,
215.098,3.99536,10.5957,2.256,12.1163,1099,0,
215.098,3.99445,10.5942,2.256,12.1163,1099,0,
215.098,3.99445,10.5957,2.256,12.1163,1099,0,
215.098,3.99475,10.5942,2.256,12.1163,1099,0,
215.098,3.99445,10.5972,2.256,12.1163,1099,0,
215.098,3.99475,10.5988,2.256,12.1163,1099,0,
215.098,3.99506,10.5957,2.256,12.1163,1099,0,
215.098,3.99384,10.5972,2.256,12.1163,1099,0,
215.098,3.99414,10.5988,2.256,12.1163,1099,0,
215.098,3.99445,10.5988,2.256,12.1163,1099,0,
215.098,3.99353,10.5957,2.256,12.1163,1099,0,
215.098,3.99445,10.5927,2.256,12.1163,1099,0,
215.098,3.99414,10.5972,2.256,12.1163,1099,0,
215.098,3.99445,10.5972,2.256,12.1163,1099,0,
215.098,3.99445,10.5942,2.256,12.1163,1099,0,
215.098,3.99506,10.6049,2.256,12.1163,1099,0,
215.098,3.99445,10.6064,2.256,12.1163,1099,0,
215.098,3.99506,10.6094,2.256,12.1163,1099,0,
215.099,3.99475,10.6079,2.256,12.1163,1099,0,
215.099,3.99475,10.6049,2.256,12.1163,1099,0,
215.099,3.99445,10.6049,2.256,12.1163,1099,0,
215.099,3.99414,10.6079,2.256,12.1163,1099,0,
215.099,3.99475,10.6094,2.256,12.1163,1099,0,
215.099,3.99475,10.6094,2.256,12.1163,1099,0,
215.099,3.99445,10.6079,2.256,12.1163,1099,0,
215.099,3.99445,10.6064,2.256,12.1163,1099,0,
215.099,3.99475,10.6079,2.256,12.1163,1099,0,
215.099,3.99536,10.6064,2.256,12.1163,1099,0,
215.099,3.99414,10.6094,2.256,12.1163,1099,0,
215.099,3.99536,10.6049,2.256,12.1163,1099,0,
215.099,3.99506,10.6094,2.256,12.1163,1099,0,
215.099,3.99475,10.6094,2.256,12.1163,1099,0,
215.099,3.99353,10.6049,2.256,12.1163,1099,0,
215.099,3.99445,10.6064,2.256,12.1163,1099,0,
215.099,3.99353,10.6064,2.256,12.1163,1099,0,
215.099,3.99445,10.6094,2.256,12.1163,1099,0,
215.099,3.99506,10.6079,2.256,12.1163,1099,0,
215.099,3.99475,10.6094,2.256,12.1163,1099,0,
215.099,3.99475,10.6064,2.256,12.1163,1099,0,
215.099,3.99475,10.6079,2.256,12.1163,1099,0,
215.099,3.99475,10.6094,2.256,12.1163,1099,0,
215.099,3.99536,10.6094,2.256,12.1163,1099,0,
215.099,3.99414,10.6094,2.256,12.1163,1099,0,
215.099,3.99475,10.6094,2.256,12.1163,1099,0,
215.099,3.99506,10.6079,2.256,12.1163,1099,0,
215.099,3.99445,10.6094,2.256,12.1163,1099,0,
215.099,3.99445,10.6079,2.256,12.1163,1099,0,
215.099,3.99475,10.611,2.256,12.1163,1099,0,
215.1,3.99506,10.6094,2.256,12.1163,1099,0,
215.1,3.99414,10.6094,2.256,12.1163,1099,0,
215.1,3.99506,10.6094,2.256,12.1163,1099,0,
215.1,3.99414,10.6064,2.256,12.1163,1099,0,
215.1,3.99414,10.6079,2.256,12.1163,1099,0,
215.1,3.99414,10.6094,2.256,12.1163,1099,0,
215.1,3.99414,10.611,2.256,12.1163,1099,0,
215.1,3.99445,10.6064,2.256,12.1163,1099,0,
215.1,3.99414,10.611,2.256,12.1163,1099,0,
215.1,3.99414,10.6064,2.256,12.1163,1099,0,
215.1,3.99445,10.6079,2.256,12.1163,1099,0,
215.1,3.99445,10.6094,2.256,12.1163,1099,0,
215.1,3.99445,10.6094,2.256,12.1163,1099,0,
215.1,3.99414,10.6079,2.256,12.1163,1099,0,
215.1,3.99506,10.614,2.256,12.1163,1099,0,
215.1,3.99353,10.6125,2.256,12.1163,1099,0,
215.1,3.99445,10.6079,2.256,12.1163,1099,0,
215.1,3.99414,10.6094,2.256,12.1163,1099,0,
215.1,3.99475,10.6094,2.256,12.1163,1099,0,
215.1,3.99506,10.6094,2.256,12.1163,1099,0,
215.1,3.99475,10.6094,2.256,12.1163,1099,0,
215.1,3.99414,10.6094,2.256,12.1163,1099,0,
215.1,3.99445,10.6094,2.256,12.1163,1099,0,
215.1,3.99414,10.6094,2.256,12.1163,1099,0,
215.1,3.99445,10.6079,2.256,12.1163,1099,0,
215.1,3.99445,10.6079,2.256,12.1163,1099,0,
215.1,3.99414,10.6094,2.256,12.1163,1099,0,
215.1,3.99475,10.6125,2.256,12.1163,1099,0,
215.1,3.99445,10.6079,2.256,12.1163,1099,0,
215.1,3.99384,10.6079,2.256,12.1163,1099,0,
215.101,3.99475,10.611,2.256,12.1163,1099,0,
215.101,3.99475,10.6094,2.256,12.1163,1099,0,
215.101,3.99445,10.6079,2.256,12.1163,1099,0,
215.101,3.99475,10.6049,2.256,12.1163,1099,0,
215.101,3.99445,10.6079,2.256,12.1163,1099,0,
215.101,3.99414,10.6094,2.256,12.1163,1099,0,
215.101,3.99506,10.611,2.256,12.1163,1099,0,
215.101,3.99445,10.6094,2.256,12.1163,1099,0,
215.101,3.99384,10.6079,2.256,12.1163,1099,0,
215.101,3.99475,10.6064,2.256,12.1163,1099,0,
215.101,3.99475,10.6094,2.256,12.1163,1099,0,
215.101,3.99475,10.6094,2.256,12.1163,1099,0,
215.101,3.99445,10.6094,2.256,12.1163,1099,0,
215.101,3.99475,10.6079,2.256,12.1163,1099,0,
215.101,3.99323,10.6094,2.256,12.1163,1099,0,
215.101,3.99414,10.611,2.256,12.1163,1099,0,
215.101,3.99445,10.6064,2.256,12.1163,1099,0,
215.101,3.99445,10.6033,2.256,12.1163,1099,0,
215.101,3.99414,10.611,2.256,12.1163,1099,0,
215.101,3.99475,10.6094,2.256,12.1163,1099,0,
215.101,3.99536,10.6064,2.256,12.1163,1099,0,
215.101,3.99445,10.6079,2.256,12.1163,1099,0,
215.101,3.99536,10.6094,2.256,12.1163,1099,0,
215.101,3.99475,10.614,2.256,12.1163,1099,0,
215.101,3.99384,10.6125,2.256,12.1163,1099,0,
215.101,3.99506,10.611,2.256,12.1163,1099,0,
215.101,3.99567,10.6094,2.256,12.1163,1099,0,
215.101,3.99475,10.611,2.256,12.1163,1099,0,
215.101,3.99475,10.6079,2.256,12.1163,1099,0,
215.101,3.99414,10.6079,2.256,12.1163,1099,0,
215.101,3.99384,10.6064,2.256,12.1163,1099,0,
215.102,3.99506,10.611,2.256,12.1163,1099,0,
215.102,3.99475,10.611,2.256,12.1163,1099,0,
215.102,3.99445,10.6079,2.256,12.1163,1099,0,
215.102,3.99445,10.6079,2.256,12.1163,1099,0,
215.102,3.99475,10.6064,2.256,12.1163,1099,0,
215.102,3.99445,10.6094,2.256,12.1163,1099,0,
215.102,3.99475,10.6064,2.256,12.1163,1099,0,
215.102,3.99414,10.6094,2.256,12.1163,1099,0,
215.102,3.99353,10.6094,2.256,12.1163,1099,0,
215.102,3.99353,10.6094,2.256,12.1163,1099,0,
215.102,3.99445,10.6094,2.256,12.1163,1099,0,
215.102,3.99414,10.6064,2.256,12.1163,1099,0,
215.102,3.99445,10.6125,2.256,12.1163,1099,0,
215.102,3.99384,10.6079,2.256,12.1163,1099,0,
215.102,3.99475,10.6049,2.256,12.1163,1099,0,
215.102,3.99414,10.6094,2.256,12.1163,1099,0,
215.102,3.99414,10.6094,2.256,12.1163,1099,0,
215.102,3.99414,10.6094,2.256,12.1163,1099,0,
215.102,3.99414,10.611,2.256,12.1163,1099,0,
215.102,3.99414,10.6094,2.256,12.1163,1099,0,
215.102,3.99353,10.6079,2.256,12.1163,1099,0,
215.102,3.99353,10.6079,2.256,12.1163,1099,0,
215.102,3.99445,10.6094,2.256,12.1163,1099,0,
215.102,3.99445,10.6064,2.256,12.1163,1099,0,
215.102,3.99414,10.6094,2.256,12.1163,1099,0,
215.102,3.99445,10.611,2.256,12.1163,1099,0,
215.102,3.99475,10.611,2.256,12.1163,1099,0,
215.102,3.99384,10.611,2.256,12.1163,1099,0,
215.102,3.99414,10.6094,2.256,12.1163,1099,0,
215.102,3.99414,10.611,2.256,12.1163,1099,0,
215.103,3.99445,10.6079,2.256,12.1163,1099,0,
215.103,3.99475,10.6094,2.256,12.1163,1099,0,
215.103,3.99414,10.6064,2.256,12.1163,1099,0,
215.103,3.99506,10.6079,2.256,12.1163,1099,0,
215.103,3.99475,10.6079,2.256,12.1163,1099,0,
215.103,3.99414,10.6033,2.256,12.1163,1099,0,
215.103,3.99445,10.6094,2.256,12.1163,1099,0,
215.103,3.99445,10.6094,2.256,12.1163,1099,0,
215.103,3.99414,10.611,2.256,12.1163,1099,0,
215.103,3.99384,10.6094,2.256,12.1163,1099,0,
215.103,3.99414,10.611,2.256,12.1163,1099,0,
215.103,3.99445,10.6079,2.256,12.1163,1099,0,
215.103,3.99414,10.6064,2.256,12.1163,1099,0,
215.103,3.99506,10.611,2.256,12.1163,1099,0,
215.103,3.99445,10.611,2.256,12.1163,1099,0,
215.103,3.99506,10.6094,2.256,12.1163,1099,0,
215.103,3.99445,10.611,2.256,12.1163,1099,0,
215.103,3.99445,10.6125,2.256,12.1163,1099,0,
215.103,3.99445,10.6079,2.256,12.1163,1099,0,
215.103,3.99445,10.6094,2.256,12.1163,1099,0,
215.103,3.99445,10.6094,2.256,12.1163,1099,0,
215.103,3.99384,10.6064,2.256,12.1163,1099,0,
215.103,3.99475,10.6064,2.256,12.1163,1099,0,
215.103,3.99384,10.6125,2.256,12.1163,1099,0,
215.103,3.99445,10.6079,2.256,12.1163,1099,0,
215.103,3.99445,10.6094,2.256,12.1163,1099,0,
215.103,3.99414,10.611,2.256,12.1163,1099,0,
215.103,3.99445,10.6094,2.256,12.1163,1099,0,
215.103,3.99445,10.6064,2.256,12.1163,1099,0,
215.103,3.99445,10.611,2.256,12.1163,1099,0,
215.104,3.99475,10.611,2.256,12.1163,1099,0,
215.104,3.99445,10.6064,2.256,12.1163,1099,0,
215.104,3.99353,10.611,2.256,12.1163,1099,0,
215.104,3.99475,10.6064,2.256,12.1163,1099,0,
215.104,3.99475,10.611,2.256,12.1163,1099,0,
215.104,3.99384,10.611,2.256,12.1163,1099,0,
215.104,3.99445,10.6079,2.256,12.1163,1099,0,
215.104,3.99445,10.6079,2.256,12.1163,1099,0,
215.104,3.99445,10.6094,2.256,12.1163,1099,0,
215.104,3.99475,10.6064,2.256,12.1163,1099,0,
215.104,3.99445,10.6079,2.256,12.1163,1099,0,
215.104,3.99445,10.611,2.256,12.1163,1099,0,
215.104,3.99445,10.611,2.256,12.1163,1099,0,
215.104,3.99445,10.611,2.256,12.1163,1099,0,
215.104,3.99384,10.6094,2.256,12.1163,1099,0,
215.104,3.99506,10.6094,2.256,12.1163,1099,0,
215.104,3.99445,10.6125,2.256,12.1163,1099,0,
215.104,3.99445,10.6094,2.256,12.1163,1099,0,
215.104,3.99414,10.6094,2.256,12.1163,1099,0,
215.104,3.99536,10.6094,2.256,12.1163,1099,0,
215.104,3.99445,10.6064,2.256,12.1163,1099,0,
215.104,3.99445,10.6079,2.256,12.1163,1099,0,
215.104,3.99414,10.6064,2.256,12.1163,1099,0,
215.104,3.99475,10.6079,2.256,12.1163,1099,0,
215.104,3.99475,10.6094,2.256,12.1163,1099,0,
215.104,3.99445,10.6079,2.256,12.1163,1099,0,
215.104,3.99475,10.6094,2.256,12.1163,1099,0,
215.104,3.99414,10.6094,2.256,12.1163,1099,0,
215.104,3.99536,10.611,2.256,12.1163,1099,0,
215.105,3.99536,10.611,2.256,12.1163,1099,0,
215.105,3.99445,10.6125,2.256,12.1163,1099,0,
215.105,3.99414,10.6094,2.256,12.1163,1099,0,
215.105,3.99414,10.6094,2.256,12.1163,1099,0,
215.105,3.99445,10.6094,2.256,12.1163,1099,0,
215.105,3.99445,10.6094,2.256,12.1163,1099,0,
215.105,3.99445,10.6094,2.256,12.1163,1099,0,
215.105,3.99475,10.6094,2.256,12.1163,1099,0,
215.105,3.99475,10.6094,2.256,12.1163,1099,0,
215.105,3.99475,10.611,2.256,12.1163,1099,0,
215.105,3.99445,10.6094,2.256,12.1163,1099,0,
215.105,3.99475,10.611,2.256,12.1163,1099,0,
215.105,3.99445,10.6094,2.256,12.1163,1099,0,
215.105,3.99506,10.611,2.256,12.1163,1099,0,
215.105,3.99475,10.6079,2.256,12.1163,1099,0,
215.105,3.99536,10.6064,2.256,12.1163,1099,0,
215.105,3.99475,10.6094,2.256,12.1163,1099,0,
215.105,3.99475,10.6079,2.256,12.1163,1099,0,
215.105,3.99445,10.614,2.256,12.1163,1099,0,
215.105,3.99445,10.6201,2.256,12.1163,1099,0,
215.105,3.99506,10.6216,2.256,12.1163,1099,0,
215.105,3.99445,10.6216,2.256,12.1163,1099,0,
215.105,3.99475,10.6201,2.256,12.1163,1099,0,
215.105,3.99384,10.6201,2.256,12.1163,1099,0,
215.105,3.99475,10.6186,2.256,12.1163,1099,0,
215.105,3.99445,10.6232,2.256,12.1163,1099,0,
215.105,3.99445,10.6216,2.256,12.1163,1099,0,
215.105,3.99353,10.6216,2.256,12.1163,1099,0,
215.105,3.99414,10.6201,2.256,12.1163,1099,0,
215.105,3.99445,10.6232,2.256,12.1163,1099,0,
215.106,3.99445,10.6216,2.256,12.1163,1099,0,
215.106,3.99506,10.6216,2.256,12.1163,1099,0,
215.106,3.99445,10.6216,2.256,12.1163,1099,0,
215.106,3.99414,10.6201,2.256,12.1163,1099,0,
215.106,3.99445,10.6201,2.256,12.1163,1099,0,
215.106,3.99506,10.6232,2.256,12.1163,1099,0,
215.106,3.99048,10.6216,0.362,12.1163,1099,0,
215.106,3.98956,10.6216,0.362,12.1163,1099,0,
215.106,3.98987,10.6247,0.362,12.1163,1099,0,
215.106,3.98956,10.6186,0.362,12.1163,1099,0,
215.106,3.98987,10.6232,0.362,12.1163,1099,0,
215.106,3.98956,10.6186,0.362,12.1163,1099,0,
215.106,3.98926,10.6201,0.362,12.1163,1099,0,
215.106,3.98987,10.6201,0.362,12.1163,1099,0,
215.106,3.98987,10.6232,0.362,12.1163,1099,0,
215.106,3.98987,10.6201,0.362,12.1163,1099,0,
215.106,3.98956,10.6201,0.362,12.1163,1099,0,
215.106,3.98987,10.6216,0.362,12.1163,1099,0,
215.106,3.98956,10.6247,0.362,12.1163,1099,0,
215.106,3.98895,10.6201,0.362,12.1163,1099,0,
215.106,3.98926,10.6232,0.362,12.1163,1099,0,
215.106,3.98987,10.6186,0.362,12.1163,1099,0,
215.106,3.98956,10.6232,0.362,12.1163,1099,0,
215.106,3.98956,10.6247,0.362,12.1163,1099,0,
215.106,3.98987,10.6232,0.362,12.1163,1099,0,
215.106,3.98926,10.6186,0.362,12.1163,1099,0,
215.106,3.98468,10.6232,0.362,12.1163,1099,0,
215.106,3.98468,10.6186,0.362,12.1163,1099,0,
215.106,3.98468,10.6186,0.362,12.1163,1099,0,
215.106,3.98468,10.6201,0.362,12.1163,1099,0,
215.107,3.98438,10.6201,0.362,12.1163,1099,0,
215.107,3.98499,10.6232,0.362,12.1163,1099,0,
215.107,3.98438,10.6216,0.362,12.1163,1099,0,
215.107,3.98438,10.6201,0.362,12.1163,1099,0,
215.107,3.98499,10.6216,0.362,12.1163,1099,0,
215.107,3.98438,10.6216,0.362,12.1163,1099,0,
215.107,3.98407,10.6216,0.362,12.1163,1099,0,
215.107,3.98529,10.6201,0.362,12.1163,1099,0,
215.107,3.98468,10.6216,0.362,12.1163,1099,0,
215.107,3.98438,10.6216,0.362,12.1163,1099,0,
215.107,3.98468,10.6216,0.362,12.1163,1099,0,
215.107,3.9798,10.6216,0.362,12.1163,1099,0,
215.107,3.9798,10.6201,0.362,12.1163,1099,0,
215.107,3.97919,10.6201,0.362,12.1163,1099,0,
215.107,3.98041,10.6216,0.362,12.1163,1099,0,
215.107,3.97888,10.6201,0.362,12.1163,1099,0,
215.107,3.97949,10.6216,0.362,12.1163,1099,0,
215.107,3.9798,10.6201,0.362,12.1163,1099,0,
215.107,3.9798,10.6201,0.362,12.1163,1099,0,
215.107,3.97919,10.6232,0.362,12.1163,1099,0,
