1600-SECPT.acq
2 msec/sample
6 channels
RSP, X, RSPEC-R
Volts
EDA, Y, PPGED-R
microsiemens
ECG R-R
Seconds
Respiration Rate
BPM
C7 - EDR
Peaks
C14 - Control
Volts
min,CH1,CH14,CH40,CH42,CH47,CH54,
,93958,93958,93958,93958,93958,93958,
83.0567,5.62103,3.98102,1.534,4.55028,81,5,
83.0567,5.62073,3.97949,1.534,4.55028,81,5,
83.0567,5.62134,3.97949,1.534,4.55028,81,5,
83.0568,5.62134,3.98254,1.534,4.55028,81,5,
83.0568,5.62103,3.98102,1.534,4.55028,81,5,
83.0568,5.62103,3.97949,1.534,4.55028,81,5,
83.0569,5.62164,3.97949,1.534,4.55028,81,5,
83.0569,5.62073,3.97949,1.534,4.55028,81,5,
83.0569,5.62103,3.97644,1.534,4.55028,81,5,
83.057,5.62134,3.97797,1.534,4.55028,81,5,
83.057,5.62164,3.97797,1.534,4.55028,81,5,
83.057,5.61981,3.97949,1.534,4.55028,81,5,
83.0571,5.61615,3.97797,1.534,4.55028,81,5,
83.0571,5.61584,3.97644,1.534,4.55028,81,5,
83.0571,5.61615,3.97949,1.534,4.55028,81,5,
83.0572,5.61554,3.97949,1.534,4.55028,81,5,
83.0572,5.61554,3.97949,1.534,4.55028,81,5,
83.0572,5.61584,3.98254,1.534,4.55028,81,5,
83.0573,5.61584,3.98102,1.534,4.55028,81,5,
83.0573,5.61584,3.98102,1.534,4.55028,81,5,
83.0573,5.61646,3.97949,1.534,4.55028,81,5,
83.0574,5.61554,3.98102,1.534,4.55028,81,5,
83.0574,5.61676,3.98102,1.534,4.55028,81,5,
83.0574,5.61646,3.98865,1.534,4.55028,81,5,
83.0575,5.61646,3.9917,1.534,4.55028,81,5,
83.0575,5.61615,3.99323,1.534,4.55028,81,5,
83.0575,5.61584,3.99017,1.534,4.55028,81,5,
83.0576,5.61554,3.99323,1.534,4.55028,81,5,
83.0576,5.61676,3.99323,1.534,4.55028,81,5,
83.0576,5.61646,3.98865,1.534,4.55028,81,5,
83.0577,5.61615,3.99017,1.534,4.55028,81,5,
83.0577,5.61584,3.9917,1.534,4.55028,81,5,
83.0577,5.61646,3.99475,1.534,4.55028,81,5,
83.0578,5.61615,3.9917,1.534,4.55028,81,5,
83.0578,5.61615,3.99323,1.534,4.55028,81,5,
83.0578,5.61676,3.99017,1.534,4.55028,81,5,
83.0579,5.61676,3.99017,1.534,4.55028,81,5,
83.0579,5.61646,3.99323,1.534,4.55028,81,5,
83.0579,5.61554,3.9917,1.534,4.55028,81,5,
83.058,5.61615,3.99323,1.534,4.55028,81,5,
83.058,5.61646,3.99017,1.534,4.55028,81,5,
83.058,5.61676,3.9917,1.534,4.55028,81,5,
83.0581,5.61401,3.99017,1.534,4.55028,81,5,
83.0581,5.61157,3.99323,1.534,4.55028,81,5,
83.0581,5.61157,3.99323,1.534,4.55028,81,5,
83.0582,5.61157,3.99323,1.534,4.55028,81,5,
83.0582,5.61096,3.99323,1.534,4.55028,81,5,
83.0582,5.61066,3.99323,1.534,4.55028,81,5,
83.0583,5.61157,3.99017,1.534,4.55028,81,5,
83.0583,5.61127,3.99017,1.534,4.55028,81,5,
83.0583,5.61096,3.99323,1.534,4.55028,81,5,
83.0584,5.61127,3.99323,1.534,4.55028,81,5,
83.0584,5.61127,3.99323,1.534,4.55028,81,5,
83.0584,5.61188,3.99323,1.534,4.55028,81,5,
83.0585,5.61127,3.99475,1.534,4.55028,81,5,
83.0585,5.61127,3.98865,1.534,4.55028,81,5,
83.0585,5.61096,3.99323,1.534,4.55028,81,5,
83.0586,5.61096,3.99323,1.534,4.55028,81,5,
83.0586,5.61127,3.9917,1.534,4.55028,81,5,
83.0586,5.61127,3.99017,1.534,4.55028,81,5,
83.0587,5.60944,3.9917,1.534,4.55028,81,5,
83.0587,5.60669,3.98865,1.534,4.55028,81,5,
83.0587,5.60608,3.99017,1.534,4.55028,81,5,
83.0588,5.60608,3.9917,1.534,4.55028,81,5,
83.0588,5.60669,3.9917,1.534,4.55028,81,5,
83.0588,5.60577,3.99017,1.534,4.55028,81,5,
83.0589,5.60608,3.9917,1.534,4.55028,81,5,
83.0589,5.60608,3.99323,1.534,4.55028,81,5,
83.0589,5.60638,3.98865,1.534,4.55028,81,5,
83.059,5.60577,3.9917,1.534,4.55028,81,5,
83.059,5.60577,3.98865,1.534,4.55028,81,5,
83.059,5.60608,3.99323,1.534,4.55028,81,5,
83.0591,5.6073,3.99017,1.534,4.55028,81,5,
83.0591,5.60181,3.99323,1.534,4.55028,81,5,
83.0591,5.60181,3.99323,1.534,4.55028,81,5,
83.0592,5.6015,3.9917,1.534,4.55028,81,5,
83.0592,5.60181,3.99017,1.534,4.55028,81,5,
83.0592,5.6015,3.99017,1.534,4.55028,81,5,
83.0593,5.60181,3.9917,1.534,4.55028,81,5,
83.0593,5.60089,3.99323,1.534,4.55028,81,5,
83.0593,5.60181,3.99017,1.534,4.55028,81,5,
83.0594,5.60089,3.99323,1.534,4.55028,81,5,
83.0594,5.6012,3.99017,1.534,4.55028,81,5,
83.0594,5.5957,3.99323,1.534,4.55028,81,5,
83.0595,5.59631,3.9917,1.534,4.55028,81,5,
83.0595,5.59692,3.9917,1.534,4.55028,81,5,
83.0595,5.59662,3.99017,1.534,4.55028,81,5,
83.0596,5.59662,3.99475,1.534,4.55028,81,5,
83.0596,5.59662,3.99323,1.534,4.55028,81,5,
83.0596,5.59662,3.9917,1.534,4.55028,81,5,
83.0597,5.59753,3.99017,1.534,4.55028,81,5,
83.0597,5.59113,3.98712,1.534,4.55028,81,5,
83.0597,5.59143,3.99017,1.534,4.55028,81,5,
83.0598,5.59174,3.9917,1.534,4.55028,81,5,
83.0598,5.59174,3.99017,1.534,4.55028,81,5,
83.0598,5.59082,3.99323,1.534,4.55028,81,5,
83.0599,5.59143,3.9917,1.534,4.55028,81,5,
83.0599,5.59174,3.9917,1.534,4.55028,81,5,
83.0599,5.58746,3.99017,1.534,4.55028,81,5,
83.06,5.58685,3.99475,1.534,4.55028,81,5,
83.06,5.58655,3.99323,1.534,4.55028,81,5,
83.06,5.58655,3.99017,1.534,4.55028,81,5,
83.0601,5.58716,3.9917,1.534,4.55028,81,5,
83.0601,5.58746,3.99323,1.534,4.55028,81,5,
83.0601,5.58655,3.99323,1.534,4.55028,81,5,
83.0602,5.58197,3.99017,1.534,4.55028,81,5,
83.0602,5.58228,3.99323,1.534,4.55028,81,5,
83.0602,5.58258,3.9917,1.534,4.55028,81,5,
83.0603,5.58167,3.9917,1.534,4.55028,81,5,
83.0603,5.58228,3.99017,1.534,4.55028,81,5,
83.0603,5.58136,3.99323,1.534,4.55028,81,5,
83.0604,5.5777,3.98865,1.534,4.55028,81,5,
83.0604,5.57739,3.99323,1.534,4.55028,81,5,
83.0604,5.57678,3.99323,1.534,4.55028,81,5,
83.0605,5.57678,3.99017,1.534,4.55028,81,5,
83.0605,5.57678,3.9917,1.534,4.55028,81,5,
83.0605,5.57617,3.99017,1.534,4.55028,81,5,
83.0606,5.5719,3.9917,1.534,4.55028,81,5,
83.0606,5.57251,3.9917,1.534,4.55028,81,5,
83.0606,5.57159,3.99323,1.534,4.55028,81,5,
83.0607,5.57281,3.9917,1.534,4.55028,81,5,
83.0607,5.57159,3.9917,1.534,4.55028,81,5,
83.0607,5.56671,3.9917,1.534,4.55028,81,5,
83.0608,5.56732,3.99323,1.534,4.55028,81,5,
83.0608,5.56641,3.99017,1.534,4.55028,81,5,
83.0608,5.56702,3.99475,1.534,4.55028,81,5,
83.0609,5.56671,3.99475,1.534,4.55028,81,5,
83.0609,5.56335,3.9917,1.534,4.55028,81,5,
83.0609,5.56213,3.99017,1.534,4.55028,81,5,
83.061,5.56244,4.00696,1.534,4.55028,81,5,
83.061,5.56183,4.00543,1.534,4.55028,81,5,
83.061,5.56244,4.00238,1.534,4.55028,81,5,
83.0611,5.55756,4.00696,1.534,4.55028,81,5,
83.0611,5.55695,4.00086,1.534,4.55028,81,5,
83.0611,5.55695,4.00238,1.534,4.55028,81,5,
83.0612,5.55817,4.00391,1.534,4.55028,81,5,
83.0612,5.55695,4.00086,1.534,4.55028,81,5,
83.0612,5.55328,4.00391,1.534,4.55028,81,5,
83.0613,5.55237,4.00543,1.534,4.55028,81,5,
83.0613,5.55237,4.00391,1.534,4.55028,81,5,
83.0613,5.55267,4.00238,1.534,4.55028,81,5,
83.0614,5.55206,4.00696,1.534,4.55028,81,5,
83.0614,5.5484,4.00391,1.534,4.55028,81,5,
83.0614,5.54779,4.00543,1.534,4.55028,81,5,
83.0615,5.5481,4.00238,1.534,4.55028,81,5,
83.0615,5.5481,4.00086,1.534,4.55028,81,5,
83.0615,5.54749,4.00391,1.534,4.55028,81,5,
83.0616,5.54382,4.00543,1.534,4.55028,81,5,
83.0616,5.5426,4.00391,1.534,4.55028,81,5,
83.0616,5.54291,4.00238,1.534,4.55028,81,5,
83.0617,5.54291,4.00391,1.534,4.55028,81,5,
83.0617,5.54352,4.00238,1.534,4.55028,81,5,
83.0617,5.53864,4.00391,1.534,4.55028,81,5,
83.0618,5.53772,4.00238,1.534,4.55028,81,5,
83.0618,5.53802,4.00543,1.534,4.55028,81,5,
83.0618,5.53802,4.00238,1.534,4.55028,81,5,
83.0619,5.53802,4.00391,1.534,4.55028,81,5,
83.0619,5.53314,4.00391,1.534,4.55028,81,5,
83.0619,5.53284,4.00391,1.534,4.55028,81,5,
83.062,5.53284,4.00238,1.534,4.55028,81,5,
83.062,5.53253,4.00238,1.534,4.55028,81,5,
83.062,5.53284,4.00543,1.534,4.55028,81,5,
83.0621,5.52826,4.00391,1.534,4.55028,81,5,
83.0621,5.52826,4.00391,1.534,4.55028,81,5,
83.0621,5.52765,4.00543,1.534,4.55028,81,5,
83.0622,5.52795,4.00238,1.534,4.55028,81,5,
83.0622,5.52795,4.00696,1.534,4.55028,81,5,
83.0622,5.52399,4.00238,1.534,4.55028,81,5,
83.0623,5.52307,4.00238,1.534,4.55028,81,5,
83.0623,5.52246,4.00391,1.534,4.55028,81,5,
83.0623,5.52368,4.00543,1.534,4.55028,81,5,
83.0624,5.52307,4.00543,1.534,4.55028,81,5,
83.0624,5.51819,4.00086,1.534,4.55028,81,5,
83.0624,5.51819,4.00391,1.534,4.55028,81,5,
83.0625,5.51849,4.00391,1.534,4.55028,81,5,
83.0625,5.51849,4.00391,1.534,4.55028,81,5,
83.0625,5.51727,4.00543,1.534,4.55028,81,5,
83.0626,5.5127,4.00391,1.534,4.55028,81,5,
83.0626,5.513,4.00391,1.534,4.55028,81,5,
83.0626,5.51361,4.00391,1.534,4.55028,81,5,
83.0627,5.51361,4.00238,1.534,4.55028,81,5,
83.0627,5.513,4.00543,1.534,4.55028,81,5,
83.0627,5.50812,4.00391,1.534,4.55028,81,5,
83.0628,5.50812,4.00391,1.534,4.55028,81,5,
83.0628,5.50812,4.00391,1.534,4.55028,81,5,
83.0628,5.50781,4.00238,1.534,4.55028,81,5,
83.0629,5.50812,4.00391,1.534,4.55028,81,5,
83.0629,5.50201,4.00238,1.534,4.55028,81,5,
83.0629,5.50323,4.00238,1.534,4.55028,81,5,
83.063,5.50323,4.00238,1.534,4.55028,81,5,
83.063,5.50323,3.99933,1.534,4.55028,81,5,
83.063,5.50262,4.00238,1.534,4.55028,81,5,
83.0631,5.49774,4.00543,1.534,4.55028,81,5,
83.0631,5.49835,4.00391,1.534,4.55028,81,5,
83.0631,5.49896,4.00238,1.534,4.55028,81,5,
83.0632,5.49805,4.00391,1.534,4.55028,81,5,
83.0632,5.49927,4.00391,1.534,4.55028,81,5,
83.0632,5.49347,4.00543,1.534,4.55028,81,5,
83.0633,5.49316,4.00238,1.534,4.55028,81,5,
83.0633,5.49316,4.00238,1.534,4.55028,81,5,
83.0633,5.49347,4.00391,1.534,4.55028,81,5,
83.0634,5.49164,3.99933,1.534,4.55028,81,5,
83.0634,5.48859,4.00238,1.534,4.55028,81,5,
83.0634,5.4892,4.00543,1.534,4.55028,81,5,
83.0635,5.48859,4.00543,1.534,4.55028,81,5,
83.0635,5.4895,4.00391,1.534,4.55028,81,5,
83.0635,5.48431,4.00238,1.534,4.55028,81,5,
83.0636,5.48401,4.00696,1.534,4.55028,81,5,
83.0636,5.48431,4.00238,1.534,4.55028,81,5,
83.0636,5.48462,4.00391,1.534,4.55028,81,5,
83.0637,5.48401,4.00543,1.534,4.55028,81,5,
83.0637,5.47913,4.00543,1.534,4.55028,81,5,
83.0637,5.47913,4.00543,1.534,4.55028,81,5,
83.0638,5.47882,4.00238,1.534,4.55028,81,5,
83.0638,5.47882,4.01001,1.534,4.55028,81,5,
83.0638,5.47913,4.00238,1.534,4.55028,81,5,
83.0639,5.47455,4.00543,1.534,4.55028,81,5,
83.0639,5.47363,4.00391,1.534,4.55028,81,5,
83.0639,5.47455,4.00238,1.534,4.55028,81,5,
83.064,5.47394,4.00543,1.534,4.55028,81,5,
83.064,5.47028,4.00086,1.534,4.55028,81,5,
83.064,5.46967,4.00086,1.534,4.55028,81,5,
83.0641,5.46875,4.00086,1.534,4.55028,81,5,
83.0641,5.46906,4.00238,1.534,4.55028,81,5,
83.0641,5.46906,4.00238,1.534,4.55028,81,5,
83.0642,5.46539,4.00086,1.534,4.55028,81,5,
83.0642,5.46448,4.00391,1.534,4.55028,81,5,
83.0642,5.46417,4.00543,1.534,4.55028,81,5,
83.0643,5.46478,4.00391,1.534,4.55028,81,5,
83.0643,5.46387,4.00238,1.534,4.55028,81,5,
83.0643,5.45959,4.00086,1.534,4.55028,81,5,
83.0644,5.46021,4.00391,1.534,4.55028,81,5,
83.0644,5.45959,4.00696,1.534,4.55028,81,5,
83.0644,5.45929,4.00543,1.534,4.55028,81,5,
83.0645,5.45929,4.00391,1.534,4.55028,81,5,
83.0645,5.45471,4.00238,1.534,4.55028,81,5,
83.0645,5.45441,4.00696,1.534,4.55028,81,5,
83.0646,5.45471,4.00238,1.534,4.55028,81,5,
83.0646,5.45441,4.00238,1.534,4.55028,81,5,
83.0646,5.45471,4.00543,1.534,4.55028,81,5,
83.0647,5.45013,4.00848,1.534,4.55028,81,5,
83.0647,5.44983,4.00848,1.534,4.55028,81,5,
83.0647,5.45013,4.00696,1.534,4.55028,81,5,
83.0648,5.44983,4.00391,1.534,4.55028,81,5,
83.0648,5.44952,4.00238,1.534,4.55028,81,5,
83.0648,5.44586,4.00238,1.534,4.55028,81,5,
83.0649,5.44464,4.00543,1.534,4.55028,81,5,
83.0649,5.44495,4.00238,1.534,4.55028,81,5,
83.0649,5.44525,4.00543,1.534,4.55028,81,5,
83.065,5.44464,4.00391,1.534,4.55028,81,5,
83.065,5.44464,4.00238,1.534,4.55028,81,5,
83.065,5.44037,4.00391,1.534,4.55028,81,5,
83.0651,5.43976,4.00543,1.534,4.55028,81,5,
83.0651,5.44006,4.00391,1.534,4.55028,81,5,
83.0651,5.43976,4.01611,1.534,4.55028,81,5,
83.0652,5.43976,4.01154,1.534,4.55028,81,5,
83.0652,5.4364,4.01764,1.534,4.55028,81,5,
83.0652,5.43488,4.01306,1.534,4.55028,81,5,
83.0653,5.43488,4.01154,1.534,4.55028,81,5,
83.0653,5.43549,4.01459,1.534,4.55028,81,5,
83.0653,5.43518,4.01611,1.534,4.55028,81,5,
83.0654,5.43488,4.01459,1.534,4.55028,81,5,
83.0654,5.42999,4.01764,1.534,4.55028,81,5,
83.0654,5.42999,4.01459,1.534,4.55028,81,5,
83.0655,5.43091,4.01154,1.534,4.55028,81,5,
83.0655,5.4303,4.01764,1.534,4.55028,81,5,
83.0655,5.4303,4.01611,1.534,4.55028,81,5,
83.0656,5.42877,4.01611,1.534,4.55028,81,5,
83.0656,5.42603,4.01611,1.534,4.55028,81,5,
83.0656,5.4248,4.01764,1.534,4.55028,81,5,
83.0657,5.42511,4.01306,1.534,4.55028,81,5,
83.0657,5.42542,4.01764,1.534,4.55028,81,5,
83.0657,5.42542,4.01306,1.534,4.55028,81,5,
83.0658,5.42023,4.02069,1.534,4.55028,81,5,
83.0658,5.42053,4.01459,1.534,4.55028,81,5,
83.0658,5.41992,4.01611,1.534,4.55028,81,5,
83.0659,5.41962,4.02069,1.534,4.55028,81,5,
83.0659,5.41992,4.01611,1.534,4.55028,81,5,
83.0659,5.41809,4.01764,1.534,4.55028,81,5,
83.066,5.41534,4.01459,1.534,4.55028,81,5,
83.066,5.41504,4.01764,1.534,4.55028,81,5,
83.066,5.41534,4.01611,1.534,4.55028,81,5,
83.0661,5.41565,4.01764,1.534,4.55028,81,5,
83.0661,5.41565,4.01459,1.534,4.55028,81,5,
83.0661,5.41077,4.01611,1.534,4.55028,81,5,
83.0662,5.41046,4.01154,1.534,4.55028,81,5,
83.0662,5.41046,4.01764,1.534,4.55028,81,5,
83.0662,5.41046,4.01764,1.534,4.55028,81,5,
83.0663,5.41016,4.01611,1.534,4.55028,81,5,
83.0663,5.40527,4.01611,1.534,4.55028,81,5,
83.0663,5.40558,4.01764,1.534,4.55028,81,5,
83.0664,5.40558,4.01611,1.534,4.55028,81,5,
83.0664,5.40527,4.01764,1.534,4.55028,81,5,
83.0664,5.40527,4.01764,1.534,4.55028,81,5,
83.0665,5.4007,4.01611,1.534,4.55028,81,5,
83.0665,5.40039,4.01764,1.534,4.55028,81,5,
83.0665,5.401,4.01611,1.534,4.55028,81,5,
83.0666,5.40039,4.01917,1.534,4.55028,81,5,
83.0666,5.39886,4.01764,1.534,4.55028,81,5,
83.0666,5.3952,4.01764,1.534,4.55028,81,5,
83.0667,5.39551,4.01917,1.534,4.55028,81,5,
83.0667,5.3949,4.01764,1.534,4.55028,81,5,
83.0667,5.39551,4.01306,1.534,4.55028,81,5,
83.0668,5.39124,4.01764,1.534,4.55028,81,5,
83.0668,5.39093,4.01917,1.534,4.55028,81,5,
83.0668,5.39093,4.01764,1.534,4.55028,81,5,
83.0669,5.39062,4.01611,1.534,4.55028,81,5,
83.0669,5.3891,4.01611,1.534,4.55028,81,5,
83.0669,5.38544,4.01611,1.534,4.55028,81,5,
83.067,5.38605,4.01306,1.534,4.55028,81,5,
83.067,5.38605,4.01917,1.534,4.55028,81,5,
83.067,5.38544,4.01764,1.534,4.55028,81,5,
83.0671,5.38147,4.01764,1.534,4.55028,81,5,
83.0671,5.38147,4.01459,1.534,4.55028,81,5,
83.0671,5.38116,4.01459,1.534,4.55028,81,5,
83.0672,5.38116,4.01917,1.534,4.55028,81,5,
83.0672,5.37659,4.01611,1.534,4.55028,81,5,
83.0672,5.37598,4.02069,1.534,4.55028,81,5,
83.0673,5.37628,4.01459,1.534,4.55028,81,5,
83.0673,5.37659,4.01459,1.534,4.55028,81,5,
83.0673,5.3714,4.01459,1.534,4.55028,81,5,
83.0674,5.3714,4.01611,1.534,4.55028,81,5,
83.0674,5.37048,4.01611,1.534,4.55028,81,5,
83.0674,5.37079,4.01459,1.534,4.55028,81,5,
83.0675,5.36621,4.01917,1.534,4.55028,81,5,
83.0675,5.36591,4.01764,1.534,4.55028,81,5,
83.0675,5.36621,4.01611,1.534,4.55028,81,5,
83.0676,5.36652,4.01764,1.534,4.55028,81,5,
83.0676,5.36194,4.01764,1.534,4.55028,81,5,
83.0676,5.36102,4.01611,1.534,4.55028,81,5,
83.0677,5.36133,4.01306,1.534,4.55028,81,5,
83.0677,5.35889,4.01459,1.534,4.55028,81,5,
83.0677,5.35675,4.01306,1.534,4.55028,81,5,
83.0678,5.35583,4.01611,1.534,4.55028,81,5,
83.0678,5.35645,4.01764,1.534,4.55028,81,5,
83.0678,5.35278,4.01764,1.534,4.55028,81,5,
83.0679,5.35095,4.01611,1.534,4.55028,81,5,
83.0679,5.35065,4.01764,1.534,4.55028,81,5,
83.0679,5.35095,4.01611,1.534,4.55028,81,5,
83.068,5.34729,4.01611,1.534,4.55028,81,5,
83.068,5.34668,4.01459,1.534,4.55028,81,5,
83.068,5.34607,4.01764,1.534,4.55028,81,5,
83.0681,5.34668,4.01611,1.534,4.55028,81,5,
83.0681,5.3418,4.01917,1.534,4.55028,81,5,
83.0681,5.3418,4.01611,1.534,4.55028,81,5,
83.0682,5.3418,4.01764,1.534,4.55028,81,5,
83.0682,5.33752,4.01306,1.534,4.55028,81,5,
83.0682,5.336,4.01917,1.534,4.55028,81,5,
83.0683,5.33691,4.01764,1.534,4.55028,81,5,
83.0683,5.336,4.01764,1.534,4.55028,81,5,
83.0683,5.33142,4.01306,1.534,4.55028,81,5,
83.0684,5.33203,4.01459,1.534,4.55028,81,5,
83.0684,5.33142,4.01611,1.534,4.55028,81,5,
83.0684,5.32837,4.01459,1.534,4.55028,81,5,
83.0685,5.32654,4.01611,1.534,4.55028,81,5,
83.0685,5.32654,4.01306,1.534,4.55028,81,5,
83.0685,5.32654,4.02527,1.534,4.55028,81,5,
83.0686,5.32196,4.02832,1.534,4.55028,81,5,
83.0686,5.32166,4.0268,1.534,4.55028,81,5,
83.0686,5.32166,4.02985,1.534,4.55028,81,5,
83.0687,5.31738,4.0268,1.534,4.55028,81,5,
83.0687,5.31616,4.0268,1.534,4.55028,81,5,
83.0687,5.31708,4.02527,1.534,4.55028,81,5,
83.0688,5.31494,4.0268,1.534,4.55028,81,5,
83.0688,5.31219,4.0268,1.534,4.55028,81,5,
83.0688,5.31281,4.02832,1.534,4.55028,81,5,
83.0689,5.31128,4.02985,1.534,4.55028,81,5,
83.0689,5.30731,4.02985,1.534,4.55028,81,5,
83.0689,5.30792,4.0268,1.534,4.55028,81,5,
83.069,5.30701,4.02985,1.534,4.55028,81,5,
83.069,5.30396,4.02985,1.534,4.55028,81,5,
83.069,5.30304,4.02832,1.534,4.55028,81,5,
83.0691,5.30212,4.0268,1.534,4.55028,81,5,
83.0691,5.30121,4.02527,1.534,4.55028,81,5,
83.0691,5.29785,4.02985,1.534,4.55028,81,5,
83.0692,5.29785,4.0268,1.534,4.55028,81,5,
83.0692,5.29816,4.02985,1.534,4.55028,81,5,
83.0692,5.29297,4.02985,1.534,4.55028,81,5,
83.0693,5.29297,4.03137,1.534,4.55028,81,5,
83.0693,5.29358,4.0268,1.534,4.55028,81,5,
83.0693,5.28809,4.02832,1.534,4.55028,81,5,
83.0694,5.28748,4.0268,1.534,4.55028,81,5,
83.0694,5.28809,4.02985,1.534,4.55028,81,5,
83.0694,5.28381,4.02527,1.534,4.55028,81,5,
83.0695,5.28381,4.02832,1.534,4.55028,81,5,
83.0695,5.2829,4.0268,1.534,4.55028,81,5,
83.0695,5.28107,4.02985,1.534,4.55028,81,5,
83.0696,5.27802,4.0268,1.534,4.55028,81,5,
83.0696,5.27802,4.02832,1.534,4.55028,81,5,
83.0696,5.27832,4.03442,1.534,4.55028,81,5,
83.0697,5.27313,4.0268,1.534,4.55028,81,5,
83.0697,5.27344,4.02832,1.534,4.55028,81,5,
83.0697,5.27374,4.02527,1.534,4.55028,81,5,
83.0698,5.26917,4.0268,1.534,4.55028,81,5,
83.0698,5.26825,4.03137,1.534,4.55028,81,5,
83.0698,5.26825,4.02374,1.534,4.55028,81,5,
83.0699,5.26459,4.03137,1.534,4.55028,81,5,
83.0699,5.26367,4.02832,1.534,4.55028,81,5,
83.0699,5.26337,4.02832,1.534,4.55028,81,5,
83.07,5.26154,4.0268,1.534,4.55028,81,5,
83.07,5.25818,4.02985,1.534,4.55028,81,5,
83.07,5.25909,4.0268,1.534,4.55028,81,5,
83.0701,5.25879,4.02832,1.534,4.55028,81,5,
83.0701,5.2536,4.02985,1.534,4.55028,81,5,
83.0701,5.25299,4.02832,1.534,4.55028,81,5,
83.0702,5.2536,4.02832,1.534,4.55028,81,5,
83.0702,5.24872,4.0268,1.534,4.55028,81,5,
83.0702,5.24811,4.02832,1.534,4.55028,81,5,
83.0703,5.24933,4.02832,1.534,4.55028,81,5,
83.0703,5.24445,4.02985,1.534,4.55028,81,5,
83.0703,5.24414,4.0268,1.534,4.55028,81,5,
83.0704,5.24414,4.02985,1.534,4.55028,81,5,
83.0704,5.2417,4.02832,1.534,4.55028,81,5,
83.0704,5.23895,4.0268,1.534,4.55028,81,5,
83.0705,5.23865,4.0268,1.534,4.55028,81,5,
83.0705,5.23804,4.02832,1.534,4.55028,81,5,
83.0705,5.23376,4.02832,1.534,4.55028,81,5,
83.0706,5.23376,4.02985,1.534,4.55028,81,5,
83.0706,5.23376,4.02527,1.534,4.55028,81,5,
83.0706,5.22888,4.02985,1.534,4.55028,81,5,
83.0707,5.22919,4.02527,1.534,4.55028,81,5,
83.0707,5.22858,4.0268,1.534,4.55028,81,5,
83.0707,5.22705,4.02527,1.534,4.55028,81,5,
83.0708,5.2243,4.02832,1.534,4.55028,81,5,
83.0708,5.224,4.02985,1.534,4.55028,81,5,
83.0708,5.2243,4.02832,1.534,4.55028,81,5,
83.0709,5.21973,4.02527,1.534,4.55028,81,5,
83.0709,5.21942,4.02527,1.534,4.55028,81,5,
83.0709,5.21881,4.03137,1.534,4.55028,81,5,
83.071,5.21484,4.02985,1.534,4.55028,81,5,
83.071,5.21393,4.0268,1.534,4.55028,81,5,
83.071,5.21423,4.0268,1.534,4.55028,81,5,
83.0711,5.21423,4.02985,1.534,4.55028,81,5,
83.0711,5.20966,4.02832,1.534,4.55028,81,5,
83.0711,5.20874,4.02832,1.534,4.55028,81,5,
83.0712,5.21027,4.02527,1.534,4.55028,81,5,
83.0712,5.20782,4.02985,1.534,4.55028,81,5,
83.0712,5.20416,4.04205,1.534,4.55028,81,5,
83.0713,5.20447,4.04053,1.534,4.55028,81,5,
83.0713,5.20416,4.04205,1.534,4.55028,81,5,
83.0713,5.2002,4.04053,1.534,4.55028,81,5,
83.0714,5.19897,4.04053,1.534,4.55028,81,5,
83.0714,5.2005,4.039,1.534,4.55028,81,5,
83.0714,5.19958,4.039,1.534,4.55028,81,5,
83.0715,5.1947,4.039,1.534,4.55028,81,5,
83.0715,5.19409,4.04205,1.534,4.55028,81,5,
83.0715,5.19409,4.03748,1.534,4.55028,81,5,
83.0716,5.19531,4.039,1.534,4.55028,81,5,
83.0716,5.18921,4.039,1.534,4.55028,81,5,
83.0716,5.18951,4.03595,1.534,4.55028,81,5,
83.0717,5.18921,4.04053,1.534,4.55028,81,5,
83.0717,5.1889,4.04053,1.534,4.55028,81,5,
83.0717,5.18494,4.04053,1.534,4.55028,81,5,
83.0718,5.18433,4.03748,1.534,4.55028,81,5,
83.0718,5.18494,4.04053,1.534,4.55028,81,5,
83.0718,5.18463,4.04205,1.534,4.55028,81,5,
83.0719,5.18005,4.03748,1.534,4.55028,81,5,
83.0719,5.18005,4.04053,1.534,4.55028,81,5,
83.0719,5.18036,4.04358,1.534,4.55028,81,5,
83.072,5.17975,4.039,1.534,4.55028,81,5,
83.072,5.17853,4.04053,1.534,4.55028,81,5,
83.072,5.17456,4.04053,1.534,4.55028,81,5,
83.0721,5.17456,4.039,1.534,4.55028,81,5,
83.0721,5.17517,4.039,1.534,4.55028,81,5,
83.0721,5.17517,4.04053,1.534,4.55028,81,5,
83.0722,5.17029,4.04205,1.534,4.55028,81,5,
83.0722,5.17059,4.039,1.534,4.55028,81,5,
83.0722,5.17029,4.04205,1.534,4.55028,81,5,
83.0723,5.17029,4.04205,1.534,4.55028,81,5,
83.0723,5.16998,4.039,1.534,4.55028,81,5,
83.0723,5.1651,4.039,1.534,4.55028,81,5,
83.0724,5.16449,4.039,1.534,4.55028,81,5,
83.0724,5.1651,4.039,1.534,4.55028,81,5,
83.0724,5.16418,4.04053,1.534,4.55028,81,5,
83.0725,5.1651,4.04358,1.534,4.55028,81,5,
83.0725,5.15961,4.039,1.534,4.55028,81,5,
83.0725,5.15991,4.04205,1.534,4.55028,81,5,
83.0726,5.15991,4.03748,1.534,4.55028,81,5,
83.0726,5.15961,4.04053,1.534,4.55028,81,5,
83.0726,5.15991,4.03748,1.534,4.55028,81,5,
83.0727,5.15564,4.039,1.534,4.55028,81,5,
83.0727,5.15564,4.039,1.534,4.55028,81,5,
83.0727,5.15564,4.03595,1.534,4.55028,81,5,
83.0728,5.15503,4.039,1.534,4.55028,81,5,
83.0728,5.15533,4.04053,1.534,4.55028,81,5,
83.0728,5.15564,4.04358,1.534,4.55028,81,5,
83.0729,5.15015,4.04053,1.534,4.55028,81,5,
83.0729,5.15106,4.04205,1.534,4.55028,81,5,
83.0729,5.15076,4.039,1.534,4.55028,81,5,
83.073,5.15045,4.04053,1.534,4.55028,81,5,
83.073,5.15076,4.039,1.534,4.55028,81,5,
83.073,5.15045,4.039,1.534,4.55028,81,5,
83.0731,5.14587,4.039,1.534,4.55028,81,5,
83.0731,5.14496,4.04205,1.534,4.55028,81,5,
83.0731,5.14587,4.039,1.534,4.55028,81,5,
83.0732,5.14648,4.03595,1.534,4.55028,81,5,
83.0732,5.14587,4.039,1.534,4.55028,81,5,
83.0732,5.14587,4.04053,1.534,4.55028,81,5,
83.0733,5.14374,4.03748,1.534,4.55028,81,5,
83.0733,5.14099,4.039,1.534,4.55028,81,5,
83.0733,5.14008,4.04358,1.534,4.55028,81,5,
83.0734,5.14099,4.04205,1.534,4.55028,81,5,
83.0734,5.14038,4.04053,1.534,4.55028,81,5,
83.0734,5.14099,4.04053,1.534,4.55028,81,5,
83.0735,5.14069,4.039,1.534,4.55028,81,5,
83.0735,5.14069,4.04358,1.534,4.55028,81,5,
83.0735,5.13611,4.04053,1.534,4.55028,81,5,
83.0736,5.13641,4.04205,1.534,4.55028,81,5,
83.0736,5.13611,4.03748,1.534,4.55028,81,5,
83.0736,5.13641,4.039,1.534,4.55028,81,5,
83.0737,5.1358,4.04053,1.534,4.55028,81,5,
83.0737,5.13641,4.04053,1.534,4.55028,81,5,
83.0737,5.13641,4.04053,1.534,4.55028,81,5,
83.0738,5.13672,4.039,1.534,4.55028,81,5,
83.0738,5.13397,4.04053,1.534,4.55028,81,5,
83.0738,5.13092,4.04053,1.534,4.55028,81,5,
83.0739,5.13092,4.039,1.534,4.55028,81,5,
83.0739,5.13092,4.039,1.534,4.55028,81,5,
83.0739,5.13031,4.039,1.534,4.55028,81,5,
83.074,5.13062,4.04053,1.534,4.55028,81,5,
83.074,5.13153,4.039,1.534,4.55028,81,5,
83.074,5.13123,4.04053,1.534,4.55028,81,5,
83.0741,5.13153,4.04053,1.534,4.55028,81,5,
83.0741,5.13031,4.04053,1.534,4.55028,81,5,
83.0741,5.13184,4.04205,1.534,4.55028,81,5,
83.0742,5.13,4.04205,1.534,4.55028,81,5,
83.0742,5.12573,4.039,1.534,4.55028,81,5,
83.0742,5.12604,4.039,1.534,4.55028,81,5,
83.0743,5.12634,4.03748,1.534,4.55028,81,5,
83.0743,5.12573,4.039,1.534,4.55028,81,5,
83.0743,5.12573,4.04053,1.534,4.55028,81,5,
83.0744,5.12604,4.04053,1.534,4.55028,81,5,
83.0744,5.12604,4.04358,1.534,4.55028,81,5,
83.0744,5.12604,4.04205,1.534,4.55028,81,5,
83.0745,5.12634,4.039,1.534,4.55028,81,5,
83.0745,5.12604,4.04205,1.534,4.55028,81,5,
83.0745,5.12634,4.04053,1.534,4.55028,81,5,
83.0746,5.12573,4.04053,1.534,4.55028,81,5,
83.0746,5.12573,4.04053,1.534,4.55028,81,5,
83.0746,5.12604,4.039,1.534,4.55028,81,5,
83.0747,5.12634,4.039,1.534,4.55028,81,5,
83.0747,5.12177,4.04205,1.534,4.55028,81,5,
83.0747,5.12085,4.03748,1.534,4.55028,81,5,
83.0748,5.12115,4.04358,1.534,4.55028,81,5,
83.0748,5.12115,4.04053,1.534,4.55028,81,5,
83.0748,5.12146,4.039,1.534,4.55028,81,5,
83.0749,5.12085,4.04053,1.534,4.55028,81,5,
83.0749,5.12115,4.039,1.534,4.55028,81,5,
83.0749,5.12177,4.04205,1.534,4.55028,81,5,
83.075,5.12146,4.04053,1.534,4.55028,81,5,
83.075,5.12177,4.04053,1.534,4.55028,81,5,
83.075,5.12146,4.039,1.534,4.55028,81,5,
83.0751,5.12146,4.039,1.534,4.55028,81,5,
83.0751,5.12115,4.04205,1.534,4.55028,81,5,
83.0751,5.12115,4.039,1.534,4.55028,81,5,
83.0752,5.12146,4.039,1.534,4.55028,81,5,
83.0752,5.12054,4.04358,1.534,4.55028,81,5,
83.0752,5.12115,4.04205,1.534,4.55028,81,5,
83.0753,5.12115,4.039,1.534,4.55028,81,5,
83.0753,5.12207,4.04053,1.534,4.55028,81,5,
83.0753,5.12146,4.04053,1.534,4.55028,81,5,
83.0754,5.12146,4.03595,1.534,4.55028,81,5,
83.0754,5.12146,4.04053,1.534,4.55028,81,5,
83.0754,5.11963,4.04205,1.534,4.55028,81,5,
83.0755,5.11597,4.04358,1.534,4.55028,81,5,
83.0755,5.11627,4.04205,1.534,4.55028,81,5,
83.0755,5.11566,4.04205,1.534,4.55028,81,5,
83.0756,5.11627,4.04053,1.534,4.55028,81,5,
83.0756,5.11658,4.05274,1.534,4.55028,81,5,
83.0756,5.11627,4.05579,1.534,4.55028,81,5,
83.0757,5.11627,4.05121,1.534,4.55028,81,5,
83.0757,5.11566,4.05274,1.534,4.55028,81,5,
83.0757,5.11658,4.05274,1.534,4.55028,81,5,
83.0758,5.11658,4.05731,1.534,4.55028,81,5,
83.0758,5.11627,4.05426,1.534,4.55028,81,5,
83.0758,5.11627,4.05426,1.534,4.55028,81,5,
83.0759,5.11627,4.05426,1.534,4.55028,81,5,
83.0759,5.11627,4.05274,1.534,4.55028,81,5,
83.0759,5.11627,4.05426,1.534,4.55028,81,5,
83.076,5.11627,4.05274,1.534,4.55028,81,5,
83.076,5.11597,4.05121,1.534,4.55028,81,5,
83.076,5.11627,4.05121,1.534,4.55028,81,5,
83.0761,5.11566,4.05274,1.534,4.55028,81,5,
83.0761,5.11597,4.05274,1.534,4.55028,81,5,
83.0761,5.11627,4.04968,1.534,4.55028,81,5,
83.0762,5.11597,4.05274,1.534,4.55028,81,5,
83.0762,5.11597,4.05579,1.534,4.55028,81,5,
83.0762,5.11597,4.05274,1.534,4.55028,81,5,
83.0763,5.11597,4.05274,1.534,4.55028,81,5,
83.0763,5.11627,4.05426,1.534,4.55028,81,5,
83.0763,5.11658,4.05274,1.534,4.55028,81,5,
83.0764,5.11597,4.05274,1.534,4.55028,81,5,
83.0764,5.11658,4.05274,1.534,4.55028,81,5,
83.0764,5.11627,4.05274,1.534,4.55028,81,5,
83.0765,5.11627,4.05121,1.534,4.55028,81,5,
83.0765,5.11566,4.05274,1.534,4.55028,81,5,
83.0765,5.11627,4.05121,1.534,4.55028,81,5,
83.0766,5.11627,4.05426,1.534,4.55028,81,5,
83.0766,5.11688,4.05426,1.534,4.55028,81,5,
83.0766,5.11597,4.05121,1.534,4.55028,81,5,
83.0767,5.11627,4.04968,1.534,4.55028,81,5,
83.0767,5.11627,4.05274,1.534,4.55028,81,5,
83.0767,5.11566,4.05426,1.534,4.55028,81,5,
83.0768,5.11566,4.05426,1.534,4.55028,81,5,
83.0768,5.11658,4.05121,1.534,4.55028,81,5,
83.0768,5.11627,4.05426,1.534,4.55028,81,5,
83.0769,5.11597,4.05121,1.534,4.55028,81,5,
83.0769,5.11597,4.05121,1.534,4.55028,81,5,
83.0769,5.11597,4.05121,1.534,4.55028,81,5,
83.077,5.11597,4.05579,1.534,4.55028,81,5,
83.077,5.11627,4.05121,1.534,4.55028,81,5,
83.077,5.11627,4.05426,1.534,4.55028,81,5,
83.0771,5.11566,4.05121,1.534,4.55028,81,5,
83.0771,5.11627,4.05121,1.534,4.55028,81,5,
83.0771,5.11658,4.05274,1.534,4.55028,81,5,
83.0772,5.11627,4.05274,1.534,4.55028,81,5,
83.0772,5.11566,4.04968,1.534,4.55028,81,5,
83.0772,5.11597,4.05121,1.534,4.55028,81,5,
83.0773,5.11658,4.05274,1.534,4.55028,81,5,
83.0773,5.11597,4.05121,1.534,4.55028,81,5,
83.0773,5.1181,4.05121,1.534,4.55028,81,5,
83.0774,5.12146,4.04968,1.534,4.55028,81,5,
83.0774,5.12146,4.04968,1.534,4.55028,81,5,
83.0774,5.12115,4.05121,1.534,4.55028,81,5,
83.0775,5.12146,4.05426,1.534,4.55028,81,5,
83.0775,5.12115,4.05274,1.534,4.55028,81,5,
83.0775,5.12115,4.05274,1.534,4.55028,81,5,
83.0776,5.12115,4.04968,1.534,4.55028,81,5,
83.0776,5.12146,4.05274,1.534,4.55028,81,5,
83.0776,5.12054,4.05121,1.534,4.55028,81,5,
83.0777,5.12085,4.05426,1.534,4.55028,81,5,
83.0777,5.12054,4.05426,1.534,4.55028,81,5,
83.0777,5.12085,4.05426,1.534,4.55028,81,5,
83.0778,5.12054,4.05579,1.534,4.55028,81,5,
83.0778,5.12573,4.05274,1.534,4.55028,81,5,
83.0778,5.12573,4.05274,1.534,4.55028,81,5,
83.0779,5.12604,4.05274,1.534,4.55028,81,5,
83.0779,5.12604,4.05426,1.534,4.55028,81,5,
83.0779,5.12665,4.05426,1.534,4.55028,81,5,
83.078,5.12604,4.05121,1.534,4.55028,81,5,
83.078,5.12543,4.05426,1.534,4.55028,81,5,
83.078,5.12634,4.05274,1.534,4.55028,81,5,
83.0781,5.12604,4.05274,1.534,4.55028,81,5,
83.0781,5.13,4.05121,1.534,4.55028,81,5,
83.0781,5.13184,4.05274,1.534,4.55028,81,5,
83.0782,5.13062,4.05121,1.534,4.55028,81,5,
83.0782,5.13062,4.04816,1.534,4.55028,81,5,
83.0782,5.13062,4.05274,1.534,4.55028,81,5,
83.0783,5.13123,4.05426,1.534,4.55028,81,5,
83.0783,5.13092,4.05426,1.534,4.55028,81,5,
83.0783,5.13092,4.05274,1.534,4.55028,81,5,
83.0784,5.1355,4.05426,1.534,4.55028,81,5,
83.0784,5.1358,4.05121,1.534,4.55028,81,5,
83.0784,5.1358,4.05426,1.534,4.55028,81,5,
83.0785,5.1358,4.05274,1.534,4.55028,81,5,
83.0785,5.13611,4.05121,1.534,4.55028,81,5,
83.0785,5.1355,4.05426,1.534,4.55028,81,5,
83.0786,5.13611,4.05121,1.534,4.55028,81,5,
83.0786,5.14038,4.05274,1.534,4.55028,81,5,
83.0786,5.14069,4.04968,1.534,4.55028,81,5,
83.0787,5.1413,4.05426,1.534,4.55028,81,5,
83.0787,5.14069,4.05274,1.534,4.55028,81,5,
83.0787,5.14069,4.05274,1.534,4.55028,81,5,
83.0788,5.14008,4.05426,1.534,4.55028,81,5,
83.0788,5.14099,4.05426,1.534,4.55028,81,5,
83.0788,5.14648,4.05274,1.534,4.55028,81,5,
83.0789,5.14526,4.05274,1.534,4.55028,81,5,
83.0789,5.14618,4.05121,1.534,4.55028,81,5,
83.0789,5.14648,4.05579,1.534,4.55028,81,5,
83.079,5.14526,4.05121,1.534,4.55028,81,5,
83.079,5.14557,4.05274,1.534,4.55028,81,5,
83.079,5.15045,4.05274,1.534,4.55028,81,5,
83.0791,5.15015,4.05426,1.534,4.55028,81,5,
83.0791,5.15106,4.05426,1.534,4.55028,81,5,
83.0791,5.15076,4.05274,1.534,4.55028,81,5,
83.0792,5.15106,4.05579,1.534,4.55028,81,5,
83.0792,5.15045,4.05579,1.534,4.55028,81,5,
83.0792,5.15442,4.04968,1.534,4.55028,81,5,
83.0793,5.15564,4.04968,1.534,4.55028,81,5,
83.0793,5.15533,4.04816,1.534,4.55028,81,5,
83.0793,5.15564,4.05121,1.534,4.55028,81,5,
83.0794,5.15564,4.05426,1.534,4.55028,81,5,
83.0794,5.15533,4.05426,1.534,4.55028,81,5,
83.0794,5.159,4.05121,0,4.55028,81,5,
83.0795,5.16022,4.05274,0,4.55028,81,5,
83.0795,5.16022,4.05121,0,4.55028,81,5,
83.0795,5.16052,4.05121,0,4.55028,81,5,
83.0796,5.16022,4.05579,0,4.55028,81,5,
83.0796,5.16022,4.05426,0,4.55028,81,5,
83.0796,5.16205,4.05426,0,4.55028,81,5,
83.0797,5.16449,4.05426,0,4.55028,81,5,
83.0797,5.16479,4.04816,0,4.55028,81,5,
83.0797,5.16571,4.05121,0,4.55028,81,5,
83.0798,5.16479,4.05274,0,4.55028,81,5,
83.0798,5.16449,4.05121,0,4.55028,81,5,
83.0798,5.16449,4.05121,0,4.55028,81,5,
83.0799,5.16998,4.05121,0,4.55028,81,5,
83.0799,5.16968,4.05121,0,4.55028,81,5,
83.0799,5.16998,4.05121,0,4.55028,81,5,
83.08,5.16937,4.05274,0,4.55028,81,5,
83.08,5.17029,4.05121,0,4.55028,81,5,
83.08,5.17029,4.05426,0,4.55028,81,5,
83.0801,5.16968,4.06036,0,4.55028,81,5,
83.0801,5.17426,4.06494,0,4.55028,81,5,
83.0801,5.17456,4.06342,0,4.55028,81,5,
83.0802,5.17517,4.06342,0,4.55028,81,5,
83.0802,5.17487,4.06342,0,4.55028,81,5,
83.0802,5.17517,4.06494,0,4.55028,81,5,
83.0803,5.17487,4.06494,0,4.55028,81,5,
83.0803,5.17426,4.06799,0,4.55028,81,5,
83.0803,5.17426,4.06494,0,4.55028,81,5,
83.0804,5.17731,4.06799,0,4.55028,81,5,
83.0804,5.17914,4.06647,0,4.55028,81,5,
83.0804,5.18005,4.06342,0,4.55028,81,5,
83.0805,5.18005,4.06494,0,4.55028,81,5,
83.0805,5.18005,4.06494,0,4.55028,81,5,
83.0805,5.17975,4.06342,0,4.55028,81,5,
83.0806,5.17975,4.06342,0,4.55028,81,5,
83.0806,5.17975,4.06799,0,4.55028,81,5,
83.0806,5.17975,4.06494,0,4.55028,81,5,
83.0807,5.18036,4.06494,0,4.55028,81,5,
83.0807,5.17944,4.06342,0,4.55028,81,5,
83.0807,5.18433,4.06342,0,4.55028,81,5,
83.0808,5.18555,4.06342,0,4.55028,81,5,
83.0808,5.18494,4.06342,0,4.55028,81,5,
83.0808,5.18463,4.06189,0,4.55028,81,5,
83.0809,5.18555,4.06342,0,4.55028,81,5,
83.0809,5.18555,4.06342,0,4.55028,81,5,
83.0809,5.18524,4.06647,0,4.55028,81,5,
83.081,5.18524,4.06342,0,4.55028,81,5,
83.081,5.18463,4.06799,0,4.55028,81,5,
83.081,5.18555,4.06494,0,4.55028,81,5,
83.0811,5.18463,4.06342,0,4.55028,81,5,
83.0811,5.18524,4.06494,0,4.55028,81,5,
83.0811,5.18585,4.06647,0,4.55028,81,5,
83.0812,5.18555,4.06494,0,4.55028,81,5,
83.0812,5.18463,4.06494,0,4.55028,81,5,
83.0812,5.18524,4.06189,0,4.55028,81,5,
83.0813,5.18555,4.06342,0,4.55028,81,5,
83.0813,5.18982,4.06799,0,4.55028,81,5,
83.0813,5.19012,4.06342,0,4.55028,81,5,
83.0814,5.19012,4.06494,0,4.55028,81,5,
83.0814,5.18982,4.06342,0,4.55028,81,5,
83.0814,5.18921,4.06189,0,4.55028,81,5,
83.0815,5.18951,4.06647,0,4.55028,81,5,
83.0815,5.18982,4.06494,0,4.55028,81,5,
83.0815,5.18951,4.06494,0,4.55028,81,5,
83.0816,5.18951,4.06189,0,4.55028,81,5,
83.0816,5.18951,4.06494,0,4.55028,81,5,
83.0816,5.18921,4.06494,0,4.55028,81,5,
83.0817,5.18951,4.06647,0,4.55028,81,5,
83.0817,5.1889,4.06647,0,4.55028,81,5,
83.0817,5.18951,4.06494,0,4.55028,81,5,
83.0818,5.18951,4.06189,0,4.55028,81,5,
83.0818,5.1889,4.06647,0,4.55028,81,5,
83.0818,5.1889,4.06647,0,4.55028,81,5,
83.0819,5.18921,4.06494,0,4.55028,81,5,
83.0819,5.18982,4.06189,0,4.55028,81,5,
83.0819,5.1889,4.06799,0,4.55028,81,5,
83.082,5.18951,4.06342,0,4.55028,81,5,
83.082,5.18982,4.06647,0,4.55028,81,5,
83.082,5.18921,4.06342,0,4.55028,81,5,
83.0821,5.18921,4.06494,0,4.55028,81,5,
83.0821,5.1889,4.06189,0,4.55028,81,5,
83.0821,5.18921,4.06494,0,4.55028,81,5,
83.0822,5.18921,4.06342,0,4.55028,81,5,
83.0822,5.1889,4.06494,0,4.55028,81,5,
83.0822,5.18951,4.06342,0,4.55028,81,5,
83.0823,5.18951,4.06342,0,4.55028,81,5,
83.0823,5.19012,4.06494,0,4.55028,81,5,
83.0823,5.18951,4.06494,0,4.55028,81,5,
83.0824,5.18951,4.06799,0,4.55028,81,5,
83.0824,5.19012,4.06342,0,4.55028,81,5,
83.0824,5.1889,4.06494,0,4.55028,81,5,
83.0825,5.18951,4.06647,0,4.55028,81,5,
83.0825,5.18921,4.06799,0,4.55028,81,5,
83.0825,5.18951,4.06799,0,4.55028,81,5,
83.0826,5.1889,4.06799,0,4.55028,81,5,
83.0826,5.1886,4.06342,0,4.55028,81,5,
83.0826,5.18921,4.07105,0,4.55028,81,5,
83.0827,5.18921,4.07868,0,4.55028,81,5,
83.0827,5.19012,4.07715,0,4.55028,81,5,
83.0827,5.18951,4.07562,0,4.55028,81,5,
83.0828,5.18982,4.07562,0,4.55028,81,5,
83.0828,5.19012,4.07715,0,4.55028,81,5,
83.0828,5.18982,4.07868,0,4.55028,81,5,
83.0829,5.18982,4.07715,0,4.55028,81,5,
83.0829,5.19012,4.08173,0,4.55028,81,5,
83.0829,5.19012,4.0741,0,4.55028,81,5,
83.083,5.18921,4.07715,0,4.55028,81,5,
83.083,5.18951,4.07715,0,4.55028,81,5,
83.083,5.19012,4.07868,0,4.55028,81,5,
83.0831,5.18982,4.0802,0,4.55028,81,5,
83.0831,5.18524,4.07562,2.298,4.55028,81,5,
83.0831,5.18402,4.0802,2.298,4.55028,81,5,
83.0832,5.18494,4.07715,2.298,4.55028,81,5,
83.0832,5.18555,4.07868,2.298,4.55028,81,5,
83.0832,5.18555,4.07562,2.298,4.55028,81,5,
83.0833,5.18463,4.07868,2.298,4.55028,81,5,
83.0833,5.18463,4.07868,2.298,4.55028,81,5,
83.0833,5.18494,4.07715,2.298,4.55028,81,5,
83.0834,5.18555,4.07562,2.298,4.55028,81,5,
83.0834,5.18524,4.07715,2.298,4.55028,81,5,
83.0834,5.18402,4.07715,2.298,4.55028,81,5,
83.0835,5.18524,4.07715,2.298,4.55028,81,5,
83.0835,5.18402,4.07257,2.298,4.55028,81,5,
83.0835,5.18494,4.0741,2.298,4.55028,81,5,
83.0836,5.18524,4.07715,2.298,4.55028,81,5,
83.0836,5.18494,4.07715,2.298,4.55028,81,5,
83.0836,5.18433,4.07868,2.298,4.55028,81,5,
83.0837,5.18463,4.07715,2.298,4.55028,81,5,
83.0837,5.18555,4.07562,2.298,4.55028,81,5,
83.0837,5.18463,4.07868,2.298,4.55028,81,5,
83.0838,5.18463,4.07715,2.298,4.55028,81,5,
83.0838,5.18005,4.07715,2.298,4.55028,81,5,
83.0838,5.17975,4.07715,2.298,4.55028,81,5,
83.0839,5.17975,4.07715,2.298,4.55028,81,5,
83.0839,5.18036,4.0802,2.298,4.55028,81,5,
83.0839,5.17975,4.07868,2.298,4.55028,81,5,
83.084,5.18005,4.0741,2.298,4.55028,81,5,
83.084,5.18005,4.0802,2.298,4.55028,81,5,
83.084,5.18005,4.07868,2.298,4.55028,81,5,
83.0841,5.18005,4.0741,2.298,4.55028,81,5,
83.0841,5.18005,4.07715,2.298,4.55028,81,5,
83.0841,5.17944,4.07868,2.298,4.55028,81,5,
83.0842,5.18066,4.07715,2.298,4.55028,81,5,
83.0842,5.17975,4.07868,2.298,4.55028,81,5,
83.0842,5.18036,4.07715,2.298,4.55028,81,5,
83.0843,5.18005,4.07868,2.298,4.55028,81,5,
83.0843,5.17975,4.07715,2.298,4.55028,81,5,
83.0843,5.17914,4.07868,2.298,4.55028,81,5,
83.0844,5.18005,4.07715,2.298,4.55028,81,5,
83.0844,5.18005,4.07715,2.298,4.55028,81,5,
83.0844,5.17914,4.0741,2.298,4.55028,81,5,
83.0845,5.17487,4.07868,2.298,4.55028,81,5,
83.0845,5.17517,4.0802,2.298,4.55028,81,5,
83.0845,5.17456,4.07868,2.298,4.55028,81,5,
83.0846,5.17426,4.07868,2.298,4.55028,81,5,
83.0846,5.17548,4.07562,2.298,4.55028,81,5,
83.0846,5.17517,4.0802,2.298,4.55028,81,5,
83.0847,5.17487,4.07257,2.298,4.55028,81,5,
83.0847,5.17487,4.07562,2.298,4.55028,81,5,
83.0847,5.17548,4.07715,2.298,4.55028,81,5,
83.0848,5.17456,4.07715,2.298,4.55028,81,5,
83.0848,5.17487,4.07715,2.298,4.55028,81,5,
83.0848,5.17487,4.07562,2.298,4.55028,81,5,
83.0849,5.17487,4.07868,2.298,4.55028,81,5,
83.0849,5.17487,4.07715,2.298,4.55028,81,5,
83.0849,5.17487,4.07562,2.298,4.55028,81,5,
83.085,5.17517,4.07715,2.298,4.55028,81,5,
83.085,5.17517,4.07562,2.298,4.55028,81,5,
83.085,5.17517,4.07715,2.298,4.55028,81,5,
83.0851,5.17487,4.0741,2.298,4.55028,81,5,
83.0851,5.17456,4.07715,2.298,4.55028,81,5,
83.0851,5.1709,4.07715,2.298,4.55028,81,5,
83.0852,5.16998,4.07562,2.298,4.55028,81,5,
83.0852,5.17059,4.07868,2.298,4.55028,81,5,
83.0852,5.16998,4.07868,2.298,4.55028,81,5,
83.0853,5.17029,4.07715,2.298,4.55028,81,5,
83.0853,5.17029,4.0741,2.298,4.55028,81,5,
83.0853,5.16998,4.07715,2.298,4.55028,81,5,
83.0854,5.16998,4.07715,2.298,4.55028,81,5,
83.0854,5.17029,4.0741,2.298,4.55028,81,5,
83.0854,5.17029,4.0741,2.298,4.55028,81,5,
83.0855,5.16998,4.08783,2.298,4.55028,81,5,
83.0855,5.17029,4.08936,2.298,4.55028,81,5,
83.0855,5.16968,4.09088,2.298,4.55028,81,5,
83.0856,5.1712,4.08936,2.298,4.55028,81,5,
83.0856,5.17029,4.08783,2.298,4.55028,81,5,
83.0856,5.16998,4.08478,2.298,4.55028,81,5,
83.0857,5.16998,4.09088,2.298,4.55028,81,5,
83.0857,5.16998,4.09088,2.298,4.55028,81,5,
83.0857,5.16998,4.08936,2.298,4.55028,81,5,
83.0858,5.17059,4.09241,2.298,4.55028,81,5,
83.0858,5.17029,4.08783,2.298,4.55028,81,5,
83.0858,5.16998,4.09088,2.298,4.55028,81,5,
83.0859,5.16937,4.08936,2.298,4.55028,81,5,
83.0859,5.17029,4.08783,2.298,4.55028,81,5,
83.0859,5.16998,4.09241,2.298,4.55028,81,5,
83.086,5.16937,4.09241,2.298,4.55028,81,5,
83.086,5.17059,4.08783,2.298,4.55028,81,5,
83.086,5.16998,4.09241,2.298,4.55028,81,5,
83.0861,5.16998,4.08783,2.298,4.55028,81,5,
83.0861,5.16998,4.08936,2.298,4.55028,81,5,
83.0861,5.17059,4.09088,2.298,4.55028,81,5,
83.0862,5.16968,4.08936,2.298,4.55028,81,5,
83.0862,5.16998,4.09088,2.298,4.55028,81,5,
83.0862,5.1709,4.08936,2.298,4.55028,81,5,
83.0863,5.16968,4.09088,2.298,4.55028,81,5,
83.0863,5.16998,4.09088,2.298,4.55028,81,5,
83.0863,5.17029,4.09088,2.298,4.55028,81,5,
83.0864,5.17029,4.08936,2.298,4.55028,81,5,
83.0864,5.16998,4.08783,2.298,4.55028,81,5,
83.0864,5.17059,4.08936,2.298,4.55028,81,5,
83.0865,5.16998,4.08783,2.298,4.55028,81,5,
83.0865,5.16998,4.08936,2.298,4.55028,81,5,
83.0865,5.17029,4.08936,2.298,4.55028,81,5,
83.0866,5.17029,4.08783,2.298,4.55028,81,5,
83.0866,5.16968,4.09088,2.298,4.55028,81,5,
83.0866,5.17212,4.08936,2.298,4.55028,81,5,
83.0867,5.17517,4.08783,2.298,4.55028,81,5,
83.0867,5.17548,4.08936,2.298,4.55028,81,5,
83.0867,5.17487,4.08936,2.298,4.55028,81,5,
83.0868,5.17487,4.09088,2.298,4.55028,81,5,
83.0868,5.17487,4.08936,2.298,4.55028,81,5,
83.0868,5.17456,4.08936,2.298,4.55028,81,5,
83.0869,5.17456,4.0863,2.298,4.55028,81,5,
83.0869,5.17487,4.08783,2.298,4.55028,81,5,
83.0869,5.17517,4.08936,2.298,4.55028,81,5,
83.087,5.17517,4.08936,2.298,4.55028,81,5,
83.087,5.17456,4.09088,2.298,4.55028,81,5,
83.087,5.17517,4.08936,2.298,4.55028,81,5,
83.0871,5.17761,4.08936,2.298,4.55028,81,5,
83.0871,5.17975,4.09088,2.298,4.55028,81,5,
83.0871,5.18005,4.09088,2.298,4.55028,81,5,
83.0872,5.17914,4.09088,2.298,4.55028,81,5,
83.0872,5.17914,4.09241,2.298,4.55028,81,5,
83.0872,5.18036,4.08936,2.298,4.55028,81,5,
83.0873,5.17975,4.09546,2.298,4.55028,81,5,
83.0873,5.18066,4.0863,2.298,4.55028,81,5,
83.0873,5.18005,4.08936,2.298,4.55028,81,5,
83.0874,5.18036,4.08783,2.298,4.55028,81,5,
83.0874,5.18402,4.08936,2.298,4.55028,81,5,
83.0874,5.18433,4.09088,2.298,4.55028,81,5,
83.0875,5.18494,4.08936,2.298,4.55028,81,5,
83.0875,5.18463,4.09088,2.298,4.55028,81,5,
83.0875,5.18372,4.09088,2.298,4.55028,81,5,
83.0876,5.18524,4.08783,2.298,4.55028,81,5,
83.0876,5.18463,4.09088,2.298,4.55028,81,5,
83.0876,5.18555,4.08936,2.298,4.55028,81,5,
83.0877,5.18951,4.08936,2.298,4.55028,81,5,
83.0877,5.18951,4.09393,2.298,4.55028,81,5,
83.0877,5.18982,4.09088,2.298,4.55028,81,5,
83.0878,5.18951,4.08478,2.298,4.55028,81,5,
83.0878,5.18951,4.08783,2.298,4.55028,81,5,
83.0878,5.19012,4.08936,2.298,4.55028,81,5,
83.0879,5.18951,4.09088,2.298,4.55028,81,5,
83.0879,5.19165,4.09088,2.298,4.55028,81,5,
83.0879,5.1944,4.08936,2.298,4.55028,81,5,
83.088,5.19409,4.08783,2.298,4.55028,81,5,
83.088,5.19531,4.0863,2.298,4.55028,81,5,
83.088,5.19501,4.08936,2.298,4.55028,81,5,
83.0881,5.1947,4.08783,2.298,4.55028,81,5,
83.0881,5.1944,4.08936,2.298,4.55028,81,5,
83.0881,5.19928,4.09088,2.298,4.55028,81,5,
83.0882,5.19958,4.08936,2.298,4.55028,81,5,
83.0882,5.19958,4.08936,2.298,4.55028,81,5,
83.0882,5.19958,4.08783,2.298,4.55028,81,5,
83.0883,5.19989,4.09241,2.298,4.55028,81,5,
83.0883,5.2002,4.09088,2.298,4.55028,81,5,
83.0883,5.20355,4.08936,2.298,4.55028,81,5,
83.0884,5.20447,4.09088,2.298,4.55028,81,5,
83.0884,5.20447,4.09088,2.298,4.55028,81,5,
83.0884,5.20447,4.0863,2.298,4.55028,81,5,
83.0885,5.20508,4.09088,2.298,4.55028,81,5,
83.0885,5.20416,4.08936,2.298,4.55028,81,5,
83.0885,5.20905,4.09088,2.298,4.55028,81,5,
83.0886,5.20905,4.09088,2.298,4.55028,81,5,
83.0886,5.20935,4.08936,2.298,4.55028,81,5,
83.0886,5.20996,4.09088,2.298,4.55028,81,5,
83.0887,5.20874,4.08783,2.298,4.55028,81,5,
83.0887,5.21332,4.08936,2.298,4.55028,81,5,
83.0887,5.21423,4.09088,2.298,4.55028,81,5,
83.0888,5.21454,4.08936,2.298,4.55028,81,5,
83.0888,5.21393,4.08936,2.298,4.55028,81,5,
83.0888,5.21423,4.08936,2.298,4.55028,81,5,
83.0889,5.21637,4.0863,2.298,4.55028,81,5,
83.0889,5.21973,4.08478,2.298,4.55028,81,5,
83.0889,5.21912,4.08783,2.298,4.55028,81,5,
83.089,5.21912,4.08936,2.298,4.55028,81,5,
83.089,5.22003,4.09088,2.298,4.55028,81,5,
83.089,5.22339,4.08936,2.298,4.55028,81,5,
83.0891,5.22461,4.09088,2.298,4.55028,81,5,
83.0891,5.2243,4.09088,2.298,4.55028,81,5,
83.0891,5.22461,4.08783,2.298,4.55028,81,5,
83.0892,5.22614,4.08936,2.298,4.55028,81,5,
83.0892,5.22888,4.09088,2.298,4.55028,81,5,
83.0892,5.22888,4.08936,2.298,4.55028,81,5,
83.0893,5.22858,4.0863,2.298,4.55028,81,5,
83.0893,5.2301,4.08783,2.298,4.55028,81,5,
83.0893,5.23285,4.09088,2.298,4.55028,81,5,
83.0894,5.23346,4.08936,2.298,4.55028,81,5,
83.0894,5.23346,4.08936,2.298,4.55028,81,5,
83.0894,5.23468,4.08783,2.298,4.55028,81,5,
83.0895,5.23865,4.08783,2.298,4.55028,81,5,
83.0895,5.23895,4.08936,2.298,4.55028,81,5,
83.0895,5.23865,4.08936,2.298,4.55028,81,5,
83.0896,5.24109,4.08783,2.298,4.55028,81,5,
83.0896,5.24323,4.09241,2.298,4.55028,81,5,
83.0896,5.24414,4.08936,2.298,4.55028,81,5,
83.0897,5.24353,4.09241,2.298,4.55028,81,5,
83.0897,5.24933,4.09088,2.298,4.55028,81,5,
83.0897,5.24841,4.0863,2.298,4.55028,81,5,
83.0898,5.24841,4.08783,2.298,4.55028,81,5,
83.0898,5.25055,4.08783,2.298,4.55028,81,5,
83.0898,5.25391,4.08936,2.298,4.55028,81,5,
83.0899,5.2533,4.10004,2.298,4.55028,81,5,
83.0899,5.2533,4.10309,2.298,4.55028,81,5,
83.0899,5.25879,4.10614,2.298,4.55028,81,5,
83.09,5.25818,4.10004,2.298,4.55028,81,5,
83.09,5.25879,4.10004,2.298,4.55028,81,5,
83.09,5.26367,4.10004,2.298,4.55028,81,5,
83.0901,5.26337,4.10004,2.298,4.55028,81,5,
83.0901,5.26367,4.10156,2.298,4.55028,81,5,
83.0901,5.26794,4.10309,2.298,4.55028,81,5,
83.0902,5.26886,4.10004,2.298,4.55028,81,5,
83.0902,5.26855,4.10156,2.298,4.55028,81,5,
83.0902,5.27252,4.10156,2.298,4.55028,81,5,
83.0903,5.27344,4.10156,2.298,4.55028,81,5,
83.0903,5.27374,4.10156,2.298,4.55028,81,5,
83.0903,5.27771,4.10309,2.298,4.55028,81,5,
83.0904,5.2774,4.10004,2.298,4.55028,81,5,
83.0904,5.27832,4.10156,2.298,4.55028,81,5,
83.0904,5.28229,4.10156,2.298,4.55028,81,5,
83.0905,5.28259,4.10309,2.298,4.55028,81,5,
83.0905,5.28229,4.10309,2.298,4.55028,81,5,
83.0905,5.28748,4.10156,2.298,4.55028,81,5,
83.0906,5.28717,4.10156,2.298,4.55028,81,5,
83.0906,5.28748,4.09851,2.298,4.55028,81,5,
83.0906,5.29205,4.10309,2.298,4.55028,81,5,
83.0907,5.29175,4.10309,2.298,4.55028,81,5,
83.0907,5.29236,4.10004,2.298,4.55028,81,5,
83.0907,5.29724,4.10004,2.298,4.55028,81,5,
83.0908,5.29724,4.10462,2.298,4.55028,81,5,
83.0908,5.29907,4.10004,2.298,4.55028,81,5,
83.0908,5.30182,4.10156,2.298,4.55028,81,5,
83.0909,5.30304,4.10004,2.298,4.55028,81,5,
83.0909,5.3067,4.10309,2.298,4.55028,81,5,
83.0909,5.30823,4.09851,2.298,4.55028,81,5,
83.091,5.30731,4.10004,2.298,4.55028,81,5,
83.091,5.31128,4.09851,2.298,4.55028,81,5,
83.091,5.3125,4.10309,2.298,4.55028,81,5,
83.0911,5.31219,4.10462,2.298,4.55028,81,5,
83.0911,5.31738,4.09851,2.298,4.55028,81,5,
83.0911,5.31738,4.10309,2.298,4.55028,81,5,
83.0912,5.31921,4.10004,2.298,4.55028,81,5,
83.0912,5.32227,4.10309,2.298,4.55028,81,5,
83.0912,5.32104,4.10156,2.298,4.55028,81,5,
83.0913,5.32654,4.10004,2.298,4.55028,81,5,
83.0913,5.32776,4.10004,2.298,4.55028,81,5,
83.0913,5.32684,4.10004,2.298,4.55028,81,5,
83.0914,5.33173,4.10309,2.298,4.55028,81,5,
83.0914,5.33173,4.10156,2.298,4.55028,81,5,
83.0914,5.33142,4.10309,2.298,4.55028,81,5,
83.0915,5.33691,4.10156,2.298,4.55028,81,5,
83.0915,5.3363,4.09851,2.298,4.55028,81,5,
83.0915,5.33875,4.10309,2.298,4.55028,81,5,
83.0916,5.3418,4.10004,2.298,4.55028,81,5,
83.0916,5.3418,4.10309,2.298,4.55028,81,5,
83.0916,5.34546,4.10156,2.298,4.55028,81,5,
83.0917,5.34698,4.10309,2.298,4.55028,81,5,
83.0917,5.34637,4.10004,2.298,4.55028,81,5,
83.0917,5.35095,4.10004,2.298,4.55028,81,5,
83.0918,5.35095,4.10004,2.298,4.55028,81,5,
83.0918,5.35095,4.10156,2.298,4.55028,81,5,
83.0918,5.35675,4.09851,2.298,4.55028,81,5,
83.0919,5.35645,4.10309,2.298,4.55028,81,5,
83.0919,5.35828,4.10309,2.298,4.55028,81,5,
83.0919,5.36194,4.10156,2.298,4.55028,81,5,
83.092,5.36163,4.10156,2.298,4.55028,81,5,
83.092,5.3656,4.10156,2.298,4.55028,81,5,
83.092,5.36682,4.10004,2.298,4.55028,81,5,
83.0921,5.36652,4.10004,2.298,4.55028,81,5,
83.0921,5.3714,4.10004,2.298,4.55028,81,5,
83.0921,5.3714,4.10004,2.298,4.55028,81,5,
83.0922,5.3717,4.09699,2.298,4.55028,81,5,
83.0922,5.37598,4.09851,2.298,4.55028,81,5,
83.0922,5.37598,4.09851,2.298,4.55028,81,5,
83.0923,5.37628,4.10156,2.298,4.55028,81,5,
83.0923,5.38086,4.10156,2.298,4.55028,81,5,
83.0923,5.38086,4.10309,2.298,4.55028,81,5,
83.0924,5.3833,4.10462,2.298,4.55028,81,5,
83.0924,5.38544,4.10004,2.298,4.55028,81,5,
83.0924,5.38574,4.10309,2.298,4.55028,81,5,
83.0925,5.38818,4.10309,2.298,4.55028,81,5,
83.0925,5.39093,4.10156,2.298,4.55028,81,5,
83.0925,5.39093,4.10004,2.298,4.55028,81,5,
83.0926,5.3952,4.10156,2.298,4.55028,81,5,
83.0926,5.39612,4.10156,2.298,4.55028,81,5,
83.0926,5.39673,4.10156,2.298,4.55028,81,5,
83.0927,5.39948,4.10004,2.298,4.55028,81,5,
83.0927,5.4007,4.10156,2.298,4.55028,81,5,
83.0927,5.40039,4.10156,2.298,4.55028,81,5,
83.0928,5.40436,4.10156,2.298,4.55028,81,5,
83.0928,5.40588,4.10156,2.298,4.55028,81,5,
83.0928,5.40527,4.09851,2.298,4.55028,81,5,
83.0929,5.40955,4.10156,2.298,4.55028,81,5,
83.0929,5.41046,4.10004,2.298,4.55028,81,5,
83.0929,5.41077,4.09699,2.298,4.55028,81,5,
83.093,5.41199,4.10004,2.298,4.55028,81,5,
83.093,5.41565,4.10462,2.298,4.55028,81,5,
83.093,5.41534,4.10156,2.298,4.55028,81,5,
83.0931,5.41718,4.10004,2.298,4.55028,81,5,
83.0931,5.41992,4.10156,2.298,4.55028,81,5,
83.0931,5.42023,4.10004,2.298,4.55028,81,5,
83.0932,5.42023,4.10156,2.298,4.55028,81,5,
83.0932,5.4248,4.10309,2.298,4.55028,81,5,
83.0932,5.4248,4.10614,2.298,4.55028,81,5,
83.0933,5.42511,4.10156,2.298,4.55028,81,5,
83.0933,5.4306,4.10156,2.298,4.55028,81,5,
83.0933,5.42969,4.10156,2.298,4.55028,81,5,
83.0934,5.4306,4.10309,2.298,4.55028,81,5,
83.0934,5.43427,4.10004,2.298,4.55028,81,5,
83.0934,5.43457,4.10309,2.298,4.55028,81,5,
83.0935,5.43488,4.10004,2.298,4.55028,81,5,
83.0935,5.43518,4.10004,2.298,4.55028,81,5,
83.0935,5.44006,4.10156,2.298,4.55028,81,5,
83.0936,5.44067,4.10309,2.298,4.55028,81,5,
83.0936,5.43976,4.10004,2.298,4.55028,81,5,
83.0936,5.44434,4.10156,2.298,4.55028,81,5,
83.0937,5.44525,4.10462,2.298,4.55028,81,5,
83.0937,5.44464,4.10309,2.298,4.55028,81,5,
83.0937,5.44434,4.10004,2.298,4.55028,81,5,
83.0938,5.45013,4.10004,2.298,4.55028,81,5,
83.0938,5.44952,4.10004,2.298,4.55028,81,5,
83.0938,5.45044,4.10004,2.298,4.55028,81,5,
83.0939,5.45197,4.10462,2.298,4.55028,81,5,
83.0939,5.45441,4.10004,2.298,4.55028,81,5,
83.0939,5.4541,4.10156,2.298,4.55028,81,5,
83.094,5.45471,4.09851,2.298,4.55028,81,5,
83.094,5.45715,4.09851,2.298,4.55028,81,5,
83.094,5.45837,4.10004,2.298,4.55028,81,5,
83.0941,5.4599,4.10156,2.298,4.55028,81,5,
83.0941,5.45959,4.10309,2.298,4.55028,81,5,
83.0941,5.46204,4.10156,2.298,4.55028,81,5,
83.0942,5.46417,4.10156,2.298,4.55028,81,5,
83.0942,5.46387,4.09851,2.298,4.55028,81,5,
83.0942,5.46448,4.10156,2.298,4.55028,81,5,
83.0943,5.46661,4.10156,2.298,4.55028,81,5,
83.0943,5.46875,4.10156,2.298,4.55028,81,5,
83.0943,5.46906,4.09699,2.298,4.55028,81,5,
83.0944,5.46906,4.10004,2.298,4.55028,81,5,
83.0944,5.46997,4.09851,2.298,4.55028,81,5,
83.0944,5.47272,4.09851,2.298,4.55028,81,5,
83.0945,5.47455,4.10309,2.298,4.55028,81,5,
83.0945,5.47302,4.10004,2.298,4.55028,81,5,
83.0945,5.47394,4.10004,2.298,4.55028,81,5,
83.0946,5.47607,4.10156,2.298,4.55028,81,5,
83.0946,5.47882,4.09851,2.298,4.55028,81,5,
83.0946,5.47882,4.10309,2.298,4.55028,81,5,
83.0947,5.47821,4.10004,2.298,4.55028,81,5,
83.0947,5.47913,4.10004,2.298,4.55028,81,5,
83.0947,5.48096,4.10004,2.298,4.55028,81,5,
83.0948,5.48431,4.10309,2.298,4.55028,81,5,
83.0948,5.4837,4.10156,2.298,4.55028,81,5,
83.0948,5.48401,4.10004,2.298,4.55028,81,5,
83.0949,5.48401,4.10004,2.298,4.55028,81,5,
83.0949,5.48431,4.10156,2.298,4.55028,81,5,
83.0949,5.48889,4.09851,2.298,4.55028,81,5,
83.095,5.48767,4.10309,2.298,4.55028,81,5,
83.095,5.48859,4.09699,2.298,4.55028,81,5,
83.095,5.48828,4.10309,2.298,4.55028,81,5,
83.0951,5.48859,4.10462,2.298,4.55028,81,5,
83.0951,5.4892,4.10156,2.298,4.55028,81,5,
83.0951,5.49408,4.10309,2.298,4.55028,81,5,
83.0952,5.49347,4.10309,2.298,4.55028,81,5,
83.0952,5.49316,4.10156,2.298,4.55028,81,5,
83.0952,5.49377,4.10004,2.298,4.55028,81,5,
83.0953,5.49377,4.09851,2.298,4.55028,81,5,
83.0953,5.49438,4.10004,2.298,4.55028,81,5,
83.0953,5.49744,4.10156,2.298,4.55028,81,5,
83.0954,5.49866,4.10156,2.298,4.55028,81,5,
83.0954,5.49805,4.10004,2.298,4.55028,81,5,
83.0954,5.49866,4.10462,2.298,4.55028,81,5,
83.0955,5.49835,4.10156,2.298,4.55028,81,5,
83.0955,5.49866,4.10309,2.298,4.55028,81,5,
83.0955,5.49835,4.10309,2.298,4.55028,81,5,
83.0956,5.49805,4.10004,2.298,4.55028,81,5,
83.0956,5.50323,4.10156,2.298,4.55028,81,5,
83.0956,5.50323,4.10309,2.298,4.55028,81,5,
83.0957,5.50293,4.10156,2.298,4.55028,81,5,
83.0957,5.50323,4.10156,2.298,4.55028,81,5,
83.0957,5.50354,4.10004,2.298,4.55028,81,5,
83.0958,5.50354,4.10309,2.298,4.55028,81,5,
83.0958,5.50262,4.10156,2.298,4.55028,81,5,
83.0958,5.50293,4.10004,2.298,4.55028,81,5,
83.0959,5.50354,4.10004,2.298,4.55028,81,5,
83.0959,5.5069,4.10004,2.298,4.55028,81,5,
83.0959,5.50812,4.10004,2.298,4.55028,81,5,
83.096,5.50842,4.10156,2.298,4.55028,81,5,
83.096,5.5069,4.10004,2.298,4.55028,81,5,
83.096,5.50812,4.10156,2.298,4.55028,81,5,
83.0961,5.50873,4.09851,2.298,4.55028,81,5,
83.0961,5.50812,4.10156,2.298,4.55028,81,5,
83.0961,5.50842,4.09699,2.298,4.55028,81,5,
83.0962,5.50812,4.10309,2.298,4.55028,81,5,
83.0962,5.50873,4.10309,2.298,4.55028,81,5,
83.0962,5.50842,4.10156,2.298,4.55028,81,5,
83.0963,5.50873,4.09851,2.298,4.55028,81,5,
83.0963,5.50873,4.10004,2.298,4.55028,81,5,
83.0963,5.50812,4.09699,2.298,4.55028,81,5,
83.0964,5.51086,4.10004,2.298,4.55028,81,5,
83.0964,5.51331,4.10309,2.298,4.55028,81,5,
83.0964,5.513,4.10156,2.298,4.55028,81,5,
83.0965,5.51331,4.10462,2.298,4.55028,81,5,
83.0965,5.513,4.10156,2.298,4.55028,81,5,
83.0965,5.513,4.10309,2.298,4.55028,81,5,
83.0966,5.51331,4.10309,2.298,4.55028,81,5,
83.0966,5.51331,4.10309,2.298,4.55028,81,5,
83.0966,5.51331,4.10156,2.298,4.55028,81,5,
83.0967,5.51331,4.10004,2.298,4.55028,81,5,
83.0967,5.51331,4.10309,2.298,4.55028,81,5,
83.0967,5.51361,4.10462,2.298,4.55028,81,5,
83.0968,5.51331,4.10309,2.298,4.55028,81,5,
83.0968,5.513,4.10462,2.298,4.55028,81,5,
83.0968,5.51331,4.10004,2.298,4.55028,81,5,
83.0969,5.513,4.10156,2.298,4.55028,81,5,
83.0969,5.51331,4.10462,2.298,4.55028,81,5,
83.0969,5.51361,4.10309,2.298,4.55028,81,5,
83.097,5.513,4.09699,2.298,4.55028,81,5,
83.097,5.51331,4.10309,2.298,4.55028,81,5,
83.097,5.51331,4.10156,2.298,4.55028,81,5,
83.0971,5.50812,4.10004,0.696,4.55028,81,5,
83.0971,5.50781,4.09851,0.696,4.55028,81,5,
83.0971,5.50873,4.09851,0.696,4.55028,81,5,
83.0972,5.50873,4.10156,0.696,4.55028,81,5,
83.0972,5.50812,4.10462,0.696,4.55028,81,5,
83.0972,5.50842,4.10004,0.696,4.55028,81,5,
83.0973,5.50934,4.10004,0.696,4.55028,81,5,
83.0973,5.50873,4.10004,0.696,4.55028,81,5,
83.0973,5.50873,4.10004,0.696,4.55028,81,5,
83.0974,5.50751,4.10156,0.696,4.55028,81,5,
83.0974,5.50842,4.10462,0.696,4.55028,81,5,
83.0974,5.50842,4.10462,0.696,4.55028,81,5,
83.0975,5.50781,4.10004,0.696,4.55028,81,5,
83.0975,5.50415,4.10156,0.696,4.55028,81,5,
83.0975,5.50354,4.10004,0.696,4.55028,81,5,
83.0976,5.50354,4.10004,0.696,4.55028,81,5,
83.0976,5.50385,4.10309,0.696,4.55028,81,5,
83.0976,5.50293,4.09546,0.696,4.55028,81,5,
83.0977,5.50293,4.09699,0.696,4.55028,81,5,
83.0977,5.50323,4.10309,0.696,4.55028,81,5,
83.0977,5.50323,4.10309,0.696,4.55028,81,5,
83.0978,5.5014,4.10156,0.696,4.55028,81,5,
83.0978,5.49866,4.10004,0.696,4.55028,81,5,
83.0978,5.49774,4.10156,0.696,4.55028,81,5,
83.0979,5.49835,4.10004,0.696,4.55028,81,5,
83.0979,5.49805,4.10004,0.696,4.55028,81,5,
83.0979,5.49866,4.10156,0.696,4.55028,81,5,
83.098,5.49835,4.10156,0.696,4.55028,81,5,
83.098,5.49377,4.10156,0.696,4.55028,81,5,
83.098,5.49408,4.10156,0.696,4.55028,81,5,
83.0981,5.49286,4.09851,0.696,4.55028,81,5,
83.0981,5.49316,4.10156,0.696,4.55028,81,5,
83.0981,5.49408,4.09851,0.696,4.55028,81,5,
83.0982,5.49377,4.10309,0.696,4.55028,81,5,
83.0982,5.48889,4.10309,0.696,4.55028,81,5,
83.0982,5.48828,4.10004,0.696,4.55028,81,5,
83.0983,5.48828,4.10156,0.696,4.55028,81,5,
83.0983,5.48889,4.10309,0.696,4.55028,81,5,
83.0983,5.4892,4.10004,0.696,4.55028,81,5,
83.0984,5.48462,4.10156,0.696,4.55028,81,5,
83.0984,5.48431,4.10004,0.696,4.55028,81,5,
83.0984,5.48401,4.10004,0.696,4.55028,81,5,
83.0985,5.4837,4.10004,0.696,4.55028,81,5,
83.0985,5.4837,4.10004,0.696,4.55028,81,5,
83.0985,5.48004,4.10004,0.696,4.55028,81,5,
83.0986,5.47852,4.09699,0.696,4.55028,81,5,
83.0986,5.47852,4.10462,0.696,4.55028,81,5,
83.0986,5.47913,4.10614,0.696,4.55028,81,5,
83.0987,5.47882,4.10004,0.696,4.55028,81,5,
83.0987,5.47394,4.10004,0.696,4.55028,81,5,
83.0987,5.47394,4.10462,0.696,4.55028,81,5,
83.0988,5.47394,4.10156,0.696,4.55028,81,5,
83.0988,5.47394,4.10156,0.696,4.55028,81,5,
83.0988,5.46997,4.10156,0.696,4.55028,81,5,
83.0989,5.46967,4.10462,0.696,4.55028,81,5,
83.0989,5.46936,4.09851,0.696,4.55028,81,5,
83.0989,5.46967,4.10004,0.696,4.55028,81,5,
83.099,5.46539,4.10309,0.696,4.55028,81,5,
83.099,5.46478,4.09699,0.696,4.55028,81,5,
83.099,5.46417,4.10004,0.696,4.55028,81,5,
83.0991,5.46417,4.10309,0.696,4.55028,81,5,
83.0991,5.46234,4.10156,0.696,4.55028,81,5,
83.0991,5.45959,4.10156,0.696,4.55028,81,5,
83.0992,5.45959,4.10309,0.696,4.55028,81,5,
83.0992,5.4599,4.09699,0.696,4.55028,81,5,
83.0992,5.45532,4.10156,0.696,4.55028,81,5,
83.0993,5.45502,4.10156,0.696,4.55028,81,5,
83.0993,5.45502,4.10462,0.696,4.55028,81,5,
83.0993,5.45502,4.10309,0.696,4.55028,81,5,
83.0994,5.44983,4.10309,0.696,4.55028,81,5,
83.0994,5.44952,4.10004,0.696,4.55028,81,5,
83.0994,5.44983,4.10004,0.696,4.55028,81,5,
83.0995,5.44952,4.10156,0.696,4.55028,81,5,
83.0995,5.44495,4.10156,0.696,4.55028,81,5,
83.0995,5.44464,4.10156,0.696,4.55028,81,5,
83.0996,5.44464,4.10004,0.696,4.55028,81,5,
83.0996,5.4422,4.10004,0.696,4.55028,81,5,
83.0996,5.43976,4.10156,0.696,4.55028,81,5,
83.0997,5.43945,4.10004,0.696,4.55028,81,5,
83.0997,5.43945,4.10004,0.696,4.55028,81,5,
83.0997,5.43488,4.09851,0.696,4.55028,81,5,
83.0998,5.43488,4.10309,0.696,4.55028,81,5,
83.0998,5.43488,4.10004,0.696,4.55028,81,5,
83.0998,5.43121,4.10156,0.696,4.55028,81,5,
83.0999,5.4303,4.10156,0.696,4.55028,81,5,
83.0999,5.42999,4.09851,0.696,4.55028,81,5,
83.0999,5.4306,4.10156,0.696,4.55028,81,5,
83.1,5.4248,4.10004,0.696,4.55028,81,5,
83.1,5.42419,4.10004,0.696,4.55028,81,5,
83.1,5.4248,4.10156,0.696,4.55028,81,5,
83.1001,5.42023,4.09851,0.696,4.55028,81,5,
83.1001,5.41992,4.10156,0.696,4.55028,81,5,
83.1001,5.42023,4.10156,0.696,4.55028,81,5,
83.1002,5.41595,4.10004,0.696,4.55028,81,5,
83.1002,5.41595,4.09851,0.696,4.55028,81,5,
83.1002,5.41504,4.10156,0.696,4.55028,81,5,
83.1003,5.41107,4.09851,0.696,4.55028,81,5,
83.1003,5.40985,4.09851,0.696,4.55028,81,5,
83.1003,5.41077,4.10004,0.696,4.55028,81,5,
83.1004,5.40619,4.10156,0.696,4.55028,81,5,
83.1004,5.40558,4.10156,0.696,4.55028,81,5,
83.1004,5.40558,4.10309,0.696,4.55028,81,5,
83.1005,5.401,4.10004,0.696,4.55028,81,5,
83.1005,5.39948,4.10156,0.696,4.55028,81,5,
83.1005,5.401,4.10156,0.696,4.55028,81,5,
83.1006,5.39612,4.10156,0.696,4.55028,81,5,
83.1006,5.39612,4.11072,0.696,4.55028,81,5,
83.1006,5.39551,4.11682,0.696,4.55028,81,5,
83.1007,5.39124,4.11682,0.696,4.55028,81,5,
83.1007,5.39093,4.11224,0.696,4.55028,81,5,
83.1007,5.39062,4.11377,0.696,4.55028,81,5,
83.1008,5.38574,4.11224,0.696,4.55028,81,5,
83.1008,5.38605,4.11377,0.696,4.55028,81,5,
83.1008,5.38361,4.11224,0.696,4.55028,81,5,
83.1009,5.38116,4.11377,0.696,4.55028,81,5,
83.1009,5.38116,4.11072,0.696,4.55028,81,5,
83.1009,5.37689,4.11377,0.696,4.55028,81,5,
83.101,5.37628,4.11224,0.696,4.55028,81,5,
83.101,5.37567,4.11072,0.696,4.55028,81,5,
83.101,5.3717,4.1153,0.696,4.55028,81,5,
83.1011,5.37109,4.1153,0.696,4.55028,81,5,
83.1011,5.37109,4.1153,0.696,4.55028,81,5,
83.1011,5.36621,4.11224,0.696,4.55028,81,5,
83.1012,5.36652,4.1153,0.696,4.55028,81,5,
83.1012,5.36224,4.11682,0.696,4.55028,81,5,
83.1012,5.36163,4.11377,0.696,4.55028,81,5,
83.1013,5.36163,4.11377,0.696,4.55028,81,5,
83.1013,5.35675,4.11224,0.696,4.55028,81,5,
83.1013,5.35675,4.1153,0.696,4.55028,81,5,
83.1014,5.354,4.11377,0.696,4.55028,81,5,
83.1014,5.35156,4.11682,0.696,4.55028,81,5,
83.1014,5.35187,4.11682,0.696,4.55028,81,5,
83.1015,5.34637,4.1153,0.696,4.55028,81,5,
83.1015,5.34546,4.11377,0.696,4.55028,81,5,
83.1015,5.34454,4.11377,0.696,4.55028,81,5,
83.1016,5.3418,4.11377,0.696,4.55028,81,5,
83.1016,5.3418,4.1153,0.696,4.55028,81,5,
83.1016,5.33661,4.11377,0.696,4.55028,81,5,
83.1017,5.33691,4.11224,0.696,4.55028,81,5,
83.1017,5.33264,4.11072,0.696,4.55028,81,5,
83.1017,5.33112,4.11377,0.696,4.55028,81,5,
83.1018,5.33203,4.11072,0.696,4.55028,81,5,
83.1018,5.32715,4.1153,0.696,4.55028,81,5,
83.1018,5.32654,4.11377,0.696,4.55028,81,5,
83.1019,5.32257,4.11224,0.696,4.55028,81,5,
83.1019,5.32257,4.11682,0.696,4.55028,81,5,
83.1019,5.31952,4.1153,0.696,4.55028,81,5,
83.102,5.31677,4.11224,0.696,4.55028,81,5,
83.102,5.31769,4.11224,0.696,4.55028,81,5,
83.102,5.31189,4.11377,0.696,4.55028,81,5,
83.1021,5.31219,4.11224,0.696,4.55028,81,5,
83.1021,5.30792,4.11224,0.696,4.55028,81,5,
83.1021,5.30731,4.11377,0.696,4.55028,81,5,
83.1022,5.30365,4.11377,0.696,4.55028,81,5,
83.1022,5.30334,4.11377,0.696,4.55028,81,5,
83.1022,5.30029,4.1153,0.696,4.55028,81,5,
83.1023,5.29846,4.11377,0.696,4.55028,81,5,
83.1023,5.29755,4.11377,0.696,4.55028,81,5,
83.1023,5.29266,4.11377,0.696,4.55028,81,5,
83.1024,5.29327,4.1153,0.696,4.55028,81,5,
83.1024,5.28809,4.11377,0.696,4.55028,81,5,
83.1024,5.28809,4.11377,0.696,4.55028,81,5,
83.1025,5.28381,4.11072,0.696,4.55028,81,5,
83.1025,5.2829,4.11377,0.696,4.55028,81,5,
83.1025,5.27863,4.1153,0.696,4.55028,81,5,
83.1026,5.27832,4.11377,0.696,4.55028,81,5,
83.1026,5.27588,4.1153,0.696,4.55028,81,5,
83.1026,5.27283,4.1153,0.696,4.55028,81,5,
83.1027,5.27069,4.11224,0.696,4.55028,81,5,
83.1027,5.26886,4.11377,0.696,4.55028,81,5,
83.1027,5.26886,4.11224,0.696,4.55028,81,5,
83.1028,5.26367,4.11377,0.696,4.55028,81,5,
83.1028,5.26367,4.11835,0.696,4.55028,81,5,
83.1028,5.25909,4.11224,0.696,4.55028,81,5,
83.1029,5.25818,4.11377,0.696,4.55028,81,5,
83.1029,5.2533,4.11377,0.696,4.55028,81,5,
83.1029,5.2536,4.11377,0.696,4.55028,81,5,
83.103,5.24841,4.11377,0.696,4.55028,81,5,
83.103,5.24872,4.11682,0.696,4.55028,81,5,
83.103,5.24353,4.10767,0.696,4.55028,81,5,
83.1031,5.24414,4.11377,0.696,4.55028,81,5,
83.1031,5.23865,4.11377,0.696,4.55028,81,5,
83.1031,5.23987,4.1153,0.696,4.55028,81,5,
83.1032,5.23376,4.1153,0.696,4.55028,81,5,
83.1032,5.23376,4.11224,0.696,4.55028,81,5,
83.1032,5.22858,4.11224,0.696,4.55028,81,5,
83.1033,5.22858,4.11377,0.696,4.55028,81,5,
83.1033,5.22369,4.11224,0.696,4.55028,81,5,
83.1033,5.22461,4.1153,0.696,4.55028,81,5,
83.1034,5.21851,4.1153,0.696,4.55028,81,5,
83.1034,5.21881,4.11224,0.696,4.55028,81,5,
83.1034,5.21332,4.11224,0.696,4.55028,81,5,
83.1035,5.21454,4.11224,0.696,4.55028,81,5,
83.1035,5.20966,4.11224,0.696,4.55028,81,5,
83.1035,5.20691,4.11224,0.696,4.55028,81,5,
83.1036,5.20416,4.1153,0.696,4.55028,81,5,
83.1036,5.20233,4.11224,0.696,4.55028,81,5,
83.1036,5.19928,4.11377,0.696,4.55028,81,5,
83.1037,5.19531,4.11072,0.696,4.55028,81,5,
83.1037,5.19531,4.1153,0.696,4.55028,81,5,
83.1037,5.18982,4.1153,0.696,4.55028,81,5,
83.1038,5.18951,4.11224,0.696,4.55028,81,5,
83.1038,5.18494,4.1153,0.696,4.55028,81,5,
83.1038,5.18433,4.1153,0.696,4.55028,81,5,
83.1039,5.17975,4.11224,0.696,4.55028,81,5,
83.1039,5.177,4.11377,0.696,4.55028,81,5,
83.1039,5.17517,4.11377,0.696,4.55028,81,5,
83.104,5.1709,4.1153,0.696,4.55028,81,5,
83.104,5.17029,4.1153,0.696,4.55028,81,5,
83.104,5.1651,4.11835,0.696,4.55028,81,5,
83.1041,5.1651,4.11377,0.696,4.55028,81,5,
83.1041,5.159,4.11377,0.696,4.55028,81,5,
83.1041,5.15778,4.1153,0.696,4.55028,81,5,
83.1042,5.15564,4.1153,0.696,4.55028,81,5,
83.1042,5.15137,4.11377,0.696,4.55028,81,5,
83.1042,5.15106,4.1153,0.696,4.55028,81,5,
83.1043,5.14526,4.11224,0.696,4.55028,81,5,
83.1043,5.14526,4.1153,0.696,4.55028,81,5,
83.1043,5.14099,4.11224,0.696,4.55028,81,5,
83.1044,5.13641,4.1153,0.696,4.55028,81,5,
83.1044,5.1355,4.11377,0.696,4.55028,81,5,
83.1044,5.13092,4.11682,0.696,4.55028,81,5,
83.1045,5.13123,4.11224,0.696,4.55028,81,5,
83.1045,5.12634,4.11377,0.696,4.55028,81,5,
83.1045,5.1236,4.11377,0.696,4.55028,81,5,
83.1046,5.12054,4.11224,0.696,4.55028,81,5,
83.1046,5.11597,4.11224,0.696,4.55028,81,5,
83.1046,5.11627,4.11377,0.696,4.55028,81,5,
83.1047,5.11108,4.11072,0.696,4.55028,81,5,
83.1047,5.10895,4.1153,0.696,4.55028,81,5,
83.1047,5.1059,4.11377,0.696,4.55028,81,5,
83.1048,5.10193,4.1153,0.696,4.55028,81,5,
83.1048,5.10132,4.1153,0.696,4.55028,81,5,
83.1048,5.09674,4.1153,0.696,4.55028,81,5,
83.1049,5.09369,4.11224,0.696,4.55028,81,5,
83.1049,5.09186,4.1153,0.696,4.55028,81,5,
83.1049,5.08698,4.11377,0.696,4.55028,81,5,
83.105,5.08698,4.11377,0.696,4.55028,81,5,
83.105,5.08209,4.11224,0.696,4.55028,81,5,
83.105,5.07812,4.11224,0.696,4.55028,81,5,
83.1051,5.0769,4.11224,0.696,4.55028,81,5,
83.1051,5.07294,4.11377,0.696,4.55028,81,5,
83.1051,5.07019,4.11224,0.696,4.55028,81,5,
83.1052,5.06744,4.1153,0.696,4.55028,81,5,
83.1052,5.06317,4.11835,0.696,4.55028,81,5,
83.1052,5.06256,4.1153,0.696,4.55028,81,5,
83.1053,5.05859,4.11377,0.696,4.55028,81,5,
83.1053,5.05585,4.11377,0.696,4.55028,81,5,
83.1053,5.05371,4.11377,0.696,4.55028,81,5,
83.1054,5.04883,4.11224,0.696,4.55028,81,5,
83.1054,5.0473,4.1153,0.696,4.55028,81,5,
83.1054,5.04303,4.11224,0.696,4.55028,81,5,
83.1055,5.03967,4.11224,0.696,4.55028,81,5,
83.1055,5.03815,4.11377,0.696,4.55028,81,5,
83.1055,5.03357,4.11682,0.696,4.55028,81,5,
83.1056,5.03357,4.11072,0.696,4.55028,81,5,
83.1056,5.02838,4.11224,0.696,4.55028,81,5,
83.1056,5.02472,4.11224,0.696,4.55028,81,5,
83.1057,5.0235,4.11072,0.696,4.55028,81,5,
83.1057,5.01892,4.1153,0.696,4.55028,81,5,
83.1057,5.01617,4.11224,0.696,4.55028,81,5,
83.1058,5.01434,4.11224,0.696,4.55028,81,5,
83.1058,5.01007,4.1153,0.696,4.55028,81,5,
83.1058,5.00916,4.11224,0.696,4.55028,81,5,
83.1059,5.00397,4.11224,0.696,4.55028,81,5,
83.1059,5.00122,4.10919,0.696,4.55028,81,5,
83.1059,4.99939,4.11224,0.696,4.55028,81,5,
83.106,4.99481,4.11377,0.696,4.55028,81,5,
83.106,4.99451,4.1153,0.696,4.55028,81,5,
83.106,4.98962,4.11224,0.696,4.55028,81,5,
83.1061,4.98535,4.11377,0.696,4.55028,81,5,
83.1061,4.98413,4.10767,0.696,4.55028,81,5,
83.1061,4.97925,4.1153,0.696,4.55028,81,5,
83.1062,4.9765,4.1153,0.696,4.55028,81,5,
83.1062,4.97589,4.11377,0.696,4.55028,81,5,
83.1062,4.96979,4.11682,0.696,4.55028,81,5,
83.1063,4.96979,4.1153,0.696,4.55028,81,5,
83.1063,4.9649,4.11377,0.696,4.55028,81,5,
83.1063,4.96216,4.11072,0.696,4.55028,81,5,
83.1064,4.96002,4.11072,0.696,4.55028,81,5,
83.1064,4.95453,4.11224,0.696,4.55028,81,5,
83.1064,4.95514,4.11377,0.696,4.55028,81,5,
83.1065,4.94965,4.11377,0.696,4.55028,81,5,
83.1065,4.94598,4.1153,0.696,4.55028,81,5,
83.1065,4.94537,4.11224,0.696,4.55028,81,5,
83.1066,4.93958,4.1153,0.696,4.55028,81,5,
83.1066,4.94019,4.11224,0.696,4.55028,81,5,
83.1066,4.935,4.11682,0.696,4.55028,81,5,
83.1067,4.93103,4.11377,0.696,4.55028,81,5,
83.1067,4.93042,4.1153,0.696,4.55028,81,5,
83.1067,4.92523,4.11072,0.696,4.55028,81,5,
83.1068,4.92279,4.11224,0.696,4.55028,81,5,
83.1068,4.92065,4.11377,0.696,4.55028,81,5,
83.1068,4.91699,4.11377,0.696,4.55028,81,5,
83.1069,4.91547,4.10919,0.696,4.55028,81,5,
83.1069,4.91058,4.1153,0.696,4.55028,81,5,
83.1069,4.90875,4.11682,0.696,4.55028,81,5,
83.107,4.90631,4.1153,0.696,4.55028,81,5,
83.107,4.90112,4.11224,0.696,4.55028,81,5,
83.107,4.90112,4.11682,0.696,4.55028,81,5,
83.1071,4.89532,4.11072,0.696,4.55028,81,5,
83.1071,4.8938,4.1153,0.696,4.55028,81,5,
83.1071,4.89105,4.11224,0.696,4.55028,81,5,
83.1072,4.88678,4.11682,0.696,4.55028,81,5,
83.1072,4.88586,4.1153,0.696,4.55028,81,5,
83.1072,4.88098,4.11072,0.696,4.55028,81,5,
83.1073,4.87915,4.1153,0.696,4.55028,81,5,
83.1073,4.8761,4.1153,0.696,4.55028,81,5,
83.1073,4.87152,4.11224,0.696,4.55028,81,5,
83.1074,4.87152,4.11224,0.696,4.55028,81,5,
83.1074,4.86694,4.11072,0.696,4.55028,81,5,
83.1074,4.8642,4.11682,0.696,4.55028,81,5,
83.1075,4.86237,4.11682,0.696,4.55028,81,5,
83.1075,4.85779,4.11224,0.696,4.55028,81,5,
83.1075,4.85687,4.11377,0.696,4.55028,81,5,
83.1076,4.85229,4.1153,0.696,4.55028,81,5,
83.1076,4.85138,4.11377,0.696,4.55028,81,5,
83.1076,4.8465,4.11224,0.696,4.55028,81,5,
83.1077,4.84406,4.11377,0.696,4.55028,81,5,
83.1077,4.84222,4.1153,0.696,4.55028,81,5,
83.1077,4.83795,4.11377,0.696,4.55028,81,5,
83.1078,4.83704,4.11072,0.696,4.55028,81,5,
83.1078,4.83276,4.11682,0.696,4.55028,81,5,
83.1078,4.83246,4.11224,0.696,4.55028,81,5,
83.1079,4.82788,4.11377,0.696,4.55028,81,5,
83.1079,4.82452,4.1153,0.696,4.55028,81,5,
83.1079,4.82178,4.11377,0.696,4.55028,81,5,
83.108,4.81873,4.11377,0.696,4.55028,81,5,
83.108,4.8172,4.1153,0.696,4.55028,81,5,
83.108,4.81323,4.11377,0.696,4.55028,81,5,
83.1081,4.81201,4.11224,0.696,4.55028,81,5,
83.1081,4.80743,4.11224,0.696,4.55028,81,5,
83.1081,4.80591,4.1153,0.696,4.55028,81,5,
83.1082,4.80255,4.1153,0.696,4.55028,81,5,
83.1082,4.79889,4.1153,0.696,4.55028,81,5,
83.1082,4.79736,4.11072,0.696,4.55028,81,5,
83.1083,4.7934,4.11072,0.696,4.55028,81,5,
83.1083,4.79309,4.11072,0.696,4.55028,81,5,
83.1083,4.7876,4.11377,0.696,4.55028,81,5,
83.1084,4.78821,4.11377,0.696,4.55028,81,5,
83.1084,4.78302,4.11377,0.696,4.55028,81,5,
83.1084,4.78088,4.1153,0.696,4.55028,81,5,
83.1085,4.77844,4.1153,0.696,4.55028,81,5,
83.1085,4.77386,4.11377,0.696,4.55028,81,5,
83.1085,4.77325,4.1153,0.696,4.55028,81,5,
83.1086,4.76837,4.11224,0.696,4.55028,81,5,
83.1086,4.76898,4.11224,0.696,4.55028,81,5,
83.1086,4.7641,4.11224,0.696,4.55028,81,5,
83.1087,4.76074,4.11224,0.696,4.55028,81,5,
83.1087,4.75891,4.11377,0.696,4.55028,81,5,
83.1087,4.75616,4.11377,0.696,4.55028,81,5,
83.1088,4.75342,4.11377,0.696,4.55028,81,5,
83.1088,4.74915,4.1153,0.696,4.55028,81,5,
83.1088,4.74915,4.11224,0.696,4.55028,81,5,
83.1089,4.74396,4.11377,0.696,4.55028,81,5,
83.1089,4.74335,4.11224,0.696,4.55028,81,5,
83.1089,4.73877,4.11377,0.696,4.55028,81,5,
83.109,4.73938,4.11377,0.696,4.55028,81,5,
83.109,4.73358,4.11377,0.696,4.55028,81,5,
83.109,4.73145,4.11224,0.696,4.55028,81,5,
83.1091,4.72839,4.11224,0.696,4.55028,81,5,
83.1091,4.72534,4.11377,0.696,4.55028,81,5,
83.1091,4.72443,4.11682,0.696,4.55028,81,5,
83.1092,4.72015,4.11224,0.696,4.55028,81,5,
83.1092,4.71924,4.11072,0.696,4.55028,81,5,
83.1092,4.71405,4.11224,0.696,4.55028,81,5,
83.1093,4.71466,4.11224,0.696,4.55028,81,5,
83.1093,4.70917,4.11072,0.696,4.55028,81,5,
83.1093,4.70917,4.11682,0.696,4.55028,81,5,
83.1094,4.7052,4.11224,0.696,4.55028,81,5,
83.1094,4.70215,4.11377,0.696,4.55028,81,5,
83.1094,4.6991,4.11224,0.696,4.55028,81,5,
83.1095,4.69757,4.11224,0.696,4.55028,81,5,
83.1095,4.69482,4.1153,0.696,4.55028,81,5,
83.1095,4.69025,4.1153,0.696,4.55028,81,5,
83.1096,4.68994,4.11682,0.696,4.55028,81,5,
83.1096,4.68506,4.11682,0.696,4.55028,81,5,
83.1096,4.68475,4.11072,0.696,4.55028,81,5,
83.1097,4.68018,4.11682,0.696,4.55028,81,5,
83.1097,4.68018,4.11377,0.696,4.55028,81,5,
83.1097,4.67529,4.11224,0.696,4.55028,81,5,
83.1098,4.67529,4.10919,0.696,4.55028,81,5,
83.1098,4.67102,4.11224,0.696,4.55028,81,5,
83.1098,4.66797,4.11224,0.696,4.55028,81,5,
83.1099,4.66553,4.11224,0.696,4.55028,81,5,
83.1099,4.66125,4.11224,0.696,4.55028,81,5,
83.1099,4.66095,4.11377,0.696,4.55028,81,5,
83.11,4.65607,4.11682,0.696,4.55028,81,5,
83.11,4.65607,4.11377,0.696,4.55028,81,5,
83.11,4.65088,4.1153,0.696,4.55028,81,5,
83.1101,4.65118,4.11224,0.696,4.55028,81,5,
83.1101,4.6463,4.11377,0.696,4.55028,81,5,
83.1101,4.646,4.11377,0.696,4.55028,81,5,
83.1102,4.64111,4.11377,0.696,4.55028,81,5,
83.1102,4.64111,4.1153,0.696,4.55028,81,5,
83.1102,4.63593,4.1153,0.696,4.55028,81,5,
83.1103,4.63318,4.11072,0.696,4.55028,81,5,
83.1103,4.63135,4.11377,0.696,4.55028,81,5,
83.1103,4.6283,4.11072,0.696,4.55028,81,5,
83.1104,4.62646,4.11377,0.696,4.55028,81,5,
83.1104,4.62219,4.11072,0.696,4.55028,81,5,
83.1104,4.62067,4.11377,0.696,4.55028,81,5,
83.1105,4.61792,4.11377,0.696,4.55028,81,5,
83.1105,4.6167,4.10919,0.696,4.55028,81,5,
83.1105,4.61273,4.11224,0.696,4.55028,81,5,
83.1106,4.61182,4.11682,0.696,4.55028,81,5,
83.1106,4.60754,4.11224,0.696,4.55028,81,5,
83.1106,4.60663,4.11072,0.696,4.55028,81,5,
83.1107,4.60175,4.11072,0.696,4.55028,81,5,
83.1107,4.60175,4.11224,0.696,4.55028,81,5,
83.1107,4.59686,4.11224,0.696,4.55028,81,5,
83.1108,4.59717,4.11224,0.696,4.55028,81,5,
83.1108,4.59198,4.11224,0.696,4.55028,81,5,
83.1108,4.59198,4.11224,0.696,4.55028,81,5,
83.1109,4.5871,4.11377,0.696,4.55028,81,5,
83.1109,4.5871,4.1153,0.696,4.55028,81,5,
83.1109,4.58252,4.11377,0.696,4.55028,81,5,
83.111,4.58191,4.1153,0.696,4.55028,81,5,
83.111,4.57733,4.11377,0.696,4.55028,81,5,
83.111,4.57703,4.11224,0.696,4.55028,81,5,
83.1111,4.57214,4.11682,0.696,4.55028,81,5,
83.1111,4.57306,4.11224,0.696,4.55028,81,5,
83.1111,4.56757,4.11224,0.696,4.55028,81,5,
83.1112,4.56726,4.11377,0.696,4.55028,81,5,
83.1112,4.56299,4.1153,0.696,4.55028,81,5,
83.1112,4.56268,4.1153,0.696,4.55028,81,5,
83.1113,4.55811,4.11224,0.696,4.55028,81,5,
83.1113,4.5578,4.11072,0.696,4.55028,81,5,
83.1113,4.55292,4.11224,0.696,4.55028,81,5,
83.1114,4.55292,4.11224,0.696,4.55028,81,5,
83.1114,4.54834,4.11682,0.696,4.55028,81,5,
83.1114,4.54803,4.1153,0.696,4.55028,81,5,
83.1115,4.54376,4.11682,0.696,4.55028,81,5,
83.1115,4.54407,4.11072,0.696,4.55028,81,5,
83.1115,4.53918,4.11224,0.696,4.55028,81,5,
83.1116,4.53857,4.11224,0.696,4.55028,81,5,
83.1116,4.53339,4.11224,0.696,4.55028,81,5,
83.1116,4.53369,4.1153,0.696,4.55028,81,5,
83.1117,4.53156,4.1153,0.696,4.55028,81,5,
83.1117,4.52789,4.1153,0.696,4.55028,81,5,
83.1117,4.52576,4.11072,0.696,4.55028,81,5,
83.1118,4.52423,4.11377,0.696,4.55028,81,5,
83.1118,4.52087,4.1153,0.696,4.55028,81,5,
83.1118,4.51874,4.11377,0.696,4.55028,81,5,
83.1119,4.51874,4.11224,0.696,4.55028,81,5,
83.1119,4.51416,4.11224,0.696,4.55028,81,5,
83.1119,4.51416,4.11377,0.696,4.55028,81,5,
83.112,4.50806,4.11224,0.696,4.55028,81,5,
83.112,4.50897,4.11377,0.696,4.55028,81,5,
83.112,4.5047,4.11377,0.696,4.55028,81,5,
83.1121,4.50409,4.1153,0.696,4.55028,81,5,
83.1121,4.4989,4.11224,0.696,4.55028,81,5,
83.1121,4.49921,4.1153,0.696,4.55028,81,5,
83.1122,4.49493,4.11377,0.696,4.55028,81,5,
83.1122,4.49402,4.11377,0.696,4.55028,81,5,
83.1122,4.49097,4.11682,0.696,4.55028,81,5,
83.1123,4.48883,4.1153,0.696,4.55028,81,5,
83.1123,4.48639,4.11682,0.696,4.55028,81,5,
83.1123,4.48486,4.11682,0.696,4.55028,81,5,
83.1124,4.48456,4.11377,0.696,4.55028,81,5,
83.1124,4.47998,4.11224,0.696,4.55028,81,5,
83.1124,4.47937,4.11377,0.696,4.55028,81,5,
83.1125,4.47479,4.11224,0.696,4.55028,81,5,
83.1125,4.47418,4.11224,0.696,4.55028,81,5,
83.1125,4.47052,4.11377,0.696,4.55028,81,5,
83.1126,4.46991,4.1153,0.696,4.55028,81,5,
83.1126,4.46533,4.11224,0.696,4.55028,81,5,
83.1126,4.46411,4.10919,0.696,4.55028,81,5,
83.1127,4.46075,4.11072,0.696,4.55028,81,5,
83.1127,4.45953,4.11072,0.696,4.55028,81,5,
83.1127,4.45984,4.11682,0.696,4.55028,81,5,
83.1128,4.45465,4.1153,0.696,4.55028,81,5,
83.1128,4.45465,4.11377,0.696,4.55028,81,5,
83.1128,4.45068,4.11224,0.696,4.55028,81,5,
83.1129,4.45068,4.11224,0.696,4.55028,81,5,
83.1129,4.4458,4.1153,0.696,4.55028,81,5,
83.1129,4.44489,4.1153,0.696,4.55028,81,5,
83.113,4.44489,4.11224,0.696,4.55028,81,5,
83.113,4.44,4.11377,0.696,4.55028,81,5,
83.113,4.44,4.11224,0.696,4.55028,81,5,
83.1131,4.43512,4.1153,0.696,4.55028,81,5,
83.1131,4.43542,4.11377,0.696,4.55028,81,5,
83.1131,4.43115,4.11224,0.696,4.55028,81,5,
83.1132,4.42993,4.11377,0.696,4.55028,81,5,
83.1132,4.42749,4.11377,0.696,4.55028,81,5,
83.1132,4.42535,4.11224,0.696,4.55028,81,5,
83.1133,4.42566,4.11377,0.696,4.55028,81,5,
83.1133,4.42139,4.11377,0.696,4.55028,81,5,
83.1133,4.42047,4.1153,0.696,4.55028,81,5,
83.1134,4.4165,4.11377,0.696,4.55028,81,5,
83.1134,4.41528,4.1153,0.696,4.55028,81,5,
83.1134,4.41498,4.11377,0.696,4.55028,81,5,
83.1135,4.41101,4.11224,0.696,4.55028,81,5,
83.1135,4.41132,4.1153,0.696,4.55028,81,5,
83.1135,4.40613,4.11682,0.696,4.55028,81,5,
83.1136,4.40552,4.11224,0.696,4.55028,81,5,
83.1136,4.40582,4.1153,0.696,4.55028,81,5,
83.1136,4.40125,4.11682,0.696,4.55028,81,5,
83.1137,4.40033,4.11377,0.696,4.55028,81,5,
83.1137,4.39606,4.11682,0.696,4.55028,81,5,
83.1137,4.39575,4.11224,0.696,4.55028,81,5,
83.1138,4.39606,4.11377,0.696,4.55028,81,5,
83.1138,4.39117,4.11224,0.696,4.55028,81,5,
83.1138,4.39117,4.11377,0.696,4.55028,81,5,
83.1139,4.38629,4.11377,0.696,4.55028,81,5,
83.1139,4.3866,4.11224,0.696,4.55028,81,5,
83.1139,4.38599,4.1153,0.696,4.55028,81,5,
83.114,4.38202,4.11377,0.696,4.55028,81,5,
83.114,4.38141,4.11072,0.696,4.55028,81,5,
83.114,4.37805,4.11377,0.696,4.55028,81,5,
83.1141,4.37592,4.11377,0.696,4.55028,81,5,
83.1141,4.37592,4.11224,0.696,4.55028,81,5,
83.1141,4.37195,4.11377,0.696,4.55028,81,5,
83.1142,4.37164,4.11377,0.696,4.55028,81,5,
83.1142,4.37134,4.11377,0.696,4.55028,81,5,
83.1142,4.36676,4.11377,0.696,4.55028,81,5,
83.1143,4.36646,4.11377,0.696,4.55028,81,5,
83.1143,4.3634,4.1153,0.696,4.55028,81,5,
83.1143,4.36188,4.10919,0.696,4.55028,81,5,
83.1144,4.36157,4.11224,0.696,4.55028,81,5,
83.1144,4.3576,4.1153,0.696,4.55028,81,5,
83.1144,4.3573,4.11224,0.696,4.55028,81,5,
83.1145,4.35638,4.11682,0.696,4.55028,81,5,
83.1145,4.35211,4.11377,0.696,4.55028,81,5,
83.1145,4.35242,4.11377,0.696,4.55028,81,5,
83.1146,4.35211,4.11224,0.696,4.55028,81,5,
83.1146,4.34784,4.11377,0.696,4.55028,81,5,
83.1146,4.34723,4.11377,0.696,4.55028,81,5,
83.1147,4.34662,4.11072,0.696,4.55028,81,5,
83.1147,4.34143,4.11377,0.696,4.55028,81,5,
83.1147,4.34235,4.11682,0.696,4.55028,81,5,
83.1148,4.34174,4.11377,0.696,4.55028,81,5,
83.1148,4.33716,4.1153,0.696,4.55028,81,5,
83.1148,4.33685,4.11224,0.696,4.55028,81,5,
83.1149,4.33777,4.11682,0.696,4.55028,81,5,
83.1149,4.33197,4.11377,0.696,4.55028,81,5,
83.1149,4.33319,4.11377,0.696,4.55028,81,5,
83.115,4.33319,4.10919,0.696,4.55028,81,5,
83.115,4.32709,4.11224,0.696,4.55028,81,5,
83.115,4.32739,4.11835,0.696,4.55028,81,5,
83.1151,4.32739,4.1153,0.696,4.55028,81,5,
83.1151,4.3222,4.11224,0.696,4.55028,81,5,
83.1151,4.32251,4.11377,0.696,4.55028,81,5,
83.1152,4.32281,4.11377,0.696,4.55028,81,5,
83.1152,4.31793,4.11377,0.696,4.55028,81,5,
83.1152,4.31732,4.11377,0.696,4.55028,81,5,
83.1153,4.31732,4.11224,0.696,4.55028,81,5,
83.1153,4.3158,4.1153,0.696,4.55028,81,5,
83.1153,4.31244,4.1153,0.696,4.55028,81,5,
83.1154,4.31305,4.1153,0.696,4.55028,81,5,
83.1154,4.31274,4.11224,0.696,4.55028,81,5,
83.1154,4.30756,4.11682,0.696,4.55028,81,5,
83.1155,4.30817,4.11377,0.696,4.55028,81,5,
83.1155,4.30756,4.11377,0.696,4.55028,81,5,
83.1155,4.30328,4.11224,0.696,4.55028,81,5,
83.1156,4.30267,4.11072,0.696,4.55028,81,5,
83.1156,4.30328,4.11377,0.696,4.55028,81,5,
83.1156,4.30237,4.11224,0.696,4.55028,81,5,
83.1157,4.29871,4.11224,0.696,4.55028,81,5,
83.1157,4.2984,4.11377,0.696,4.55028,81,5,
83.1157,4.29779,4.11377,0.696,4.55028,81,5,
83.1158,4.29413,4.11224,0.696,4.55028,81,5,
83.1158,4.29352,4.10767,0.696,4.55028,82,5,
83.1158,4.29291,4.1153,0.696,4.55028,82,5,
83.1159,4.29321,4.11682,0.696,4.55028,82,5,
83.1159,4.28802,4.1153,0.696,4.55028,82,5,
83.1159,4.28802,4.11682,0.696,4.55028,82,5,
83.116,4.28833,4.1153,0.696,4.55028,82,5,
83.116,4.28772,4.11072,0.696,4.55028,82,5,
83.116,4.28375,4.11224,0.696,4.55028,82,5,
83.1161,4.28345,4.11377,0.696,4.55028,82,5,
83.1161,4.28284,4.11224,0.696,4.55028,82,5,
83.1161,4.28009,4.1153,0.696,4.55028,82,5,
83.1162,4.27795,4.11987,0.696,4.55028,82,5,
83.1162,4.27856,4.11377,0.696,4.55028,82,5,
83.1162,4.27795,4.1153,0.696,4.55028,82,5,
83.1163,4.27582,4.11224,0.696,4.55028,82,5,
83.1163,4.27338,4.1153,0.696,4.55028,82,5,
83.1163,4.27338,4.11224,0.696,4.55028,82,5,
83.1164,4.27399,4.11835,0.696,4.55028,82,5,
83.1164,4.27429,4.1153,0.696,4.55028,82,5,
83.1164,4.2688,4.11072,0.696,4.55028,82,5,
83.1165,4.2688,4.11682,0.696,4.55028,82,5,
83.1165,4.2688,4.11377,0.696,4.55028,82,5,
83.1165,4.26849,4.11224,0.696,4.55028,82,5,
83.1166,4.26361,4.11377,0.696,4.55028,82,5,
83.1166,4.26422,4.11835,0.696,4.55028,82,5,
83.1166,4.26422,4.11835,0.696,4.55028,82,5,
83.1167,4.26331,4.1153,0.696,4.55028,82,5,
83.1167,4.26147,4.11072,0.696,4.55028,82,5,
83.1167,4.25903,4.11224,0.696,4.55028,82,5,
83.1168,4.25964,4.11072,0.696,4.55028,82,5,
83.1168,4.25934,4.11224,0.696,4.55028,82,5,
83.1168,4.25934,4.11224,0.696,4.55028,82,5,
83.1169,4.25415,4.1153,0.696,4.55028,82,5,
83.1169,4.25415,4.11224,0.696,4.55028,82,5,
83.1169,4.25385,4.1153,0.696,4.55028,82,5,
83.117,4.25476,4.11682,0.696,4.55028,82,5,
83.117,4.25385,4.11072,0.696,4.55028,82,5,
83.117,4.24927,4.11224,0.696,4.55028,82,5,
83.1171,4.24896,4.1153,0.696,4.55028,82,5,
83.1171,4.24866,4.1153,0.696,4.55028,82,5,
83.1171,4.24896,4.11224,0.696,4.55028,82,5,
83.1172,4.24957,4.1153,0.696,4.55028,82,5,
83.1172,4.24438,4.11377,0.696,4.55028,82,5,
83.1172,4.24377,4.1153,0.696,4.55028,82,5,
83.1173,4.24408,4.11377,0.696,4.55028,82,5,
83.1173,4.24377,4.1153,0.696,4.55028,82,5,
83.1173,4.24408,4.11377,0.696,4.55028,82,5,
83.1174,4.2395,4.1153,0.696,4.55028,82,5,
83.1174,4.2392,4.11377,0.696,4.55028,82,5,
83.1174,4.23889,4.11224,0.696,4.55028,82,5,
83.1175,4.23981,4.1153,0.696,4.55028,82,5,
83.1175,4.23889,4.11377,0.696,4.55028,82,5,
83.1175,4.2392,4.11377,0.696,4.55028,82,5,
83.1176,4.23462,4.11072,0.696,4.55028,82,5,
83.1176,4.23431,4.1153,0.696,4.55028,82,5,
83.1176,4.23462,4.11377,0.696,4.55028,82,5,
83.1177,4.23462,4.11377,0.696,4.55028,82,5,
83.1177,4.23492,4.11224,0.696,4.55028,82,5,
83.1177,4.23462,4.11377,0.696,4.55028,82,5,
83.1178,4.22974,4.11377,0.696,4.55028,82,5,
83.1178,4.22913,4.11072,0.696,4.55028,82,5,
83.1178,4.22882,4.11377,0.696,4.55028,82,5,
83.1179,4.22943,4.11377,0.696,4.55028,82,5,
83.1179,4.22943,4.11835,0.696,4.55028,82,5,
83.1179,4.22943,4.11224,0.696,4.55028,82,5,
83.118,4.22638,4.1153,0.696,4.55028,82,5,
83.118,4.22363,4.11224,0.696,4.55028,82,5,
83.118,4.22485,4.11377,0.696,4.55028,82,5,
83.1181,4.22516,4.1153,0.696,4.55028,82,5,
83.1181,4.22424,4.1153,0.696,4.55028,82,5,
83.1181,4.22485,4.11224,0.696,4.55028,82,5,
83.1182,4.22455,4.11682,0.696,4.55028,82,5,
83.1182,4.22089,4.11224,0.696,4.55028,82,5,
83.1182,4.21967,4.11682,0.696,4.55028,82,5,
83.1183,4.21997,4.11224,0.696,4.55028,82,5,
83.1183,4.21967,4.1153,0.696,4.55028,82,5,
83.1183,4.21936,4.1153,0.696,4.55028,82,5,
83.1184,4.21936,4.1153,0.696,4.55028,82,5,
83.1184,4.21997,4.11224,0.696,4.55028,82,5,
83.1184,4.22028,4.11835,0.696,4.55028,82,5,
83.1185,4.21753,4.11377,0.696,4.55028,82,5,
83.1185,4.21509,4.11377,0.696,4.55028,82,5,
83.1185,4.21448,4.11224,0.696,4.55028,82,5,
83.1186,4.21509,4.11224,0.696,4.55028,82,5,
83.1186,4.21539,4.11224,0.696,4.55028,82,5,
83.1186,4.21478,4.11377,0.696,4.55028,82,5,
83.1187,4.21509,4.11377,0.696,4.55028,82,5,
83.1187,4.21509,4.1153,0.696,4.55028,82,5,
83.1187,4.21539,4.11224,0.696,4.55028,82,5,
83.1188,4.21539,4.1153,0.696,4.55028,82,5,
83.1188,4.21112,4.11377,0.696,4.55028,82,5,
83.1188,4.21051,4.1153,0.696,4.55028,82,5,
83.1189,4.21021,4.11377,0.696,4.55028,82,5,
83.1189,4.21021,4.11377,0.696,4.55028,82,5,
83.1189,4.2099,4.10919,0.696,4.55028,82,5,
83.119,4.21051,4.11224,0.696,4.55028,82,5,
83.119,4.2099,4.11682,0.696,4.55028,82,5,
83.119,4.20959,4.1153,0.696,4.55028,82,5,
83.1191,4.2099,4.11377,0.696,4.55028,82,5,
83.1191,4.20959,4.11377,0.696,4.55028,82,5,
83.1191,4.20532,4.10919,0.696,4.55028,82,5,
83.1192,4.2041,4.11377,0.696,4.55028,82,5,
83.1192,4.20441,4.1153,0.696,4.55028,82,5,
83.1192,4.20502,4.11072,0.696,4.55028,82,5,
83.1193,4.20441,4.11224,0.696,4.55028,82,5,
83.1193,4.20441,4.1153,0.696,4.55028,82,5,
83.1193,4.20471,4.11377,0.696,4.55028,82,5,
83.1194,4.20471,4.11377,0.696,4.55028,82,5,
83.1194,4.20471,4.11224,0.696,4.55028,82,5,
83.1194,4.20502,4.11224,0.696,4.55028,82,5,
83.1195,4.20441,4.11377,0.696,4.55028,82,5,
83.1195,4.20471,4.11682,0.696,4.55028,82,5,
83.1195,4.20502,4.11377,0.696,4.55028,82,5,
83.1196,4.20044,4.1153,0.696,4.55028,82,5,
83.1196,4.20013,4.11682,0.696,4.55028,82,5,
83.1196,4.19983,4.1153,0.696,4.55028,82,5,
83.1197,4.20013,4.11682,0.696,4.55028,82,5,
83.1197,4.19922,4.11224,0.696,4.55028,82,5,
83.1197,4.19952,4.11682,0.696,4.55028,82,5,
83.1198,4.19952,4.11377,0.696,4.55028,82,5,
83.1198,4.19952,4.11224,0.696,4.55028,82,5,
83.1198,4.19983,4.11377,0.696,4.55028,82,5,
83.1199,4.19983,4.1153,0.696,4.55028,82,5,
83.1199,4.20013,4.11377,0.696,4.55028,82,5,
83.1199,4.20013,4.1153,0.696,4.55028,82,5,
83.12,4.20013,4.11377,0.696,4.55028,82,5,
83.12,4.20013,4.11682,0.696,4.55028,82,5,
83.12,4.20013,4.11377,0.696,4.55028,82,5,
83.1201,4.19983,4.11682,0.696,4.55028,82,5,
83.1201,4.19708,4.11224,0.696,4.55028,82,5,
83.1201,4.19525,4.10919,0.696,4.55028,82,5,
83.1202,4.19495,4.11682,0.696,4.55028,82,5,
83.1202,4.19525,4.11224,0.696,4.55028,82,5,
83.1202,4.19525,4.1153,0.696,4.55028,82,5,
83.1203,4.19464,4.11377,0.696,4.55028,82,5,
83.1203,4.19525,4.11682,0.696,4.55028,82,5,
83.1203,4.19495,4.11224,0.696,4.55028,82,5,
83.1204,4.19556,4.11377,0.696,4.55028,82,5,
83.1204,4.19495,4.1153,0.696,4.55028,82,5,
83.1204,4.19525,4.1153,0.696,4.55028,82,5,
83.1205,4.19556,4.11377,0.696,4.55028,82,5,
83.1205,4.19556,4.1153,0.696,4.55028,82,5,
83.1205,4.19525,4.11377,0.696,4.55028,82,5,
83.1206,4.19495,4.11224,0.696,4.55028,82,5,
83.1206,4.19556,4.11682,0.696,4.55028,82,5,
83.1206,4.19525,4.11224,0.696,4.55028,82,5,
83.1207,4.19556,4.11377,0.696,4.55028,82,5,
83.1207,4.19586,4.11224,0.696,4.55028,82,5,
83.1207,4.19495,4.1153,0.696,4.55028,82,5,
83.1208,4.19556,4.11987,0.696,4.55028,82,5,
83.1208,4.19098,4.1153,0.696,4.55028,82,5,
83.1208,4.19067,4.11224,0.696,4.55028,82,5,
83.1209,4.19006,4.1153,0.696,4.55028,82,5,
83.1209,4.19067,4.1153,0.696,4.55028,82,5,
83.1209,4.19067,4.11682,0.696,4.55028,82,5,
83.121,4.19006,4.1153,0.696,4.55028,82,5,
83.121,4.19037,4.11224,0.696,4.55028,82,5,
83.121,4.19067,4.11682,0.696,4.55028,82,5,
83.1211,4.19067,4.1153,0.696,4.55028,82,5,
83.1211,4.19006,4.11224,0.696,4.55028,82,5,
83.1211,4.19006,4.11224,0.696,4.55028,82,5,
83.1212,4.19006,4.11682,0.696,4.55028,82,5,
83.1212,4.19037,4.11682,0.696,4.55028,82,5,
83.1212,4.18976,4.11224,0.696,4.55028,82,5,
83.1213,4.19006,4.11224,0.696,4.55028,82,5,
83.1213,4.19067,4.11224,0.696,4.55028,82,5,
83.1213,4.19067,4.11682,0.696,4.55028,82,5,
83.1214,4.19037,4.11377,0.696,4.55028,82,5,
83.1214,4.18976,4.11224,0.696,4.55028,82,5,
83.1214,4.19098,4.11682,0.696,4.55028,82,5,
83.1215,4.19037,4.1153,0.696,4.55028,82,5,
83.1215,4.19067,4.11224,0.696,4.55028,82,5,
83.1215,4.19098,4.11377,0.696,4.55028,82,5,
83.1216,4.19037,4.11377,0.696,4.55028,82,5,
83.1216,4.19037,4.11224,0.696,4.55028,82,5,
83.1216,4.19067,4.11377,0.696,4.55028,82,5,
83.1217,4.18518,4.11377,0.696,4.55028,82,5,
83.1217,4.18549,4.1153,0.696,4.55028,82,5,
83.1217,4.18488,4.11224,0.696,4.55028,82,5,
83.1218,4.18549,4.11682,0.696,4.55028,82,5,
83.1218,4.18549,4.11377,0.696,4.55028,82,5,
83.1218,4.18549,4.11377,0.696,4.55028,82,5,
83.1219,4.18579,4.11377,0.696,4.55028,82,5,
83.1219,4.18549,4.11224,0.696,4.55028,82,5,
83.1219,4.18579,4.1153,0.696,4.55028,82,5,
83.122,4.18579,4.1153,0.696,4.55028,82,5,
83.122,4.18549,4.1153,0.696,4.55028,82,5,
83.122,4.18488,4.1153,0.696,4.55028,82,5,
83.1221,4.18579,4.1153,0.696,4.55028,82,5,
83.1221,4.18518,4.11224,0.696,4.55028,82,5,
83.1221,4.18549,4.11224,0.696,4.55028,82,5,
83.1222,4.18579,4.11377,0.696,4.55028,82,5,
83.1222,4.18488,4.11224,0.696,4.55028,82,5,
83.1222,4.18488,4.11377,0.696,4.55028,82,5,
83.1223,4.18549,4.11224,0.696,4.55028,82,5,
83.1223,4.18549,4.11377,0.696,4.55028,82,5,
83.1223,4.18549,4.11682,0.696,4.55028,82,5,
83.1224,4.18579,4.11377,0.696,4.55028,82,5,
83.1224,4.18121,4.1153,0.696,4.55028,82,5,
83.1224,4.18121,4.11377,0.696,4.55028,82,5,
83.1225,4.17999,4.11682,0.696,4.55028,82,5,
83.1225,4.18121,4.11072,0.696,4.55028,82,5,
83.1225,4.18091,4.1153,0.696,4.55028,82,5,
83.1226,4.1806,4.1153,0.696,4.55028,82,5,
83.1226,4.1806,4.1153,0.696,4.55028,82,5,
83.1226,4.17969,4.1153,0.696,4.55028,82,5,
83.1227,4.1806,4.11224,0.696,4.55028,82,5,
83.1227,4.1803,4.11377,0.696,4.55028,82,5,
83.1227,4.1803,4.11072,0.696,4.55028,82,5,
83.1228,4.17999,4.11072,0.696,4.55028,82,5,
83.1228,4.17999,4.1153,0.696,4.55028,82,5,
83.1228,4.17999,4.1153,0.696,4.55028,82,5,
83.1229,4.18091,4.1153,0.696,4.55028,82,5,
83.1229,4.17603,4.11224,0.696,4.55028,82,5,
83.1229,4.17511,4.11224,0.696,4.55028,82,5,
83.123,4.17542,4.11682,0.696,4.55028,82,5,
83.123,4.17572,4.11682,0.696,4.55028,82,5,
83.123,4.17511,4.11377,0.696,4.55028,82,5,
83.1231,4.17419,4.1153,0.696,4.55028,82,5,
83.1231,4.17572,4.1153,0.696,4.55028,82,5,
83.1231,4.17511,4.1153,0.696,4.55028,82,5,
83.1232,4.17542,4.11072,0.696,4.55028,82,5,
83.1232,4.17542,4.11224,0.696,4.55028,82,5,
83.1232,4.17572,4.11682,0.696,4.55028,82,5,
83.1233,4.17114,4.11377,0.696,4.55028,82,5,
83.1233,4.17114,4.1153,0.696,4.55028,82,5,
83.1233,4.16992,4.11377,0.696,4.55028,82,5,
83.1234,4.17084,4.11682,0.696,4.55028,82,5,
83.1234,4.17053,4.11072,0.696,4.55028,82,5,
83.1234,4.17084,4.11377,0.696,4.55028,82,5,
83.1235,4.17053,4.1153,0.696,4.55028,82,5,
83.1235,4.17053,4.11377,0.696,4.55028,82,5,
83.1235,4.17053,4.11377,0.696,4.55028,82,5,
83.1236,4.17175,4.1153,0.696,4.55028,82,5,
83.1236,4.16992,4.11072,0.696,4.55028,82,5,
83.1236,4.16565,4.11377,0.696,4.55028,82,5,
83.1237,4.16595,4.11377,0.696,4.55028,82,5,
83.1237,4.16565,4.11377,0.696,4.55028,82,5,
83.1237,4.16565,4.11224,0.696,4.55028,82,5,
83.1238,4.16534,4.11224,0.696,4.55028,82,5,
83.1238,4.16534,4.11835,0.696,4.55028,82,5,
83.1238,4.16565,4.11224,0.696,4.55028,82,5,
83.1239,4.16534,4.11224,0.696,4.55028,82,5,
83.1239,4.16565,4.11377,0.696,4.55028,82,5,
83.1239,4.16107,4.1153,0.696,4.55028,82,5,
83.124,4.16046,4.11377,0.696,4.55028,82,5,
83.124,4.16077,4.10919,0.696,4.55028,82,5,
83.124,4.16107,4.11072,0.696,4.55028,82,5,
83.1241,4.16077,4.11682,0.696,4.55028,82,5,
83.1241,4.16046,4.1153,0.696,4.55028,82,5,
83.1241,4.16107,4.11835,0.696,4.55028,82,5,
83.1242,4.16077,4.1153,0.696,4.55028,82,5,
83.1242,4.16077,4.11377,0.696,4.55028,82,5,
83.1242,4.15558,4.11224,0.696,4.55028,82,5,
83.1243,4.15527,4.1153,0.696,4.55028,82,5,
83.1243,4.15619,4.11377,0.696,4.55028,82,5,
83.1243,4.15649,4.1153,0.696,4.55028,82,5,
83.1244,4.1568,4.11377,0.696,4.55028,82,5,
83.1244,4.15588,4.11377,0.696,4.55028,82,5,
83.1244,4.15558,4.11224,0.696,4.55028,82,5,
83.1245,4.15588,4.11682,0.696,4.55028,82,5,
83.1245,4.15588,4.11224,0.696,4.55028,82,5,
83.1245,4.15039,4.11835,0.696,4.55028,82,5,
83.1246,4.1507,4.11377,0.696,4.55028,82,5,
83.1246,4.15161,4.1153,0.696,4.55028,82,5,
83.1246,4.1507,4.11224,0.696,4.55028,82,5,
83.1247,4.15192,4.10919,0.696,4.55028,82,5,
83.1247,4.15131,4.11377,0.696,4.55028,82,5,
83.1247,4.15039,4.11224,0.696,4.55028,82,5,
83.1248,4.151,4.11377,0.696,4.55028,82,5,
83.1248,4.14612,4.11377,0.696,4.55028,82,5,
83.1248,4.14581,4.11377,0.696,4.55028,82,5,
83.1249,4.14612,4.11682,0.696,4.55028,82,5,
83.1249,4.14581,4.11377,0.696,4.55028,82,5,
83.1249,4.14581,4.1153,0.696,4.55028,82,5,
83.125,4.14581,4.11224,0.696,4.55028,82,5,
83.125,4.14612,4.1153,0.696,4.55028,82,5,
83.125,4.14612,4.1153,0.696,4.55028,82,5,
83.1251,4.14154,4.11377,0.696,4.55028,82,5,
83.1251,4.14062,4.11682,0.696,4.55028,82,5,
83.1251,4.14185,4.1153,0.696,4.55028,82,5,
83.1252,4.14154,4.11377,0.696,4.55028,82,5,
83.1252,4.14093,4.11377,0.696,4.55028,82,5,
83.1252,4.14154,4.11377,0.696,4.55028,82,5,
83.1253,4.14093,4.11224,0.696,4.55028,82,5,
83.1253,4.14093,4.11224,0.696,4.55028,82,5,
83.1253,4.13818,4.1153,0.696,4.55028,82,5,
83.1254,4.13574,4.11377,0.696,4.55028,82,5,
83.1254,4.13666,4.11377,0.696,4.55028,82,5,
83.1254,4.13635,4.11377,0.696,4.55028,82,5,
83.1255,4.13605,4.11682,0.696,4.55028,82,5,
83.1255,4.13635,4.11377,0.696,4.55028,82,5,
83.1255,4.13666,4.1153,0.696,4.55028,82,5,
83.1256,4.13605,4.11377,0.696,4.55028,82,5,
83.1256,4.13635,4.11835,0.696,4.55028,82,5,
83.1256,4.13177,4.11377,0.696,4.55028,82,5,
83.1257,4.13147,4.11835,0.696,4.55028,82,5,
83.1257,4.13147,4.11377,0.696,4.55028,82,5,
83.1257,4.13147,4.11377,0.696,4.55028,82,5,
83.1258,4.13147,4.1153,0.696,4.55028,82,5,
83.1258,4.13147,4.11072,0.696,4.55028,82,5,
83.1258,4.13116,4.11224,0.696,4.55028,82,5,
83.1259,4.13177,4.11682,0.696,4.55028,82,5,
83.1259,4.12537,4.11377,0.696,4.55028,82,5,
83.1259,4.12628,4.1153,0.696,4.55028,82,5,
83.126,4.12628,4.1153,0.696,4.55028,82,5,
83.126,4.12659,4.1153,0.696,4.55028,82,5,
83.126,4.12628,4.11377,0.696,4.55028,82,5,
83.1261,4.12659,4.1153,0.696,4.55028,82,5,
83.1261,4.12628,4.1153,0.696,4.55028,82,5,
83.1261,4.12659,4.11377,0.696,4.55028,82,5,
83.1262,4.1217,4.11377,0.696,4.55028,82,5,
83.1262,4.1214,4.11224,0.696,4.55028,82,5,
83.1262,4.1217,4.11377,0.696,4.55028,82,5,
83.1263,4.1217,4.11224,0.696,4.55028,82,5,
83.1263,4.1217,4.11224,0.696,4.55028,82,5,
83.1263,4.12201,4.1153,0.696,4.55028,82,5,
83.1264,4.1217,4.11377,0.696,4.55028,82,5,
83.1264,4.1217,4.1153,0.696,4.55028,82,5,
83.1264,4.11743,4.11682,0.696,4.55028,82,5,
83.1265,4.11652,4.1153,0.696,4.55028,82,5,
83.1265,4.11591,4.1153,0.696,4.55028,82,5,
83.1265,4.11682,4.1153,0.696,4.55028,82,5,
83.1266,4.11682,4.11224,0.696,4.55028,82,5,
83.1266,4.11682,4.11377,0.696,4.55028,82,5,
83.1266,4.11713,4.11377,0.696,4.55028,82,5,
83.1267,4.11682,4.11377,0.696,4.55028,82,5,
83.1267,4.11255,4.11835,0.696,4.55028,82,5,
83.1267,4.11163,4.11224,0.696,4.55028,82,5,
83.1268,4.11133,4.11072,0.696,4.55028,82,5,
83.1268,4.11224,4.11224,0.696,4.55028,82,5,
83.1268,4.11194,4.11682,0.696,4.55028,82,5,
83.1269,4.11163,4.11224,0.696,4.55028,82,5,
83.1269,4.11163,4.11377,0.696,4.55028,82,5,
83.1269,4.11194,4.11377,0.696,4.55028,82,5,
83.127,4.1095,4.11224,0.696,4.55028,82,5,
83.127,4.10675,4.11682,0.696,4.55028,82,5,
83.127,4.10706,4.10767,0.696,4.55028,82,5,
83.1271,4.10706,4.11224,0.696,4.55028,82,5,
83.1271,4.10706,4.11377,0.696,4.55028,82,5,
83.1271,4.10675,4.1153,0.696,4.55028,82,5,
83.1272,4.10706,4.11377,0.696,4.55028,82,5,
83.1272,4.10706,4.11224,0.696,4.55028,82,5,
83.1272,4.10675,4.11224,0.696,4.55028,82,5,
83.1273,4.10278,4.1153,0.696,4.55028,82,5,
83.1273,4.10248,4.11377,0.696,4.55028,82,5,
83.1273,4.10278,4.11377,0.696,4.55028,82,5,
83.1274,4.10187,4.11682,0.696,4.55028,82,5,
83.1274,4.10217,4.11224,0.696,4.55028,82,5,
83.1274,4.10248,4.11377,0.696,4.55028,82,5,
83.1275,4.10156,4.11224,0.696,4.55028,82,5,
83.1275,4.10217,4.10156,0.696,4.55028,82,5,
83.1275,4.10217,4.10156,0.696,4.55028,82,5,
83.1276,4.09851,4.10004,0.696,4.55028,82,5,
83.1276,4.09729,4.10004,0.696,4.55028,82,5,
83.1276,4.09729,4.10156,0.696,4.55028,82,5,
83.1277,4.09698,4.10004,0.696,4.55028,82,5,
83.1277,4.09729,4.10004,0.696,4.55028,82,5,
83.1277,4.09729,4.10004,0.696,4.55028,82,5,
83.1278,4.09698,4.10156,0.696,4.55028,82,5,
83.1278,4.09729,4.10156,0.696,4.55028,82,5,
83.1278,4.09729,4.10004,0.696,4.55028,82,5,
83.1279,4.09698,4.10004,0.696,4.55028,82,5,
83.1279,4.09271,4.10004,0.696,4.55028,82,5,
83.1279,4.09241,4.10156,0.696,4.55028,82,5,
83.128,4.09241,4.10156,0.696,4.55028,82,5,
83.128,4.0921,4.10004,0.696,4.55028,82,5,
83.128,4.09302,4.10156,0.696,4.55028,82,5,
83.1281,4.0921,4.10156,0.696,4.55028,82,5,
83.1281,4.0921,4.09851,0.696,4.55028,82,5,
83.1281,4.09241,4.10156,0.696,4.55028,82,5,
83.1282,4.09241,4.10462,0.696,4.55028,82,5,
83.1282,4.09241,4.10156,0.696,4.55028,82,5,
83.1282,4.09241,4.10156,0.696,4.55028,82,5,
83.1283,4.08783,4.10004,0.696,4.55028,82,5,
83.1283,4.08752,4.10156,0.696,4.55028,82,5,
83.1283,4.08752,4.10004,0.696,4.55028,82,5,
83.1284,4.08722,4.10309,0.696,4.55028,82,5,
83.1284,4.08691,4.10004,0.696,4.55028,82,5,
83.1284,4.08752,4.09851,0.696,4.55028,82,5,
83.1285,4.08752,4.10156,0.696,4.55028,82,5,
83.1285,4.08722,4.10004,0.696,4.55028,82,5,
83.1285,4.08752,4.10156,0.696,4.55028,82,5,
83.1286,4.08752,4.10156,0.696,4.55028,82,5,
83.1286,4.08722,4.10004,0.696,4.55028,82,5,
83.1286,4.08264,4.10004,0.696,4.55028,82,5,
83.1287,4.08295,4.10156,0.696,4.55028,82,5,
83.1287,4.08234,4.10156,0.696,4.55028,82,5,
83.1287,4.08264,4.10309,0.696,4.55028,82,5,
83.1288,4.08264,4.10309,0.696,4.55028,82,5,
83.1288,4.08234,4.10004,0.696,4.55028,82,5,
83.1288,4.08234,4.10462,0.696,4.55028,82,5,
83.1289,4.08234,4.10004,0.696,4.55028,82,5,
83.1289,4.08264,4.09851,0.696,4.55028,82,5,
83.1289,4.08203,4.10156,0.696,4.55028,82,5,
83.129,4.08264,4.10156,0.696,4.55028,82,5,
83.129,4.08264,4.10309,0.696,4.55028,82,5,
83.129,4.08234,4.10004,0.696,4.55028,82,5,
83.1291,4.07837,4.10309,0.696,4.55028,82,5,
83.1291,4.07776,4.10156,0.696,4.55028,82,5,
83.1291,4.07806,4.10004,0.696,4.55028,82,5,
83.1292,4.07684,4.10156,0.696,4.55028,82,5,
83.1292,4.07715,4.10156,0.696,4.55028,82,5,
83.1292,4.07745,4.10156,0.696,4.55028,82,5,
83.1293,4.07776,4.09851,0.696,4.55028,82,5,
83.1293,4.07715,4.10156,0.696,4.55028,82,5,
83.1293,4.07715,4.10004,0,4.55028,82,5,
83.1294,4.07745,4.10004,0,4.55028,82,5,
83.1294,4.07745,4.10004,0,4.55028,82,5,
83.1294,4.07715,4.10309,0,4.55028,82,5,
83.1295,4.07745,4.10462,0,4.55028,82,5,
83.1295,4.07715,4.10767,0,4.55028,82,5,
83.1295,4.07776,4.10004,0,4.55028,82,5,
83.1296,4.07715,4.10309,0,4.55028,82,5,
83.1296,4.07471,4.10156,0,4.55028,82,5,
83.1296,4.07318,4.10156,0,4.55028,82,5,
83.1297,4.07288,4.10462,0,4.55028,82,5,
83.1297,4.07257,4.10004,0,4.55028,82,5,
83.1297,4.07227,4.09851,0,4.55028,82,5,
83.1298,4.07257,4.10156,0,4.55028,82,5,
83.1298,4.07318,4.09851,0,4.55028,82,5,
83.1298,4.07379,4.10004,0,4.55028,82,5,
83.1299,4.07257,4.10156,0,4.55028,82,5,
83.1299,4.07349,4.10156,0,4.55028,82,5,
83.1299,4.07318,4.10004,0,4.55028,82,5,
83.13,4.07349,4.10462,0,4.55028,82,5,
83.13,4.07349,4.10156,0,4.55028,82,5,
83.13,4.07349,4.10309,0,4.55028,82,5,
83.1301,4.07257,4.10004,0,4.55028,82,5,
83.1301,4.07257,4.10156,0,4.55028,82,5,
83.1301,4.07227,4.10004,0,4.55028,82,5,
83.1302,4.07257,4.10004,0,4.55028,82,5,
83.1302,4.07257,4.10156,0,4.55028,82,5,
83.1302,4.07318,4.09851,0,4.55028,82,5,
83.1303,4.07318,4.10156,0,4.55028,82,5,
83.1303,4.07227,4.09699,0,4.55028,82,5,
83.1303,4.07257,4.10309,0,4.55028,82,5,
83.1304,4.07166,4.10004,0,4.55028,82,5,
83.1304,4.06647,4.09851,0,4.55028,82,5,
83.1304,4.06708,4.10156,0,4.55028,82,5,
83.1305,4.06677,4.10462,0,4.55028,82,5,
83.1305,4.06799,4.10462,0,4.55028,82,5,
83.1305,4.06738,4.10309,0,4.55028,82,5,
83.1306,4.06708,4.10156,0,4.55028,82,5,
83.1306,4.06738,4.10004,0,4.55028,82,5,
83.1306,4.06738,4.10156,0,4.55028,82,5,
83.1307,4.06738,4.10156,0,4.55028,82,5,
83.1307,4.06738,4.10309,0,4.55028,82,5,
83.1307,4.06769,4.09851,0,4.55028,82,5,
83.1308,4.06708,4.09699,0,4.55028,82,5,
83.1308,4.06738,4.10462,0,4.55028,82,5,
83.1308,4.06738,4.10462,0,4.55028,82,5,
83.1309,4.06799,4.10156,0,4.55028,82,5,
83.1309,4.06677,4.10309,0,4.55028,82,5,
83.1309,4.06769,4.10462,0,4.55028,82,5,
83.131,4.06799,4.10309,0,4.55028,82,5,
83.131,4.06738,4.10004,0,4.55028,82,5,
83.131,4.06799,4.10156,0,4.55028,82,5,
83.1311,4.06738,4.10004,0,4.55028,82,5,
83.1311,4.06799,4.10156,0,4.55028,82,5,
83.1311,4.06769,4.10309,0,4.55028,82,5,
83.1312,4.06738,4.10156,0,4.55028,82,5,
83.1312,4.06708,4.09851,0,4.55028,82,5,
83.1312,4.06738,4.10309,0,4.55028,82,5,
83.1313,4.06769,4.10004,0,4.55028,82,5,
83.1313,4.06799,4.10156,0,4.55028,82,5,
83.1313,4.0686,4.09851,0,4.55028,82,5,
83.1314,4.06799,4.10156,0,4.55028,82,5,
83.1314,4.06738,4.10309,0,4.55028,82,5,
83.1314,4.06799,4.10462,0,4.55028,82,5,
83.1315,4.06769,4.10156,0,4.55028,82,5,
83.1315,4.06799,4.10156,0,4.55028,82,5,
83.1315,4.06738,4.10004,0,4.55028,82,5,
83.1316,4.06799,4.10156,0,4.55028,82,5,
83.1316,4.06769,4.10004,0,4.55028,82,5,
83.1316,4.06799,4.10309,0,4.55028,82,5,
83.1317,4.06799,4.10309,0,4.55028,82,5,
83.1317,4.06708,4.10004,0,4.55028,82,5,
83.1317,4.06708,4.10004,0,4.55028,82,5,
83.1318,4.06525,4.09851,0,4.55028,82,5,
83.1318,4.0625,4.10309,0,4.55028,82,5,
83.1318,4.06311,4.10004,0,4.55028,82,5,
83.1319,4.06372,4.10004,0,4.55028,82,5,
83.1319,4.06219,4.10309,0,4.55028,82,5,
83.1319,4.06311,4.10309,0,4.55028,82,5,
83.132,4.0625,4.10156,0,4.55028,82,5,
83.132,4.06311,4.10004,0,4.55028,82,5,
83.132,4.06342,4.10309,0,4.55028,82,5,
83.1321,4.06311,4.10156,0,4.55028,82,5,
83.1321,4.06311,4.10309,0,4.55028,82,5,
83.1321,4.06281,4.10004,0,4.55028,82,5,
83.1322,4.06281,4.10156,0,4.55028,82,5,
83.1322,4.06281,4.09851,0,4.55028,82,5,
83.1322,4.06311,4.10004,0,4.55028,82,5,
83.1323,4.06281,4.10004,0,4.55028,82,5,
83.1323,4.06342,4.10156,0,4.55028,82,5,
83.1323,4.06281,4.10156,0,4.55028,82,5,
83.1324,4.06342,4.10004,0,4.55028,82,5,
83.1324,4.06342,4.10004,0,4.55028,82,5,
83.1324,4.06311,4.10156,0,4.55028,82,5,
83.1325,4.06342,4.10004,0,4.55028,82,5,
83.1325,4.06281,4.09851,0,4.55028,82,5,
83.1325,4.06281,4.10156,0,4.55028,82,5,
83.1326,4.06281,4.10004,0,4.55028,82,5,
83.1326,4.06372,4.10004,0,4.55028,82,5,
83.1326,4.0625,4.10309,0,4.55028,82,5,
83.1327,4.06281,4.10156,0,4.55028,82,5,
83.1327,4.06281,4.09851,0,4.55028,82,5,
83.1327,4.06281,4.10156,0,4.55028,82,5,
83.1328,4.06311,4.10156,0,4.55028,82,5,
83.1328,4.06281,4.10156,0,4.55028,82,5,
83.1328,4.06281,4.10156,0,4.55028,82,5,
83.1329,4.0625,4.10004,0,4.55028,82,5,
83.1329,4.06311,4.09699,0,4.55028,82,5,
83.1329,4.06342,4.10462,0,4.55028,82,5,
83.133,4.0625,4.10309,0,4.55028,82,5,
83.133,4.06219,4.10156,0,4.55028,82,5,
83.133,4.06281,4.10309,0,4.55028,82,5,
83.1331,4.06311,4.10156,0,4.55028,82,5,
83.1331,4.05853,4.10309,0,4.55028,82,5,
83.1331,4.05792,4.10004,0,4.55028,82,5,
83.1332,4.05823,4.10309,0,4.55028,82,5,
83.1332,4.05823,4.10004,0,4.55028,82,5,
83.1332,4.05823,4.10156,0,4.55028,82,5,
83.1333,4.05762,4.10156,0,4.55028,82,5,
83.1333,4.05792,4.09851,0,4.55028,82,5,
83.1333,4.05823,4.10004,0,4.55028,82,5,
83.1334,4.05823,4.10004,0,4.55028,82,5,
83.1334,4.05823,4.10156,0,4.55028,82,5,
83.1334,4.05762,4.10462,0,4.55028,82,5,
83.1335,4.05792,4.10156,0,4.55028,82,5,
83.1335,4.05792,4.09851,0,4.55028,82,5,
83.1335,4.05853,4.09699,0,4.55028,82,5,
83.1336,4.05762,4.10309,0,4.55028,82,5,
83.1336,4.05792,4.10309,0,4.55028,82,5,
83.1336,4.05823,4.10004,0,4.55028,82,5,
83.1337,4.05762,4.10156,0,4.55028,82,5,
83.1337,4.05365,4.09699,0,4.55028,82,5,
83.1337,4.05334,4.10004,0,4.55028,82,5,
83.1338,4.05273,4.10004,0,4.55028,82,5,
83.1338,4.05396,4.10462,0,4.55028,82,5,
83.1338,4.05304,4.10462,0,4.55028,82,5,
83.1339,4.05334,4.10156,0,4.55028,82,5,
83.1339,4.05334,4.10309,0,4.55028,82,5,
83.1339,4.05334,4.10004,0,4.55028,82,5,
83.134,4.05273,4.10004,0,4.55028,82,5,
83.134,4.05365,4.10004,0,4.55028,82,5,
83.134,4.05273,4.10156,0,4.55028,82,5,
83.1341,4.05273,4.10156,0,4.55028,82,5,
83.1341,4.05304,4.10156,0,4.55028,82,5,
83.1341,4.04877,4.10004,0,4.55028,82,5,
83.1342,4.04755,4.10309,0,4.55028,82,5,
83.1342,4.04816,4.10309,0,4.55028,82,5,
83.1342,4.04816,4.10309,0,4.55028,82,5,
83.1343,4.04846,4.10462,0,4.55028,82,5,
83.1343,4.04755,4.10309,0,4.55028,82,5,
83.1343,4.04755,4.10309,0,4.55028,82,5,
83.1344,4.04785,4.10004,0,4.55028,82,5,
83.1344,4.04816,4.10004,0,4.55028,82,5,
83.1344,4.04816,4.10462,0,4.55028,82,5,
83.1345,4.04816,4.10156,0,4.55028,82,5,
83.1345,4.04358,4.10309,0,4.55028,82,5,
83.1345,4.04327,4.10156,0,4.55028,82,5,
83.1346,4.04327,4.10156,0,4.55028,82,5,
83.1346,4.04388,4.09851,0,4.55028,82,5,
83.1346,4.04327,4.10004,0,4.55028,82,5,
83.1347,4.04266,4.10156,0,4.55028,82,5,
83.1347,4.04297,4.10156,0,4.55028,82,5,
83.1347,4.04297,4.10004,0,4.55028,82,5,
83.1348,4.04327,4.10309,0,4.55028,82,5,
83.1348,4.04327,4.10309,0,4.55028,82,5,
83.1348,4.03778,4.10156,0,4.55028,82,5,
83.1349,4.03778,4.10004,0,4.55028,82,5,
83.1349,4.03839,4.10309,0,4.55028,82,5,
83.1349,4.03839,4.09851,0,4.55028,82,5,
83.135,4.03778,4.10004,0,4.55028,82,5,
83.135,4.03809,4.10462,0,4.55028,82,5,
83.135,4.03839,4.10004,0,4.55028,82,5,
83.1351,4.03839,4.10156,0,4.55028,82,5,
83.1351,4.03809,4.10156,0,4.55028,82,5,
83.1351,4.0332,4.10462,0,4.55028,82,5,
83.1352,4.03381,4.10004,0,4.55028,82,5,
83.1352,4.03381,4.10156,0,4.55028,82,5,
83.1352,4.03381,4.10309,0,4.55028,82,5,
83.1353,4.03351,4.10156,0,4.55028,82,5,
83.1353,4.0332,4.10156,0,4.55028,82,5,
83.1353,4.0332,4.10156,0,4.55028,82,5,
83.1354,4.03381,4.10462,0,4.55028,82,5,
83.1354,4.03229,4.09851,0,4.55028,82,5,
83.1354,4.02893,4.10156,0,4.55028,82,5,
83.1355,4.02802,4.10156,0,4.55028,82,5,
83.1355,4.02893,4.09851,0,4.55028,82,5,
83.1355,4.02832,4.09851,0,4.55028,82,5,
83.1356,4.02832,4.10462,0,4.55028,82,5,
83.1356,4.02832,4.10004,0,4.55028,82,5,
83.1356,4.02924,4.10156,0,4.55028,82,5,
83.1357,4.02863,4.10004,0,4.55028,82,5,
83.1357,4.02313,4.10004,0,4.55028,82,5,
83.1357,4.02344,4.10309,0,4.55028,82,5,
83.1358,4.02344,4.10156,0,4.55028,82,5,
83.1358,4.02374,4.10309,0,4.55028,82,5,
83.1358,4.02374,4.10156,0,4.55028,82,5,
83.1359,4.02435,4.10004,0,4.55028,82,5,
83.1359,4.02374,4.10462,0,4.55028,82,5,
83.1359,4.02374,4.10156,0,4.55028,82,5,
83.136,4.01947,4.10004,0,4.55028,82,5,
83.136,4.01855,4.10156,0,4.55028,82,5,
83.136,4.01886,4.10156,0,4.55028,82,5,
83.1361,4.01917,4.10309,0,4.55028,82,5,
83.1361,4.01886,4.10156,0,4.55028,82,5,
83.1361,4.01886,4.10156,0,4.55028,82,5,
83.1362,4.01886,4.10156,0,4.55028,82,5,
83.1362,4.01825,4.09851,0,4.55028,82,5,
83.1362,4.0152,4.10156,0,4.55028,82,5,
83.1363,4.01367,4.10462,0,4.55028,82,5,
83.1363,4.01428,4.10156,0,4.55028,82,5,
83.1363,4.01367,4.10156,0,4.55028,82,5,
83.1364,4.01459,4.10156,0,4.55028,82,5,
83.1364,4.01367,4.10004,0,4.55028,82,5,
83.1364,4.01428,4.10156,0,4.55028,82,5,
83.1365,4.01367,4.09699,0,4.55028,82,5,
83.1365,4.01428,4.10004,0,4.55028,82,5,
83.1365,4.00909,4.10004,0,4.55028,82,5,
83.1366,4.00879,4.10156,0,4.55028,82,5,
83.1366,4.00909,4.10156,0,4.55028,82,5,
83.1366,4.00909,4.10156,0,4.55028,82,5,
83.1367,4.0094,4.10309,0,4.55028,82,5,
83.1367,4.00879,4.10462,0,4.55028,82,5,
83.1367,4.00879,4.10156,0,4.55028,82,5,
83.1368,4.00879,4.10309,0,4.55028,82,5,
83.1368,4.00452,4.10156,0,4.55028,82,5,
83.1368,4.00391,4.10462,0,4.55028,82,5,
83.1369,4.00391,4.10309,0,4.55028,82,5,
83.1369,4.00391,4.10462,0,4.55028,82,5,
83.1369,4.0036,4.09851,0,4.55028,82,5,
83.137,4.00421,4.10004,0,4.55028,82,5,
83.137,4.00421,4.10156,0,4.55028,82,5,
83.137,4.00421,4.09851,0,4.55028,82,5,
83.1371,3.99963,4.10004,0,4.55028,82,5,
83.1371,3.99902,4.10309,0,4.55028,82,5,
83.1371,3.99933,4.10309,0,4.55028,82,5,
83.1372,3.99902,4.10462,0,4.55028,82,5,
83.1372,3.99933,4.10309,0,4.55028,82,5,
83.1372,3.99902,4.10004,0,4.55028,82,5,
83.1373,3.99841,4.10156,0,4.55028,82,5,
83.1373,3.99841,4.10309,0,4.55028,82,5,
83.1373,3.99902,4.10004,0,4.55028,82,5,
83.1374,3.99353,4.10004,0,4.55028,82,5,
83.1374,3.99323,4.10462,0,4.55028,82,5,
83.1374,3.99445,4.10156,0,4.55028,82,5,
83.1375,3.99414,4.10309,0,4.55028,82,5,
83.1375,3.99353,4.10004,0,4.55028,82,5,
83.1375,3.99353,4.10309,0,4.55028,82,5,
83.1376,3.99414,4.10156,0,4.55028,82,5,
83.1376,3.99384,4.10156,0,4.55028,82,5,
83.1376,3.99445,4.10462,0,4.55028,82,5,
83.1377,3.98865,4.10309,0,4.55028,82,5,
83.1377,3.98926,4.10004,0,4.55028,82,5,
83.1377,3.98895,4.10004,0,4.55028,82,5,
83.1378,3.98895,4.10462,0,4.55028,82,5,
83.1378,3.98895,4.10004,0,4.55028,82,5,
83.1378,3.98895,4.10462,0,4.55028,82,5,
83.1379,3.98956,4.10004,0,4.55028,82,5,
83.1379,3.98926,4.09851,0,4.55028,82,5,
83.1379,3.98926,4.09851,0,4.55028,82,5,
83.138,3.9859,4.10004,0,4.55028,82,5,
83.138,3.98407,4.10309,0,4.55028,82,5,
83.138,3.98438,4.10156,0,4.55028,82,5,
83.1381,3.98407,4.10004,0,4.55028,82,5,
83.1381,3.98438,4.10309,0,4.55028,82,5,
83.1381,3.98407,4.09699,0,4.55028,82,5,
83.1382,3.98438,4.10156,0,4.55028,82,5,
83.1382,3.98468,4.10156,0,4.55028,82,5,
83.1382,3.98468,4.10004,0,4.55028,82,5,
83.1383,3.98376,4.10309,0,4.55028,82,5,
83.1383,3.98376,4.10004,0,4.55028,82,5,
83.1383,3.9798,4.09851,0,4.55028,82,5,
83.1384,3.97888,4.10156,0,4.55028,82,5,
83.1384,3.97949,4.10004,0,4.55028,82,5,
83.1384,3.9798,4.10156,0,4.55028,82,5,
83.1385,3.9801,4.10156,0,4.55028,82,5,
83.1385,3.9798,4.10309,0,4.55028,82,5,
83.1385,3.97919,4.10004,0,4.55028,82,5,
83.1386,3.97949,4.10156,0,4.55028,82,5,
83.1386,3.97949,4.09699,0,4.55028,82,5,
83.1386,3.9798,4.10004,0,4.55028,82,5,
83.1387,3.97858,4.10309,0,4.55028,82,5,
83.1387,3.9798,4.10004,0,4.55028,82,5,
83.1387,3.97369,4.10309,0,4.55028,82,5,
83.1388,3.97461,4.09851,0,4.55028,82,5,
83.1388,3.97491,4.10156,0,4.55028,82,5,
83.1388,3.97522,4.10156,0,4.55028,82,5,
83.1389,3.9743,4.10156,0,4.55028,82,5,
83.1389,3.97491,4.10309,0,4.55028,82,5,
83.1389,3.97522,4.10004,0,4.55028,82,5,
83.139,3.97461,4.10156,0,4.55028,82,5,
83.139,3.97461,4.10156,0,4.55028,82,5,
83.139,3.97461,4.10004,0,4.55028,82,5,
83.1391,3.97461,4.10156,0,4.55028,82,5,
83.1391,3.97522,4.10309,0,4.55028,82,5,
83.1391,3.97491,4.10309,0,4.55028,82,5,
83.1392,3.97461,4.09851,0,4.55028,82,5,
83.1392,3.97461,4.10309,0,4.55028,82,5,
83.1392,3.97034,4.09851,0,4.55028,82,5,
83.1393,3.97003,4.10004,0,4.55028,82,5,
83.1393,3.97034,4.10156,0,4.55028,82,5,
83.1393,3.96973,4.10004,0,4.55028,82,5,
83.1394,3.97034,4.10004,0,4.55028,82,5,
83.1394,3.96942,4.10156,0,4.55028,82,5,
83.1394,3.97034,4.10309,0,4.55028,82,5,
83.1395,3.96973,4.10004,0,4.55028,82,5,
83.1395,3.96912,4.10156,0,4.55028,82,5,
83.1395,3.96912,4.10309,0,4.55028,82,5,
83.1396,3.96973,4.10004,0,4.55028,82,5,
83.1396,3.97034,4.09851,0,4.55028,82,5,
83.1396,3.97034,4.10156,0,4.55028,82,5,
83.1397,3.96881,4.10004,0,4.55028,82,5,
83.1397,3.96942,4.10156,0,4.55028,82,5,
83.1397,3.97003,4.10004,0,4.55028,82,5,
83.1398,3.96942,4.09699,0,4.55028,82,5,
83.1398,3.96942,4.10004,0,4.55028,82,5,
83.1398,3.96942,4.10156,0,4.55028,82,5,
83.1399,3.97003,4.09851,0,4.55028,82,5,
83.1399,3.96942,4.10462,0,4.55028,82,5,
83.1399,3.96912,4.10156,0,4.55028,82,5,
83.14,3.96942,4.10004,0,4.55028,82,5,
83.14,3.96942,4.10004,0,4.55028,82,5,
83.14,3.97003,4.10309,0,4.55028,82,5,
83.1401,3.97034,4.10156,0,4.55028,82,5,
83.1401,3.96973,4.10004,0,4.55028,82,5,
83.1401,3.96942,4.09851,0,4.55028,82,5,
83.1402,3.96973,4.10156,0,4.55028,82,5,
83.1402,3.96942,4.09851,0,4.55028,82,5,
83.1402,3.96912,4.10156,0,4.55028,82,5,
83.1403,3.96973,4.10309,0,4.55028,82,5,
83.1403,3.96912,4.10309,0,4.55028,82,5,
83.1403,3.96912,4.10004,0,4.55028,82,5,
83.1404,3.96973,4.10004,0,4.55028,82,5,
83.1404,3.96973,4.10156,0,4.55028,82,5,
83.1404,3.96942,4.09851,0,4.55028,82,5,
83.1405,3.97003,4.10004,0,4.55028,82,5,
83.1405,3.97034,4.10156,0,4.55028,82,5,
83.1405,3.97003,4.10156,0,4.55028,82,5,
83.1406,3.96912,4.10004,0,4.55028,82,5,
83.1406,3.97003,4.09699,0,4.55028,82,5,
83.1406,3.96851,4.10156,0,4.55028,82,5,
83.1407,3.96973,4.10309,0,4.55028,82,5,
83.1407,3.96973,4.10309,0,4.55028,82,5,
83.1407,3.96881,4.10309,0,4.55028,82,5,
83.1408,3.96942,4.10156,0,4.55028,82,5,
83.1408,3.96942,4.10309,0,4.55028,82,5,
83.1408,3.96942,4.10156,0,4.55028,82,5,
83.1409,3.96973,4.10462,0,4.55028,82,5,
83.1409,3.97034,4.10156,0,4.55028,82,5,
83.1409,3.97278,4.10156,0,4.55028,82,5,
83.141,3.9743,4.10004,0,4.55028,82,5,
83.141,3.97522,4.10004,0,4.55028,82,5,
83.141,3.974,4.10156,0,4.55028,82,5,
83.1411,3.9743,4.10004,0,4.55028,82,5,
83.1411,3.97461,4.09851,0,4.55028,82,5,
83.1411,3.97491,4.10309,0,4.55028,82,5,
83.1412,3.97491,4.10156,0,4.55028,82,5,
83.1412,3.97491,4.10156,0,4.55028,82,5,
83.1412,3.97522,4.10156,0,4.55028,82,5,
83.1413,3.97461,4.10156,0,4.55028,82,5,
83.1413,3.9743,4.10309,0,4.55028,82,5,
83.1413,3.9798,4.10156,0,4.55028,82,5,
83.1414,3.9798,4.10156,0,4.55028,82,5,
83.1414,3.9798,4.10004,0,4.55028,82,5,
83.1414,3.9801,4.10004,0,4.55028,82,5,
83.1415,3.97949,4.10309,0,4.55028,82,5,
83.1415,3.97949,4.10309,0,4.55028,82,5,
83.1415,3.97919,4.10004,0,4.55028,82,5,
83.1416,3.97888,4.10156,0,4.55028,82,5,
83.1416,3.97949,4.10309,0,4.55028,82,5,
83.1416,3.98346,4.10156,0,4.55028,82,5,
83.1417,3.98376,4.10004,0,4.55028,82,5,
83.1417,3.98407,4.10309,0,4.55028,82,5,
83.1417,3.98376,4.10309,0,4.55028,82,5,
83.1418,3.98315,4.10004,0,4.55028,82,5,
83.1418,3.98376,4.10156,0,4.55028,82,5,
83.1418,3.98376,4.10309,0,4.55028,82,5,
83.1419,3.98712,4.10309,0,4.55028,82,5,
83.1419,3.98865,4.09851,0,4.55028,82,5,
83.1419,3.98865,4.10309,0,4.55028,82,5,
83.142,3.98895,4.10004,0,4.55028,82,5,
83.142,3.98987,4.09851,0,4.55028,82,5,
83.142,3.98895,4.10004,0,4.55028,82,5,
83.1421,3.98895,4.10156,0,4.55028,82,5,
83.1421,3.99384,4.10156,0,4.55028,82,5,
83.1421,3.99414,4.10156,0,4.55028,82,5,
83.1422,3.99414,4.10309,0,4.55028,82,5,
83.1422,3.99445,4.10156,0,4.55028,82,5,
83.1422,3.99414,4.10156,0,4.55028,82,5,
83.1423,3.99475,4.10309,0,4.55028,82,5,
83.1423,3.9975,4.10004,0,4.55028,82,5,
83.1423,3.99902,4.10462,0,4.55028,82,5,
83.1424,3.99933,4.10156,0,4.55028,82,5,
83.1424,3.99933,4.10156,0,4.55028,82,5,
83.1424,3.99902,4.10004,0,4.55028,82,5,
83.1425,3.99841,4.10156,0,4.55028,82,5,
83.1425,4.0033,4.10004,0,4.55028,82,5,
83.1425,4.00452,4.10156,0,4.55028,82,5,
83.1426,4.00421,4.09699,0,4.55028,82,5,
83.1426,4.00391,4.10004,0,4.55028,82,5,
83.1426,4.00391,4.10309,0,4.55028,82,5,
83.1427,4.00452,4.10156,0,4.55028,82,5,
83.1427,4.00818,4.09851,0,4.55028,82,5,
83.1427,4.00879,4.10156,0,4.55028,82,5,
83.1428,4.00848,4.10004,0,4.55028,82,5,
83.1428,4.00879,4.10156,0,4.55028,82,5,
83.1428,4.0094,4.10004,0,4.55028,82,5,
83.1429,4.01367,4.10309,0,4.55028,82,5,
83.1429,4.01398,4.09699,0,4.55028,82,5,
83.1429,4.01428,4.10309,0,4.55028,82,5,
83.143,4.01428,4.10004,0,4.55028,82,5,
83.143,4.01459,4.09851,0,4.55028,82,5,
83.143,4.01855,4.10156,0,4.55028,82,5,
83.1431,4.01886,4.10004,0,4.55028,82,5,
83.1431,4.01855,4.10004,0,4.55028,82,5,
83.1431,4.01917,4.10004,0,4.55028,82,5,
83.1432,4.021,4.09851,0,4.55028,82,5,
83.1432,4.02374,4.10156,0,4.55028,82,5,
83.1432,4.02405,4.10156,0,4.55028,82,5,
83.1433,4.02374,4.10156,0,4.55028,82,5,
83.1433,4.02435,4.10156,0,4.55028,82,5,
83.1433,4.02832,4.09699,0,4.55028,82,5,
83.1434,4.02863,4.10156,0,4.55028,82,5,
83.1434,4.02863,4.10004,0,4.55028,82,5,
83.1434,4.02832,4.10004,0,4.55028,82,5,
83.1435,4.03259,4.10462,0,4.55028,82,5,
83.1435,4.03381,4.09851,0,4.55028,82,5,
83.1435,4.03351,4.10156,0,4.55028,82,5,
83.1436,4.03351,4.10156,0,4.55028,82,5,
83.1436,4.03656,4.10309,0,4.55028,82,5,
83.1436,4.039,4.10004,0,4.55028,82,5,
83.1437,4.0387,4.10004,0,4.55028,82,5,
83.1437,4.03809,4.10309,0,4.55028,82,5,
83.1437,4.03839,4.09851,0,4.55028,82,5,
83.1438,4.04297,4.10156,0,4.55028,82,5,
83.1438,4.04358,4.10156,0,4.55028,82,5,
83.1438,4.04327,4.09851,0,4.55028,82,5,
83.1439,4.04358,4.10309,0,4.55028,82,5,
83.1439,4.04785,4.10309,0,4.55028,82,5,
83.1439,4.04816,4.10004,0,4.55028,82,5,
83.144,4.04846,4.10309,0,4.55028,82,5,
83.144,4.04755,4.10004,0,4.55028,82,5,
83.144,4.05304,4.10309,0,4.55028,82,5,
83.1441,4.05304,4.10309,0,4.55028,82,5,
83.1441,4.05334,4.10309,0,4.55028,82,5,
83.1441,4.05243,4.10156,0,4.55028,82,5,
83.1442,4.05884,4.10156,0,4.55028,82,5,
83.1442,4.05853,4.10309,0,4.55028,82,5,
83.1442,4.05792,4.10156,0,4.55028,82,5,
83.1443,4.05823,4.09851,0,4.55028,82,5,
83.1443,4.06281,4.09851,0,4.55028,82,5,
83.1443,4.06311,4.10156,0,4.55028,82,5,
83.1444,4.06311,4.10309,0,4.55028,82,5,
83.1444,4.06311,4.10004,0,4.55028,82,5,
83.1444,4.06799,4.10004,0,4.55028,82,5,
83.1445,4.06769,4.10309,0,4.55028,82,5,
83.1445,4.06799,4.10004,0,4.55028,82,5,
83.1445,4.0686,4.09851,0,4.55028,82,5,
83.1446,4.07318,4.09851,0,4.55028,82,5,
83.1446,4.07318,4.09699,0,4.55028,82,5,
83.1446,4.07288,4.10462,0,4.55028,82,5,
83.1447,4.07593,4.10309,0,4.55028,82,5,
83.1447,4.07776,4.10156,0,4.55028,82,5,
83.1447,4.07776,4.10462,0,4.55028,82,5,
83.1448,4.07837,4.10156,0,4.55028,82,5,
83.1448,4.08051,4.10004,0,4.55028,82,5,
83.1448,4.08295,4.10156,0,4.55028,82,5,
83.1449,4.08295,4.10156,0,4.55028,82,5,
83.1449,4.08295,4.10004,0,4.55028,82,5,
83.1449,4.08783,4.10309,0,4.55028,82,5,
83.145,4.08783,4.10156,0,4.55028,82,5,
83.145,4.08722,4.09851,0,4.55028,82,5,
83.145,4.08783,4.10156,0,4.55028,82,5,
83.1451,4.09241,4.10004,0,4.55028,82,5,
83.1451,4.09271,4.10156,0,4.55028,82,5,
83.1451,4.09302,4.10004,0,4.55028,82,5,
83.1452,4.0921,4.10156,0,4.55028,82,5,
83.1452,4.09729,4.10309,0,4.55028,82,5,
83.1452,4.09668,4.10004,0,4.55028,82,5,
83.1453,4.09698,4.09851,0,4.55028,82,5,
83.1453,4.09729,4.10309,0,4.55028,82,5,
83.1453,4.10187,4.10156,0,4.55028,82,5,
83.1454,4.10217,4.10156,0,4.55028,82,5,
83.1454,4.10187,4.10462,0,4.55028,82,5,
83.1454,4.10461,4.10004,0,4.55028,82,5,
83.1455,4.10736,4.10309,0,4.55028,82,5,
83.1455,4.10706,4.10309,0,4.55028,82,5,
83.1455,4.10583,4.10309,0,4.55028,82,5,
83.1456,4.11133,4.10309,0,4.55028,82,5,
83.1456,4.11224,4.10462,0,4.55028,82,5,
83.1456,4.11224,4.10156,0,4.55028,82,5,
83.1457,4.11163,4.10309,0,4.55028,82,5,
83.1457,4.11774,4.10309,0,4.55028,82,5,
83.1457,4.11713,4.10309,0,4.55028,82,5,
83.1458,4.11682,4.10156,0,4.55028,82,5,
83.1458,4.1217,4.10004,0,4.55028,82,5,
83.1458,4.12201,4.10156,0,4.55028,82,5,
83.1459,4.1217,4.10004,0,4.55028,82,5,
83.1459,4.12201,4.10462,0,4.55028,82,5,
83.1459,4.12689,4.10156,0,4.55028,82,5,
83.146,4.12689,4.10309,0,4.55028,82,5,
83.146,4.12628,4.10309,0,4.55028,82,5,
83.146,4.13086,4.10309,0,4.55028,82,5,
83.1461,4.13116,4.10309,0,4.55028,82,5,
83.1461,4.13116,4.10309,0,4.55028,82,5,
83.1461,4.13208,4.10156,0,4.55028,82,5,
83.1462,4.13574,4.10004,0,4.55028,82,5,
83.1462,4.13605,4.10004,0,4.55028,82,5,
83.1462,4.13696,4.10156,0,4.55028,82,5,
83.1463,4.14124,4.10156,0,4.55028,82,5,
83.1463,4.14154,4.10156,0,4.55028,82,5,
83.1463,4.14093,4.09851,0,4.55028,82,5,
83.1464,4.14612,4.10156,0,4.55028,82,5,
83.1464,4.14612,4.09699,0,4.55028,82,5,
83.1464,4.14642,4.09851,0,4.55028,82,5,
83.1465,4.14581,4.09851,0,4.55028,82,5,
83.1465,4.15161,4.10462,0,4.55028,82,5,
83.1465,4.151,4.10004,0,4.55028,82,5,
83.1466,4.151,4.10156,0,4.55028,82,5,
83.1466,4.15558,4.10156,0,4.55028,82,5,
83.1466,4.1568,4.10309,0,4.55028,82,5,
83.1467,4.15619,4.10004,0,4.55028,82,5,
83.1467,4.16016,4.10156,0,4.55028,82,5,
83.1467,4.16168,4.10004,0,4.55028,82,5,
83.1468,4.16077,4.10309,0,4.55028,82,5,
83.1468,4.16351,4.09851,0,4.55028,82,5,
83.1468,4.16565,4.10462,0,4.55028,82,5,
83.1469,4.16534,4.10004,0,4.55028,82,5,
83.1469,4.1687,4.09699,0,4.55028,82,5,
83.1469,4.17084,4.10004,0,4.55028,82,5,
83.147,4.17145,4.10004,0,4.55028,82,5,
83.147,4.17084,4.10004,0,4.55028,82,5,
83.147,4.17603,4.10156,0,4.55028,82,5,
83.1471,4.17603,4.10156,0,4.55028,82,5,
83.1471,4.17572,4.09851,0,4.55028,82,5,
83.1471,4.1806,4.10004,0,4.55028,82,5,
83.1472,4.1806,4.10156,0,4.55028,82,5,
83.1472,4.1806,4.10156,0,4.55028,82,5,
83.1472,4.18518,4.10004,0,4.55028,82,5,
83.1473,4.18549,4.10156,0,4.55028,82,5,
83.1473,4.18549,4.10156,0,4.55028,82,5,
83.1473,4.19067,4.10156,0,4.55028,82,5,
83.1474,4.19067,4.10156,0,4.55028,82,5,
83.1474,4.19006,4.10462,0,4.55028,82,5,
83.1474,4.19495,4.09851,0,4.55028,82,5,
83.1475,4.19525,4.09851,0,4.55028,82,5,
83.1475,4.19464,4.10156,0,4.55028,82,5,
83.1475,4.20013,4.10156,0,4.55028,82,5,
83.1476,4.20013,4.10462,0,4.55028,82,5,
83.1476,4.20105,4.10309,0,4.55028,82,5,
83.1476,4.20441,4.10309,0,4.55028,82,5,
83.1477,4.20441,4.10004,0,4.55028,82,5,
83.1477,4.20532,4.10156,0,4.55028,82,5,
83.1477,4.21051,4.10309,0,4.55028,82,5,
83.1478,4.20929,4.09851,0,4.55028,82,5,
83.1478,4.21326,4.09851,0,4.55028,82,5,
83.1478,4.21509,4.10309,0,4.55028,82,5,
83.1479,4.21509,4.10004,0,4.55028,82,5,
83.1479,4.21844,4.10004,0,4.55028,82,5,
83.1479,4.21997,4.10004,0,4.55028,82,5,
83.148,4.21997,4.10156,0,4.55028,82,5,
83.148,4.22455,4.10156,0,4.55028,82,5,
83.148,4.22455,4.10309,0,4.55028,82,5,
83.1481,4.22516,4.10156,0,4.55028,82,5,
83.1481,4.22943,4.10004,0,4.55028,82,5,
83.1481,4.22943,4.10156,0,4.55028,82,5,
83.1482,4.23279,4.10156,0,4.55028,82,5,
83.1482,4.23462,4.10156,0,4.55028,82,5,
83.1482,4.23401,4.10004,0,4.55028,82,5,
83.1483,4.23981,4.10004,0,4.55028,82,5,
83.1483,4.23981,4.09699,0,4.55028,82,5,
83.1483,4.24011,4.10004,0,4.55028,82,5,
83.1484,4.24377,4.10462,0,4.55028,82,5,
83.1484,4.24408,4.10156,0,4.55028,82,5,
83.1484,4.24835,4.10004,0,4.55028,82,5,
83.1485,4.24957,4.10156,0,4.55028,82,5,
83.1485,4.24927,4.10156,0,4.55028,82,5,
83.1485,4.25385,4.10309,0,4.55028,82,5,
83.1486,4.25385,4.10156,0,4.55028,82,5,
83.1486,4.25842,4.10156,0,4.55028,82,5,
83.1486,4.25873,4.10309,0,4.55028,82,5,
83.1487,4.26147,4.10309,0,4.55028,82,5,
83.1487,4.26392,4.10004,0,4.55028,82,5,
83.1487,4.26361,4.10309,0,4.55028,82,5,
83.1488,4.26941,4.10156,0,4.55028,82,5,
83.1488,4.26941,4.09851,0,4.55028,82,5,
83.1488,4.27338,4.10156,0,4.55028,82,5,
83.1489,4.27368,4.10156,0,4.55028,82,5,
83.1489,4.27643,4.10004,0,4.55028,82,5,
83.1489,4.27887,4.10462,0,4.55028,82,5,
83.149,4.27887,4.10156,0,4.55028,82,5,
83.149,4.28375,4.09851,0,4.55028,82,5,
83.149,4.28253,4.10004,0,4.55028,82,5,
83.1491,4.28864,4.10004,0,4.55028,82,5,
83.1491,4.28772,4.09851,0,4.55028,82,5,
83.1491,4.29291,4.09851,0,4.55028,82,5,
83.1492,4.29291,4.10004,0,4.55028,82,5,
83.1492,4.29718,4.10462,0,4.55028,82,5,
83.1492,4.29871,4.10004,0,4.55028,82,5,
83.1493,4.30115,4.10309,0,4.55028,82,5,
83.1493,4.30298,4.10156,0,4.55028,82,5,
83.1493,4.30603,4.10004,0,4.55028,82,5,
83.1494,4.30786,4.10004,0,4.55028,82,5,
83.1494,4.30817,4.10156,0,4.55028,82,5,
83.1494,4.31274,4.10004,0,4.55028,82,5,
83.1495,4.31335,4.10309,0,4.55028,82,5,
83.1495,4.31793,4.10614,0,4.55028,82,5,
83.1495,4.31885,4.10004,0,4.55028,82,5,
83.1496,4.32281,4.10004,0,4.55028,82,5,
83.1496,4.32312,4.10004,0,4.55028,82,5,
83.1496,4.328,4.10004,0,4.55028,82,5,
83.1497,4.3277,4.10156,0,4.55028,82,5,
83.1497,4.33228,4.10309,0,4.55028,82,5,
83.1497,4.33289,4.10004,0,4.55028,82,5,
83.1498,4.33716,4.10309,0,4.55028,82,5,
83.1498,4.33838,4.10462,0,4.55028,82,5,
83.1498,4.34296,4.10004,0,4.55028,82,5,
83.1499,4.34235,4.10767,0,4.55028,82,5,
83.1499,4.34692,4.10156,0,4.55028,82,5,
83.1499,4.34723,4.10462,0,4.55028,82,5,
83.15,4.35211,4.09851,0,4.55028,82,5,
83.15,4.35547,4.10156,0,4.55028,82,5,
83.15,4.35699,4.10309,0,4.55028,82,5,
83.1501,4.36005,4.10004,0,4.55028,82,5,
83.1501,4.36157,4.10004,0,4.55028,82,5,
83.1501,4.36584,4.10462,0,4.55028,82,5,
83.1502,4.36707,4.10309,0,4.55028,82,5,
83.1502,4.37134,4.10156,0,4.55028,82,5,
83.1502,4.37164,4.10156,0,4.55028,82,5,
83.1503,4.37592,4.10309,0,4.55028,82,5,
83.1503,4.37683,4.10004,0,4.55028,82,5,
