1700-SECPT.acq
2 msec/sample
6 channels
RSP, X, RSPEC-R
Volts
EDA, Y, PPGED-R
microsiemens
ECG R-R
Seconds
Respiration Rate
BPM
C7 - EDR
Peaks
C14 - Control
Volts
sec,CH1,CH14,CH40,CH42,CH47,CH54,
,20779,20779,20779,20779,20779,20779,
10079.3,2.22534,14.1388,2.29,19.1449,1073,5,
10079.3,2.22534,14.1403,2.29,19.1449,1073,5,
10079.3,2.23022,14.1418,2.29,19.1449,1073,5,
10079.3,2.23053,14.1418,2.29,19.1449,1073,5,
10079.3,2.23022,14.1434,2.29,19.1449,1073,5,
10079.3,2.23145,14.1403,2.29,19.1449,1073,5,
10079.3,2.2348,14.1388,2.29,19.1449,1073,5,
10079.3,2.2345,14.1403,2.29,19.1449,1073,5,
10079.3,2.23541,14.1388,2.29,19.1449,1073,5,
10079.3,2.23969,14.1388,2.29,19.1449,1073,5,
10079.3,2.23999,14.1388,2.29,19.1449,1073,5,
10079.3,2.2406,14.1373,2.29,19.1449,1073,5,
10079.3,2.24182,14.1403,2.29,19.1449,1073,5,
10079.3,2.24457,14.1418,2.29,19.1449,1073,5,
10079.3,2.24518,14.1418,2.29,19.1449,1073,5,
10079.3,2.24426,14.1296,2.29,19.1449,1073,5,
10079.3,2.24976,14.1281,2.29,19.1449,1073,5,
10079.3,2.24976,14.1266,2.29,19.1449,1073,5,
10079.3,2.24976,14.1266,2.29,19.1449,1073,5,
10079.3,2.25128,14.1281,2.29,19.1449,1073,5,
10079.3,2.25494,14.1266,2.29,19.1449,1073,5,
10079.3,2.25464,14.1296,2.29,19.1449,1073,5,
10079.3,2.25494,14.1312,2.29,19.1449,1073,5,
10079.3,2.25952,14.1266,2.29,19.1449,1073,5,
10079.3,2.25983,14.1296,2.29,19.1449,1073,5,
10079.3,2.25952,14.1296,2.29,19.1449,1073,5,
10079.3,2.26135,14.1281,2.29,19.1449,1073,5,
10079.3,2.2644,14.1281,2.29,19.1449,1073,5,
10079.3,2.26471,14.1281,2.29,19.1449,1073,5,
10079.3,2.26471,14.1281,2.29,19.1449,1073,5,
10079.3,2.26959,14.1312,2.29,19.1449,1073,5,
10079.3,2.26898,14.1296,2.29,19.1449,1073,5,
10079.3,2.26929,14.1281,2.29,19.1449,1073,5,
10079.3,2.27417,14.1312,2.29,19.1449,1073,5,
10079.3,2.27356,14.1281,2.29,19.1449,1073,5,
10079.3,2.27448,14.1235,2.29,19.1449,1073,5,
10079.4,2.27844,14.1144,2.29,19.1449,1073,5,
10079.4,2.27905,14.1205,2.29,19.1449,1073,5,
10079.4,2.27966,14.1159,2.29,19.1449,1073,5,
10079.4,2.28363,14.1144,2.29,19.1449,1073,5,
10079.4,2.28394,14.1174,2.29,19.1449,1073,5,
10079.4,2.28394,14.1144,2.29,19.1449,1073,5,
10079.4,2.28821,14.1159,2.29,19.1449,1073,5,
10079.4,2.28882,14.1174,2.29,19.1449,1073,5,
10079.4,2.29004,14.1159,2.29,19.1449,1073,5,
10079.4,2.29401,14.1159,2.29,19.1449,1073,5,
10079.4,2.2934,14.1159,2.29,19.1449,1073,5,
10079.4,2.29767,14.1159,2.29,19.1449,1073,5,
10079.4,2.29919,14.1174,2.29,19.1449,1073,5,
10079.4,2.29889,14.119,2.29,19.1449,1073,5,
10079.4,2.30255,14.1159,2.29,19.1449,1073,5,
10079.4,2.30347,14.1205,2.29,19.1449,1073,5,
10079.4,2.30347,14.1174,2.29,19.1449,1073,5,
10079.4,2.30835,14.1159,2.29,19.1449,1073,5,
10079.4,2.30835,14.119,2.29,19.1449,1073,5,
10079.4,2.31293,14.1144,2.29,19.1449,1073,5,
10079.4,2.31445,14.1037,2.29,19.1449,1073,5,
10079.4,2.31293,14.1037,2.29,19.1449,1073,5,
10079.4,2.31842,14.1006,2.29,19.1449,1073,5,
10079.4,2.31873,14.1037,2.29,19.1449,1073,5,
10079.4,2.32269,14.1022,2.29,19.1449,1073,5,
10079.4,2.323,14.1052,2.29,19.1449,1073,5,
10079.4,2.32483,14.1037,2.29,19.1449,1073,5,
10079.4,2.32819,14.1052,2.29,19.1449,1073,5,
10079.4,2.32819,14.1022,2.29,19.1449,1073,5,
10079.4,2.33307,14.1037,2.29,19.1449,1073,5,
10079.4,2.33307,14.1037,2.29,19.1449,1073,5,
10079.4,2.33795,14.1068,2.29,19.1449,1073,5,
10079.4,2.33856,14.1052,2.29,19.1449,1073,5,
10079.4,2.34192,14.1022,2.29,19.1449,1073,5,
10079.4,2.34253,14.1052,2.29,19.1449,1073,5,
10079.4,2.34436,14.1052,2.29,19.1449,1073,5,
10079.4,2.34741,14.1037,2.29,19.1449,1073,5,
10079.4,2.34955,14.1052,2.29,19.1449,1073,5,
10079.4,2.35229,14.1022,2.29,19.1449,1073,5,
10079.4,2.35382,14.1037,2.29,19.1449,1073,5,
10079.4,2.35657,14.1037,2.29,19.1449,1073,5,
10079.4,2.35901,14.093,2.29,19.1449,1073,5,
10079.4,2.36237,14.093,2.29,19.1449,1073,5,
10079.4,2.3642,14.0945,2.29,19.1449,1073,5,
10079.4,2.36725,14.093,2.29,19.1449,1073,5,
10079.4,2.36908,14.0915,2.29,19.1449,1073,5,
10079.4,2.37213,14.093,2.29,19.1449,1073,5,
10079.4,2.3761,14.0869,2.29,19.1449,1073,5,
10079.4,2.37732,14.093,2.29,19.1449,1073,5,
10079.4,2.38068,14.0961,2.29,19.1449,1073,5,
10079.5,2.3822,14.0945,2.29,19.1449,1073,5,
10079.5,2.38617,14.0915,2.29,19.1449,1073,5,
10079.5,2.38647,14.0945,2.29,19.1449,1073,5,
10079.5,2.39227,14.0884,2.29,19.1449,1073,5,
10079.5,2.39349,14.0915,2.29,19.1449,1073,5,
10079.5,2.39685,14.0915,2.29,19.1449,1073,5,
10079.5,2.40082,14.0961,2.29,19.1449,1073,5,
10079.5,2.40234,14.093,2.29,19.1449,1073,5,
10079.5,2.40662,14.0884,2.29,19.1449,1073,5,
10079.5,2.40662,14.0945,2.29,19.1449,1073,5,
10079.5,2.41211,14.0915,2.29,19.1449,1073,5,
10079.5,2.41516,14.0945,2.29,19.1449,1073,5,
10079.5,2.41699,14.0793,2.29,19.1449,1073,5,
10079.5,2.42096,14.0808,2.29,19.1449,1073,5,
10079.5,2.4231,14.0823,2.29,19.1449,1073,5,
10079.5,2.42615,14.0808,2.29,19.1449,1073,5,
10079.5,2.43042,14.0823,2.29,19.1449,1073,5,
10079.5,2.43164,14.0823,2.29,19.1449,1073,5,
10079.5,2.43591,14.0808,2.29,19.1449,1073,5,
10079.5,2.43958,14.0793,2.29,19.1449,1073,5,
10079.5,2.4411,14.0808,2.29,19.1449,1073,5,
10079.5,2.44629,14.0793,2.29,19.1449,1073,5,
10079.5,2.45087,14.0793,2.29,19.1449,1073,5,
10079.5,2.45117,14.0778,2.29,19.1449,1073,5,
10079.5,2.45575,14.0793,2.29,19.1449,1073,5,
10079.5,2.4588,14.0823,2.29,19.1449,1073,5,
10079.5,2.46033,14.0823,2.29,19.1449,1073,5,
10079.5,2.46613,14.0808,2.29,19.1449,1073,5,
10079.5,2.46979,14.0762,2.29,19.1449,1073,5,
10079.5,2.47101,14.0808,2.29,19.1449,1073,5,
10079.5,2.47559,14.0793,2.29,19.1449,1073,5,
10079.5,2.47986,14.0808,2.29,19.1449,1073,5,
10079.5,2.48199,14.0747,2.29,19.1449,1073,5,
10079.5,2.48566,14.0717,2.29,19.1449,1073,5,
10079.5,2.49023,14.0686,2.29,19.1449,1073,5,
10079.5,2.4942,14.0686,2.29,19.1449,1073,5,
10079.5,2.49451,14.0656,2.29,19.1449,1073,5,
10079.5,2.49969,14.0686,2.29,19.1449,1073,5,
10079.5,2.50427,14.0686,2.29,19.1449,1073,5,
10079.5,2.5061,14.0686,2.29,19.1449,1073,5,
10079.5,2.50977,14.0686,2.29,19.1449,1073,5,
10079.5,2.51465,14.0686,2.29,19.1449,1073,5,
10079.5,2.51831,14.0686,2.29,19.1449,1073,5,
10079.5,2.5235,14.0686,2.29,19.1449,1073,5,
10079.5,2.52411,14.0686,2.29,19.1449,1073,5,
10079.5,2.5293,14.0671,2.29,19.1449,1073,5,
10079.5,2.53418,14.0671,2.29,19.1449,1073,5,
10079.5,2.53693,14.0701,2.29,19.1449,1073,5,
10079.5,2.54028,14.0701,2.29,19.1449,1073,5,
10079.5,2.54395,14.0671,2.29,19.1449,1073,5,
10079.5,2.54883,14.0671,2.29,19.1449,1073,5,
10079.6,2.55371,14.0686,2.29,19.1449,1073,5,
10079.6,2.55737,14.0686,2.29,19.1449,1073,5,
10079.6,2.56256,14.0686,2.29,19.1449,1073,5,
10079.6,2.565,14.0686,2.29,19.1449,1073,5,
10079.6,2.56805,14.0671,2.29,19.1449,1073,5,
10079.6,2.57324,14.0701,2.29,19.1449,1073,5,
10079.6,2.57751,14.0671,2.29,19.1449,1073,5,
10079.6,2.58209,14.064,2.29,19.1449,1073,5,
10079.6,2.58636,14.0671,2.29,19.1449,1073,5,
10079.6,2.59125,14.0671,2.29,19.1449,1073,5,
10079.6,2.5943,14.0671,2.29,19.1449,1073,5,
10079.6,2.59827,14.0671,2.29,19.1449,1073,5,
10079.6,2.60284,14.0686,2.29,19.1449,1073,5,
10079.6,2.60742,14.0656,2.29,19.1449,1073,5,
10079.6,2.61261,14.0686,2.29,19.1449,1073,5,
10079.6,2.61719,14.0533,2.29,19.1449,1073,5,
10079.6,2.62177,14.0564,2.29,19.1449,1073,5,
10079.6,2.62634,14.0549,2.29,19.1449,1073,5,
10079.6,2.63092,14.0549,2.29,19.1449,1073,5,
10079.6,2.63519,14.061,2.29,19.1449,1073,5,
10079.6,2.64008,14.0564,2.29,19.1449,1073,5,
10079.6,2.64282,14.0549,2.29,19.1449,1073,5,
10079.6,2.64832,14.0579,2.29,19.1449,1073,5,
10079.6,2.65259,14.0533,2.29,19.1449,1073,5,
10079.6,2.65778,14.0564,2.29,19.1449,1073,5,
10079.6,2.66235,14.0549,2.29,19.1449,1073,5,
10079.6,2.66632,14.0564,2.29,19.1449,1073,5,
10079.6,2.6709,14.0564,2.29,19.1449,1073,5,
10079.6,2.67639,14.0594,2.29,19.1449,1073,5,
10079.6,2.68005,14.0518,2.29,19.1449,1073,5,
10079.6,2.68585,14.0549,2.29,19.1449,1073,5,
10079.6,2.69104,14.0564,2.29,19.1449,1073,5,
10079.6,2.69623,14.0549,2.29,19.1449,1073,5,
10079.6,2.7002,14.0579,2.29,19.1449,1073,5,
10079.6,2.70599,14.0549,2.29,19.1449,1073,5,
10079.6,2.71118,14.0533,2.29,19.1449,1073,5,
10079.6,2.71515,14.0579,2.29,19.1449,1073,5,
10079.6,2.72064,14.0503,2.29,19.1449,1073,5,
10079.6,2.72552,14.0564,2.29,19.1449,1073,5,
10079.6,2.72949,14.0564,2.29,19.1449,1073,5,
10079.6,2.73621,14.0579,2.29,19.1449,1073,5,
10079.6,2.74109,14.0549,2.29,19.1449,1073,5,
10079.6,2.74567,14.0579,2.29,19.1449,1073,5,
10079.6,2.75085,14.0594,2.29,19.1449,1073,5,
10079.6,2.75574,14.0549,2.29,19.1449,1073,5,
10079.6,2.76093,14.0564,2.29,19.1449,1073,5,
10079.6,2.76825,14.0564,2.29,19.1449,1073,5,
10079.6,2.77344,14.0564,2.29,19.1449,1073,5,
10079.6,2.77863,14.0549,2.29,19.1449,1073,5,
10079.6,2.78259,14.0579,2.29,19.1449,1073,5,
10079.7,2.78839,14.0594,2.29,19.1449,1073,5,
10079.7,2.79297,14.0564,2.29,19.1449,1073,5,
10079.7,2.79785,14.0549,2.29,19.1449,1073,5,
10079.7,2.80365,14.0564,2.29,19.1449,1073,5,
10079.7,2.80823,14.0579,2.29,19.1449,1073,5,
10079.7,2.81311,14.0564,2.29,19.1449,1073,5,
10079.7,2.81921,14.0549,2.29,19.1449,1073,5,
10079.7,2.82349,14.0564,2.29,19.1449,1073,5,
10079.7,2.8299,14.0533,2.29,19.1449,1073,5,
10079.7,2.83691,14.0594,2.29,19.1449,1073,5,
10079.7,2.84241,14.0579,2.29,19.1449,1073,5,
10079.7,2.84607,14.0564,2.29,19.1449,1073,5,
10079.7,2.85217,14.0564,2.29,19.1449,1073,5,
10079.7,2.85675,14.0579,2.29,19.1449,1073,5,
10079.7,2.86224,14.0564,2.29,19.1449,1073,5,
10079.7,2.86835,14.0518,2.29,19.1449,1073,5,
10079.7,2.87292,14.0594,2.29,19.1449,1073,5,
10079.7,2.88147,14.0549,2.29,19.1449,1073,5,
10079.7,2.88574,14.0533,2.29,19.1449,1073,5,
10079.7,2.89124,14.0594,2.29,19.1449,1073,5,
10079.7,2.89581,14.0549,2.29,19.1449,1073,5,
10079.7,2.9007,14.0549,2.29,19.1449,1073,5,
10079.7,2.90741,14.0549,2.29,19.1449,1073,5,
10079.7,2.9126,14.0549,2.29,19.1449,1073,5,
10079.7,2.92023,14.0579,2.29,19.1449,1073,5,
10079.7,2.9248,14.0564,2.29,19.1449,1073,5,
10079.7,2.93121,14.0579,2.29,19.1449,1073,5,
10079.7,2.93579,14.0549,2.29,19.1449,1073,5,
10079.7,2.94189,14.0579,2.29,19.1449,1073,5,
10079.7,2.94678,14.0549,2.29,19.1449,1073,5,
10079.7,2.95441,14.0549,2.29,19.1449,1073,5,
10079.7,2.95959,14.0564,2.29,19.1449,1073,5,
10079.7,2.96509,14.0564,2.29,19.1449,1073,5,
10079.7,2.97119,14.0564,2.29,19.1449,1073,5,
10079.7,2.97638,14.0549,2.29,19.1449,1073,5,
10079.7,2.9837,14.0579,2.29,19.1449,1073,5,
10079.7,2.98981,14.0549,2.29,19.1449,1073,5,
10079.7,2.99469,14.0549,2.29,19.1449,1073,5,
10079.7,3.00079,14.0594,2.29,19.1449,1073,5,
10079.7,3.00568,14.0549,2.29,19.1449,1073,5,
10079.7,3.013,14.0549,2.29,19.1449,1073,5,
10079.7,3.01819,14.0549,2.29,19.1449,1073,5,
10079.7,3.02338,14.0549,2.29,19.1449,1073,5,
10079.7,3.02917,14.0564,2.29,19.1449,1073,5,
10079.7,3.03741,14.0579,2.29,19.1449,1073,5,
10079.7,3.0426,14.0549,2.29,19.1449,1073,5,
10079.7,3.04779,14.0579,2.29,19.1449,1073,5,
10079.7,3.05328,14.0518,2.29,19.1449,1073,5,
10079.7,3.05939,14.0549,2.29,19.1449,1073,5,
10079.8,3.06671,14.0579,2.29,19.1449,1073,5,
10079.8,3.07312,14.0533,2.29,19.1449,1073,5,
10079.8,3.078,14.0579,2.29,19.1449,1073,5,
10079.8,3.08411,14.0549,2.29,19.1449,1073,5,
10079.8,3.08899,14.0549,2.29,19.1449,1073,5,
10079.8,3.09601,14.0549,2.29,19.1449,1073,5,
10079.8,3.10181,14.0579,2.29,19.1449,1073,5,
10079.8,3.10669,14.0564,2.29,19.1449,1073,5,
10079.8,3.1131,14.0549,2.29,19.1449,1073,5,
10079.8,3.12042,14.0549,2.29,19.1449,1073,5,
10079.8,3.12561,14.0579,2.29,19.1449,1073,5,
10079.8,3.13141,14.0564,2.29,19.1449,1073,5,
10079.8,3.13843,14.0579,2.29,19.1449,1073,5,
10079.8,3.14331,14.0564,2.29,19.1449,1073,5,
10079.8,3.15063,14.0579,2.29,19.1449,1073,5,
10079.8,3.15643,14.0549,2.29,19.1449,1073,5,
10079.8,3.1604,14.0564,2.29,19.1449,1073,5,
10079.8,3.16681,14.0518,2.29,19.1449,1073,5,
10079.8,3.17261,14.0503,2.29,19.1449,1073,5,
10079.8,3.17902,14.0579,2.29,19.1449,1073,5,
10079.8,3.18512,14.0503,2.29,19.1449,1073,5,
10079.8,3.19061,14.0427,2.29,19.1449,1073,5,
10079.8,3.1958,14.0442,2.29,19.1449,1073,5,
10079.8,3.2016,14.0427,2.29,19.1449,1073,5,
10079.8,3.20892,14.0411,2.29,19.1449,1073,5,
10079.8,3.2135,14.0442,2.29,19.1449,1073,5,
10079.8,3.21899,14.0442,2.29,19.1449,1073,5,
10079.8,3.22418,14.0427,2.29,19.1449,1073,5,
10079.8,3.22937,14.0442,2.29,19.1449,1073,5,
10079.8,3.23547,14.0427,2.29,19.1449,1073,5,
10079.8,3.24402,14.0457,2.29,19.1449,1073,5,
10079.8,3.2486,14.0427,2.29,19.1449,1073,5,
10079.8,3.25439,14.0427,2.29,19.1449,1073,5,
10079.8,3.25958,14.0396,2.29,19.1449,1073,5,
10079.8,3.26416,14.0411,2.29,19.1449,1073,5,
10079.8,3.26996,14.0442,2.29,19.1449,1073,5,
10079.8,3.27484,14.0427,2.29,19.1449,1073,5,
10079.8,3.28278,14.0457,2.29,19.1449,1073,5,
10079.8,3.28796,14.0427,2.29,19.1449,1073,5,
10079.8,3.29193,14.0442,2.29,19.1449,1073,5,
10079.8,3.29742,14.0472,2.29,19.1449,1073,5,
10079.8,3.30322,14.0411,2.29,19.1449,1073,5,
10079.8,3.3075,14.0427,2.29,19.1449,1073,5,
10079.8,3.31268,14.0427,2.29,19.1449,1073,5,
10079.8,3.31909,14.0427,2.29,19.1449,1073,5,
10079.8,3.32367,14.0427,2.29,19.1449,1073,5,
10079.8,3.32886,14.0442,2.29,19.1449,1073,5,
10079.8,3.33588,14.0411,2.29,19.1449,1073,5,
10079.8,3.34137,14.0427,2.29,19.1449,1073,5,
10079.8,3.34595,14.0411,2.29,19.1449,1073,5,
10079.9,3.35236,14.0442,2.29,19.1449,1073,5,
10079.9,3.35815,14.0427,2.29,19.1449,1073,5,
10079.9,3.3609,14.0427,2.29,19.1449,1073,5,
10079.9,3.36639,14.0442,2.29,19.1449,1073,5,
10079.9,3.37158,14.0427,2.29,19.1449,1073,5,
10079.9,3.37646,14.0442,2.29,19.1449,1073,5,
10079.9,3.38165,14.0442,2.29,19.1449,1073,5,
10079.9,3.38715,14.0396,2.29,19.1449,1073,5,
10079.9,3.39172,14.0411,2.29,19.1449,1073,5,
10079.9,3.396,14.0427,2.29,19.1449,1073,5,
10079.9,3.40088,14.0457,2.29,19.1449,1073,5,
10079.9,3.40637,14.0396,2.29,19.1449,1073,5,
10079.9,3.41156,14.0427,2.29,19.1449,1073,5,
10079.9,3.41583,14.0411,2.29,19.1449,1073,5,
10079.9,3.42163,14.0442,2.29,19.1449,1073,5,
10079.9,3.4256,14.0427,2.29,19.1449,1073,5,
10079.9,3.43109,14.0442,2.29,19.1449,1073,5,
10079.9,3.43536,14.0472,2.29,19.1449,1073,5,
10079.9,3.44116,14.0427,2.29,19.1449,1073,5,
10079.9,3.44543,14.0411,2.29,19.1449,1073,5,
10079.9,3.45001,14.0442,2.29,19.1449,1073,5,
10079.9,3.45459,14.0457,2.29,19.1449,1073,5,
10079.9,3.45917,14.0442,2.29,19.1449,1073,5,
10079.9,3.46436,14.0427,2.29,19.1449,1073,5,
10079.9,3.46954,14.0411,2.29,19.1449,1073,5,
10079.9,3.47443,14.0427,2.29,19.1449,1073,5,
10079.9,3.47839,14.0457,2.29,19.1449,1073,5,
10079.9,3.48358,14.0411,2.29,19.1449,1073,5,
10079.9,3.48511,14.0427,2.29,19.1449,1073,5,
10079.9,3.49121,14.0427,2.29,19.1449,1073,5,
10079.9,3.49548,14.0427,2.29,19.1449,1073,5,
10079.9,3.49915,14.0442,2.29,19.1449,1073,5,
10079.9,3.50433,14.0411,2.29,19.1449,1073,5,
10079.9,3.50983,14.0442,2.29,19.1449,1073,5,
10079.9,3.51379,14.0442,2.29,19.1449,1073,5,
10079.9,3.51746,14.0442,2.29,19.1449,1073,5,
10079.9,3.52234,14.0427,2.29,19.1449,1073,5,
10079.9,3.52509,14.0442,2.29,19.1449,1073,5,
10079.9,3.52844,14.0427,2.29,19.1449,1073,5,
10079.9,3.53302,14.0427,2.29,19.1449,1073,5,
10079.9,3.53821,14.0442,2.29,19.1449,1073,5,
10079.9,3.54279,14.0427,2.29,19.1449,1073,5,
10079.9,3.54706,14.0457,2.29,19.1449,1073,5,
10079.9,3.54889,14.0427,2.29,19.1449,1073,5,
10079.9,3.55255,14.0427,2.29,19.1449,1073,5,
10079.9,3.55804,14.0457,2.29,19.1449,1073,5,
10079.9,3.56201,14.0427,2.29,19.1449,1073,5,
10079.9,3.56659,14.0381,2.29,19.1449,1073,5,
10079.9,3.56964,14.0305,2.29,19.1449,1073,5,
10079.9,3.57269,14.032,2.29,19.1449,1073,5,
10080,3.57727,14.032,2.29,19.1449,1073,5,
10080,3.58124,14.0305,2.29,19.1449,1073,5,
10080,3.58368,14.0305,2.29,19.1449,1073,5,
10080,3.58765,14.0305,2.29,19.1449,1073,5,
10080,3.59192,14.0335,2.29,19.1449,1073,5,
10080,3.59589,14.0335,2.29,19.1449,1073,5,
10080,3.59711,14.0305,2.29,19.1449,1073,5,
10080,3.60168,14.0305,2.29,19.1449,1073,5,
10080,3.60626,14.0289,2.29,19.1449,1073,5,
10080,3.60809,14.0305,2.29,19.1449,1073,5,
10080,3.61176,14.032,2.29,19.1449,1073,5,
10080,3.61664,14.0289,2.29,19.1449,1073,5,
10080,3.61816,14.032,2.29,19.1449,1073,5,
10080,3.62183,14.032,2.29,19.1449,1073,5,
10080,3.6261,14.032,2.29,19.1449,1073,5,
10080,3.6264,14.0335,2.29,19.1449,1073,5,
10080,3.63098,14.0335,2.29,19.1449,1073,5,
10080,3.63495,14.0305,2.29,19.1449,1073,5,
10080,3.63617,14.032,2.29,19.1449,1073,5,
10080,3.64075,14.0305,2.29,19.1449,1073,5,
10080,3.64258,14.032,2.29,19.1449,1073,5,
10080,3.64563,14.032,2.29,19.1449,1073,5,
10080,3.6499,14.032,2.29,19.1449,1073,5,
10080,3.65112,14.0305,2.29,19.1449,1073,5,
10080,3.65601,14.032,2.29,19.1449,1073,5,
10080,3.6554,14.032,2.29,19.1449,1073,5,
10080,3.66089,14.0305,2.29,19.1449,1073,5,
10080,3.66211,14.0305,2.29,19.1449,1073,5,
10080,3.66547,14.0335,2.29,19.1449,1073,5,
10080,3.66974,14.0335,2.29,19.1449,1073,5,
10080,3.67065,14.0305,2.29,19.1449,1073,5,
10080,3.67432,14.032,2.29,19.1449,1073,5,
10080,3.67523,14.0305,2.29,19.1449,1073,5,
10080,3.68073,14.0289,2.29,19.1449,1073,5,
10080,3.68011,14.0335,2.29,19.1449,1073,5,
10080,3.6853,14.032,2.29,19.1449,1073,5,
10080,3.6853,14.0335,2.29,19.1449,1073,5,
10080,3.68958,14.032,2.29,19.1449,1073,5,
10080,3.69049,14.0305,2.29,19.1449,1073,5,
10080,3.69415,14.0305,2.29,19.1449,1073,5,
10080,3.69476,14.0289,2.29,19.1449,1073,5,
10080,3.69873,14.0289,2.29,19.1449,1073,5,
10080,3.69995,14.032,2.29,19.1449,1073,5,
10080,3.70239,14.032,2.29,19.1449,1073,5,
10080,3.70575,14.0305,2.29,19.1449,1073,5,
10080,3.70514,14.0335,2.29,19.1449,1073,5,
10080,3.70972,14.0274,2.29,19.1449,1073,5,
10080,3.70941,14.032,2.29,19.1449,1073,5,
10080,3.71368,14.032,2.29,19.1449,1073,5,
10080,3.7149,14.032,2.29,19.1449,1073,5,
10080,3.7146,14.0289,2.29,19.1449,1073,5,
10080.1,3.71948,14.032,2.29,19.1449,1073,5,
10080.1,3.71948,14.032,2.29,19.1449,1073,5,
10080.1,3.72345,14.0305,2.29,19.1449,1073,5,
10080.1,3.72437,14.0335,2.29,19.1449,1073,5,
10080.1,3.72559,14.0305,2.29,19.1449,1073,5,
10080.1,3.72894,14.0335,2.29,19.1449,1073,5,
10080.1,3.72955,14.032,2.29,19.1449,1073,5,
10080.1,3.72955,14.032,2.29,19.1449,1073,5,
10080.1,3.73444,14.0305,2.29,19.1449,1073,5,
10080.1,3.73474,14.0289,2.29,19.1449,1073,5,
10080.1,3.73474,14.0289,2.29,19.1449,1073,5,
10080.1,3.73932,14.0305,2.29,19.1449,1073,5,
10080.1,3.73871,14.0289,2.29,19.1449,1073,5,
10080.1,3.73901,14.0335,2.29,19.1449,1073,5,
10080.1,3.74329,14.0305,2.29,19.1449,1073,5,
10080.1,3.7439,14.0289,2.29,19.1449,1073,5,
10080.1,3.7442,14.032,2.29,19.1449,1073,5,
10080.1,3.74451,14.0335,2.29,19.1449,1073,5,
10080.1,3.74939,14.0213,2.29,19.1449,1073,5,
10080.1,3.74878,14.0198,2.29,19.1449,1073,5,
10080.1,3.74908,14.0183,2.29,19.1449,1073,5,
10080.1,3.75061,14.0183,2.29,19.1449,1073,5,
10080.1,3.75366,14.0183,2.29,19.1449,1073,5,
10080.1,3.75366,14.0183,2.29,19.1449,1073,5,
10080.1,3.75427,14.0167,2.29,19.1449,1073,5,
10080.1,3.75397,14.0213,2.29,19.1449,1073,5,
10080.1,3.75824,14.0137,2.29,19.1449,1073,5,
10080.1,3.75824,14.0167,2.29,19.1449,1073,5,
10080.1,3.75854,14.0167,2.29,19.1449,1073,5,
10080.1,3.75885,14.0167,2.29,19.1449,1073,5,
10080.1,3.76251,14.0167,2.29,19.1449,1073,5,
10080.1,3.76404,14.0183,2.29,19.1449,1073,5,
10080.1,3.76343,14.0152,2.29,19.1449,1073,5,
10080.1,3.76373,14.0183,2.29,19.1449,1073,5,
10080.1,3.76312,14.0198,2.29,19.1449,1073,5,
10080.1,3.76434,14.0167,2.29,19.1449,1073,5,
10080.1,3.76831,14.0183,2.29,19.1449,1073,5,
10080.1,3.7674,14.0152,2.29,19.1449,1073,5,
10080.1,3.76862,14.0198,2.29,19.1449,1073,5,
10080.1,3.76831,14.0167,2.29,19.1449,1073,5,
10080.1,3.76862,14.0213,2.29,19.1449,1073,5,
10080.1,3.76831,14.0198,2.29,19.1449,1073,5,
10080.1,3.77319,14.0167,2.29,19.1449,1073,5,
10080.1,3.7738,14.0183,2.29,19.1449,1073,5,
10080.1,3.7735,14.0183,2.29,19.1449,1073,5,
10080.1,3.77289,14.0198,2.29,19.1449,1073,5,
10080.1,3.7738,14.0183,2.29,19.1449,1073,5,
10080.1,3.77319,14.0183,2.29,19.1449,1073,5,
10080.1,3.77319,14.0183,2.29,19.1449,1073,5,
10080.1,3.77716,14.0167,2.29,19.1449,1073,5,
10080.2,3.77808,14.0183,2.29,19.1449,1073,5,
10080.2,3.77808,14.0198,2.29,19.1449,1073,5,
10080.2,3.77838,14.0183,2.29,19.1449,1073,5,
10080.2,3.77777,14.0198,2.29,19.1449,1073,5,
10080.2,3.77808,14.0167,2.29,19.1449,1073,5,
10080.2,3.77777,14.0183,2.29,19.1449,1073,5,
10080.2,3.77869,14.0183,2.29,19.1449,1073,5,
10080.2,3.77838,14.0167,2.29,19.1449,1073,5,
10080.2,3.77716,14.0198,2.29,19.1449,1073,5,
10080.2,3.78021,14.0213,2.29,19.1449,1073,5,
10080.2,3.78235,14.0167,2.29,19.1449,1073,5,
10080.2,3.78296,14.0213,2.29,19.1449,1073,5,
10080.2,3.78265,14.0183,2.29,19.1449,1073,5,
10080.2,3.78296,14.0213,2.29,19.1449,1073,5,
10080.2,3.78265,14.0045,2.29,19.1449,1073,5,
10080.2,3.78326,14.0045,2.29,19.1449,1073,5,
10080.2,3.78326,14.0045,2.29,19.1449,1073,5,
10080.2,3.78357,14.006,2.29,19.1449,1073,5,
10080.2,3.78326,14.006,2.29,19.1449,1073,5,
10080.2,3.78326,14.0091,2.29,19.1449,1073,5,
10080.2,3.78357,14.0045,2.29,19.1449,1073,5,
10080.2,3.78265,14.006,2.29,19.1449,1073,5,
10080.2,3.78357,14.0045,2.29,19.1449,1073,5,
10080.2,3.78326,14.006,2.29,19.1449,1073,5,
10080.2,3.78326,14.0091,2.29,19.1449,1073,5,
10080.2,3.78265,14.0076,2.29,19.1449,1073,5,
10080.2,3.78326,14.0076,2.29,19.1449,1073,5,
10080.2,3.78723,14.0045,2.29,19.1449,1073,5,
10080.2,3.78784,14.006,2.29,19.1449,1073,5,
10080.2,3.78754,14.006,2.29,19.1449,1073,5,
10080.2,3.78784,14.0076,2.29,19.1449,1073,5,
10080.2,3.78815,14.0076,2.29,19.1449,1073,5,
10080.2,3.78845,14.0045,2.29,19.1449,1073,5,
10080.2,3.78876,14.0091,2.29,19.1449,1073,5,
10080.2,3.78815,14.0045,2.29,19.1449,1073,5,
10080.2,3.78815,14.006,2.29,19.1449,1073,5,
10080.2,3.78845,14.0076,2.29,19.1449,1073,5,
10080.2,3.78906,14.0076,2.29,19.1449,1073,5,
10080.2,3.78845,14.0076,2.29,19.1449,1073,5,
10080.2,3.78784,14.0091,2.29,19.1449,1073,5,
10080.2,3.78815,14.0091,2.29,19.1449,1073,5,
10080.2,3.78815,14.0091,2.29,19.1449,1073,5,
10080.2,3.78845,14.006,2.29,19.1449,1073,5,
10080.2,3.78784,14.0091,2.29,19.1449,1073,5,
10080.2,3.78845,14.0091,2.29,19.1449,1073,5,
10080.2,3.78815,14.006,2.29,19.1449,1073,5,
10080.2,3.78784,14.006,2.29,19.1449,1073,5,
10080.2,3.78845,14.0076,2.29,19.1449,1073,5,
10080.2,3.78876,14.0076,2.29,19.1449,1073,5,
10080.2,3.78815,14.0091,2.29,19.1449,1073,5,
10080.3,3.78784,14.0045,2.29,19.1449,1073,5,
10080.3,3.78754,14.0091,2.29,19.1449,1073,5,
10080.3,3.78815,14.0106,2.29,19.1449,1073,5,
10080.3,3.78815,14.0076,2.29,19.1449,1073,5,
10080.3,3.78815,14.0091,2.29,19.1449,1073,5,
10080.3,3.78845,14.0076,2.29,19.1449,1073,5,
10080.3,3.78754,14.006,2.29,19.1449,1073,5,
10080.3,3.78845,14.0076,2.29,19.1449,1073,5,
10080.3,3.78845,14.0076,2.29,19.1449,1073,5,
10080.3,3.78845,14.006,2.29,19.1449,1073,5,
10080.3,3.78876,14.0076,2.29,19.1449,1073,5,
10080.3,3.78784,14.0091,2.29,19.1449,1073,5,
10080.3,3.78815,14.006,2.29,19.1449,1073,5,
10080.3,3.78845,14.006,2.29,19.1449,1073,5,
10080.3,3.78784,14.006,2.29,19.1449,1073,5,
10080.3,3.78845,14.0091,2.29,19.1449,1073,5,
10080.3,3.78845,14.0076,2.29,19.1449,1073,5,
10080.3,3.78784,13.9954,2.29,19.1449,1073,5,
10080.3,3.78357,13.9954,1.322,19.1449,1073,5,
10080.3,3.78387,13.9969,1.322,19.1449,1073,5,
10080.3,3.78296,13.9954,1.322,19.1449,1073,5,
10080.3,3.78326,13.9954,1.322,19.1449,1073,5,
10080.3,3.78296,13.9969,1.322,19.1449,1073,5,
10080.3,3.78296,13.9938,1.322,19.1449,1073,5,
10080.3,3.78357,13.9984,1.322,19.1449,1073,5,
10080.3,3.78387,13.9938,1.322,19.1449,1073,5,
10080.3,3.78326,13.9923,1.322,19.1449,1073,5,
10080.3,3.78265,13.9908,1.322,19.1449,1073,5,
10080.3,3.78357,13.9938,1.322,19.1449,1073,5,
10080.3,3.78326,13.9954,1.322,19.1449,1073,5,
10080.3,3.78326,13.9954,1.322,19.1449,1073,5,
10080.3,3.78326,13.9999,1.322,19.1449,1073,5,
10080.3,3.78326,13.9954,1.322,19.1449,1073,5,
10080.3,3.78296,13.9923,1.322,19.1449,1073,5,
10080.3,3.78296,13.9938,1.322,19.1449,1073,5,
10080.3,3.78326,13.9969,1.322,19.1449,1073,5,
10080.3,3.78326,13.9954,1.322,19.1449,1073,5,
10080.3,3.78296,13.9969,1.322,19.1449,1073,5,
10080.3,3.78357,13.9923,1.322,19.1449,1073,5,
10080.3,3.78387,13.9984,1.322,19.1449,1073,5,
10080.3,3.78326,13.9938,1.322,19.1449,1073,5,
10080.3,3.78357,13.9969,1.322,19.1449,1073,5,
10080.3,3.78204,13.9954,1.322,19.1449,1073,5,
10080.3,3.77838,13.9923,1.322,19.1449,1073,5,
10080.3,3.77777,13.9969,1.322,19.1449,1073,5,
10080.3,3.77869,13.9938,1.322,19.1449,1073,5,
10080.3,3.77808,13.9938,1.322,19.1449,1073,5,
10080.3,3.77808,13.9893,1.322,19.1449,1073,5,
10080.3,3.77838,13.9969,1.322,19.1449,1073,5,
10080.4,3.77777,13.9923,1.322,19.1449,1073,5,
10080.4,3.77808,13.9954,1.322,19.1449,1073,5,
10080.4,3.77808,13.9923,1.322,19.1449,1073,5,
10080.4,3.77777,13.9938,1.322,19.1449,1073,5,
10080.4,3.77808,13.9954,1.322,19.1449,1073,5,
10080.4,3.77838,13.9938,1.322,19.1449,1073,5,
10080.4,3.77869,13.9954,1.322,19.1449,1073,5,
10080.4,3.77869,13.9954,1.322,19.1449,1073,5,
10080.4,3.77869,13.9923,1.322,19.1449,1073,5,
10080.4,3.77838,13.9938,1.322,19.1449,1073,5,
10080.4,3.77808,13.9938,1.322,19.1449,1073,5,
10080.4,3.77808,13.9923,1.322,19.1449,1073,5,
10080.4,3.77838,13.9969,1.322,19.1449,1073,5,
10080.4,3.77411,13.9923,1.322,19.1449,1073,5,
10080.4,3.77319,13.9938,1.322,19.1449,1073,5,
10080.4,3.77319,13.9954,1.322,19.1449,1073,5,
10080.4,3.77319,13.9954,1.322,19.1449,1073,5,
10080.4,3.77319,13.9954,1.322,19.1449,1073,5,
10080.4,3.77319,13.9969,1.322,19.1449,1073,5,
10080.4,3.77289,13.9954,1.322,19.1449,1073,5,
10080.4,3.77319,13.9938,1.322,19.1449,1073,5,
10080.4,3.7735,13.9954,1.322,19.1449,1073,5,
10080.4,3.77319,13.9938,1.322,19.1449,1073,5,
10080.4,3.77319,13.9923,1.322,19.1449,1073,5,
10080.4,3.77319,13.9969,1.322,19.1449,1073,5,
10080.4,3.77258,13.9969,1.322,19.1449,1073,5,
10080.4,3.77258,13.9984,1.322,19.1449,1073,5,
10080.4,3.77319,13.9938,1.322,19.1449,1073,5,
10080.4,3.77411,13.9938,1.322,19.1449,1073,5,
10080.4,3.7735,13.9923,1.322,19.1449,1073,5,
10080.4,3.7738,13.9938,1.322,19.1449,1073,5,
10080.4,3.77319,13.9938,1.322,19.1449,1073,5,
10080.4,3.76923,13.9969,1.322,19.1449,1073,5,
10080.4,3.76923,13.9954,1.322,19.1449,1073,5,
10080.4,3.76953,13.9954,1.322,19.1449,1073,5,
10080.4,3.76801,13.9938,1.322,19.1449,1073,5,
10080.4,3.76892,13.9938,1.322,19.1449,1073,5,
10080.4,3.76831,13.9938,1.322,19.1449,1073,5,
10080.4,3.76892,13.9938,1.322,19.1449,1073,5,
10080.4,3.76892,13.9938,1.322,19.1449,1073,5,
10080.4,3.76801,13.9954,1.322,19.1449,1073,5,
10080.4,3.76801,13.9969,1.322,19.1449,1073,5,
10080.4,3.76831,13.9954,1.322,19.1449,1073,5,
10080.4,3.76801,13.9908,1.322,19.1449,1073,5,
10080.4,3.76801,13.9954,1.322,19.1449,1073,5,
10080.4,3.76831,13.9984,1.322,19.1449,1073,5,
10080.4,3.76801,13.9954,1.322,19.1449,1073,5,
10080.4,3.76831,13.9938,1.322,19.1449,1073,5,
10080.4,3.76801,13.9954,1.322,19.1449,1073,5,
10080.4,3.76923,13.9984,1.322,19.1449,1073,5,
10080.5,3.76862,13.9954,1.322,19.1449,1073,5,
10080.5,3.76862,13.9969,1.322,19.1449,1073,5,
10080.5,3.76801,13.9938,1.322,19.1449,1073,5,
10080.5,3.76953,13.9969,1.322,19.1449,1073,5,
10080.5,3.76862,13.9938,1.322,19.1449,1073,5,
10080.5,3.76678,13.9954,1.322,19.1449,1073,5,
10080.5,3.76404,13.9938,1.322,19.1449,1073,5,
10080.5,3.76312,13.9938,1.322,19.1449,1073,5,
10080.5,3.76373,13.9954,1.322,19.1449,1073,5,
10080.5,3.76404,13.9938,1.322,19.1449,1073,5,
10080.5,3.76343,13.9923,1.322,19.1449,1073,5,
10080.5,3.76404,13.9954,1.322,19.1449,1073,5,
10080.5,3.76343,13.9938,1.322,19.1449,1073,5,
10080.5,3.76343,13.9954,1.322,19.1449,1073,5,
10080.5,3.76373,13.9954,1.322,19.1449,1073,5,
10080.5,3.76312,13.9954,1.322,19.1449,1073,5,
10080.5,3.76373,13.9969,1.322,19.1449,1073,5,
10080.5,3.76312,13.9923,1.322,19.1449,1073,5,
10080.5,3.76343,13.9938,1.322,19.1449,1073,5,
10080.5,3.76343,13.9938,1.322,19.1449,1073,5,
10080.5,3.76343,13.9969,1.322,19.1449,1073,5,
10080.5,3.76373,13.9969,1.322,19.1449,1073,5,
10080.5,3.76343,13.9969,1.322,19.1449,1073,5,
10080.5,3.76312,13.9908,1.322,19.1449,1073,5,
10080.5,3.76312,13.9969,1.322,19.1449,1073,5,
10080.5,3.76343,13.9969,1.322,19.1449,1073,5,
10080.5,3.76404,13.9954,1.322,19.1449,1073,5,
10080.5,3.76343,13.9999,1.322,19.1449,1073,5,
10080.5,3.76312,13.9954,1.322,19.1449,1073,5,
10080.5,3.76373,13.9969,1.322,19.1449,1073,5,
10080.5,3.76312,13.9969,1.322,19.1449,1073,5,
10080.5,3.76343,13.9938,1.322,19.1449,1073,5,
10080.5,3.76373,13.9923,1.322,19.1449,1073,5,
10080.5,3.76404,13.9969,1.322,19.1449,1073,5,
10080.5,3.76343,13.9954,1.322,19.1449,1073,5,
10080.5,3.75916,13.9938,1.322,19.1449,1073,5,
10080.5,3.75885,13.9954,1.322,19.1449,1073,5,
10080.5,3.75824,13.9954,1.322,19.1449,1073,5,
10080.5,3.75763,13.9923,1.322,19.1449,1073,5,
10080.5,3.75854,13.9954,1.322,19.1449,1073,5,
10080.5,3.75885,13.9923,1.322,19.1449,1073,5,
10080.5,3.75854,13.9938,1.322,19.1449,1073,5,
10080.5,3.75885,13.9954,1.322,19.1449,1073,5,
10080.5,3.75916,13.9908,1.322,19.1449,1073,5,
10080.5,3.75916,13.9908,1.322,19.1449,1073,5,
10080.5,3.75885,13.9969,1.322,19.1449,1073,5,
10080.5,3.75854,13.9954,1.322,19.1449,1073,5,
10080.5,3.75885,13.9908,1.322,19.1449,1073,5,
10080.5,3.75946,13.9938,1.322,19.1449,1073,5,
10080.5,3.75854,13.9923,1.322,19.1449,1073,5,
10080.5,3.75885,13.9923,1.322,19.1449,1073,5,
10080.6,3.75916,13.9938,1.322,19.1449,1073,5,
10080.6,3.75977,13.9954,1.322,19.1449,1073,5,
10080.6,3.75885,13.9954,1.322,19.1449,1073,5,
10080.6,3.75854,13.9954,1.322,19.1449,1073,5,
10080.6,3.75854,13.9969,1.322,19.1449,1073,5,
10080.6,3.75885,13.9923,1.322,19.1449,1073,5,
10080.6,3.75885,13.9954,1.322,19.1449,1073,5,
10080.6,3.75885,13.9938,1.322,19.1449,1073,5,
10080.6,3.75916,13.9923,1.322,19.1449,1073,5,
10080.6,3.75885,13.9954,1.322,19.1449,1073,5,
10080.6,3.75854,13.9954,1.322,19.1449,1073,5,
10080.6,3.75885,13.9954,1.322,19.1449,1073,5,
10080.6,3.75885,13.9954,1.322,19.1449,1073,5,
10080.6,3.75824,13.9923,1.322,19.1449,1073,5,
10080.6,3.75946,13.9969,1.322,19.1449,1073,5,
10080.6,3.75793,13.9938,1.322,19.1449,1073,5,
10080.6,3.75305,13.9954,1.322,19.1449,1073,5,
10080.6,3.75488,13.9954,1.322,19.1449,1073,5,
10080.6,3.75427,13.9954,1.322,19.1449,1073,5,
10080.6,3.75397,13.9832,1.322,19.1449,1073,5,
10080.6,3.75427,13.9832,1.322,19.1449,1073,5,
10080.6,3.75336,13.9771,1.322,19.1449,1073,5,
10080.6,3.75427,13.9832,1.322,19.1449,1073,5,
10080.6,3.75458,13.9832,1.322,19.1449,1073,5,
10080.6,3.75336,13.9832,1.322,19.1449,1073,5,
10080.6,3.75397,13.9832,1.322,19.1449,1073,5,
10080.6,3.75397,13.9816,1.322,19.1449,1073,5,
10080.6,3.75366,13.9847,1.322,19.1449,1073,5,
10080.6,3.75397,13.9832,1.322,19.1449,1073,5,
10080.6,3.75397,13.9847,1.322,19.1449,1073,5,
10080.6,3.75336,13.9832,1.322,19.1449,1073,5,
10080.6,3.75366,13.9832,1.322,19.1449,1073,5,
10080.6,3.75397,13.9816,1.322,19.1449,1073,5,
10080.6,3.75397,13.9816,1.322,19.1449,1073,5,
10080.6,3.75427,13.9832,1.322,19.1449,1073,5,
10080.6,3.75397,13.9801,1.322,19.1449,1073,5,
10080.6,3.75366,13.9816,1.322,19.1449,1073,5,
10080.6,3.75427,13.9832,1.322,19.1449,1073,5,
10080.6,3.75366,13.9832,1.322,19.1449,1073,5,
10080.6,3.75366,13.9847,1.322,19.1449,1073,5,
10080.6,3.75397,13.9832,1.322,19.1449,1073,5,
10080.6,3.75397,13.9832,1.322,19.1449,1073,5,
10080.6,3.75397,13.9816,1.322,19.1449,1073,5,
10080.6,3.75336,13.9847,1.322,19.1449,1073,5,
10080.6,3.75427,13.9847,1.322,19.1449,1073,5,
10080.6,3.75397,13.9816,1.322,19.1449,1073,5,
10080.6,3.75397,13.9847,1.322,19.1449,1073,5,
10080.6,3.75336,13.9801,1.322,19.1449,1073,5,
10080.6,3.74878,13.9786,1.322,19.1449,1073,5,
10080.6,3.74908,13.9847,1.322,19.1449,1073,5,
10080.7,3.74908,13.9832,1.322,19.1449,1073,5,
10080.7,3.74908,13.9862,1.322,19.1449,1073,5,
10080.7,3.74908,13.9801,1.322,19.1449,1073,5,
10080.7,3.74878,13.9801,1.322,19.1449,1073,5,
10080.7,3.74939,13.9862,1.322,19.1449,1073,5,
10080.7,3.74878,13.9847,1.322,19.1449,1073,5,
10080.7,3.74878,13.9847,1.322,19.1449,1073,5,
10080.7,3.74908,13.9832,1.322,19.1449,1073,5,
10080.7,3.74878,13.9832,1.322,19.1449,1073,5,
10080.7,3.74908,13.9816,1.322,19.1449,1073,5,
10080.7,3.74847,13.9847,1.322,19.1449,1073,5,
10080.7,3.74817,13.9801,1.322,19.1449,1073,5,
10080.7,3.74878,13.9816,1.322,19.1449,1073,5,
10080.7,3.74908,13.9847,1.322,19.1449,1073,5,
10080.7,3.74908,13.9816,1.322,19.1449,1073,5,
10080.7,3.74908,13.9816,1.322,19.1449,1073,5,
10080.7,3.74908,13.9816,1.322,19.1449,1073,5,
10080.7,3.74847,13.9816,1.322,19.1449,1073,5,
10080.7,3.74878,13.9816,1.322,19.1449,1073,5,
10080.7,3.74878,13.9816,1.322,19.1449,1073,5,
10080.7,3.74908,13.9862,1.322,19.1449,1073,5,
10080.7,3.74908,13.9847,1.322,19.1449,1073,5,
10080.7,3.74878,13.9816,1.322,19.1449,1073,5,
10080.7,3.74908,13.9832,1.322,19.1449,1073,5,
10080.7,3.74878,13.9801,1.322,19.1449,1073,5,
10080.7,3.74908,13.9816,1.322,19.1449,1073,5,
10080.7,3.74878,13.9847,1.322,19.1449,1073,5,
10080.7,3.74908,13.9832,1.322,19.1449,1073,5,
10080.7,3.74939,13.9816,1.322,19.1449,1073,5,
10080.7,3.74878,13.9801,1.322,19.1449,1073,5,
10080.7,3.74908,13.9816,1.322,19.1449,1073,5,
10080.7,3.74878,13.9816,1.322,19.1449,1073,5,
10080.7,3.74939,13.9801,1.322,19.1449,1073,5,
10080.7,3.74908,13.9801,1.322,19.1449,1073,5,
10080.7,3.74908,13.9832,1.322,19.1449,1073,5,
10080.7,3.74878,13.9816,1.322,19.1449,1073,5,
10080.7,3.74847,13.9816,1.322,19.1449,1073,5,
10080.7,3.74908,13.9832,1.322,19.1449,1073,5,
10080.7,3.74908,13.9832,1.322,19.1449,1073,5,
10080.7,3.74908,13.9816,1.322,19.1449,1073,5,
10080.7,3.74847,13.9847,1.322,19.1449,1073,5,
10080.7,3.74847,13.9832,1.322,19.1449,1073,5,
10080.7,3.74817,13.9801,1.322,19.1449,1073,5,
10080.7,3.74939,13.9847,1.322,19.1449,1073,5,
10080.7,3.74908,13.9801,1.322,19.1449,1073,5,
10080.7,3.74939,13.9816,1.322,19.1449,1073,5,
10080.7,3.74908,13.9832,1.322,19.1449,1073,5,
10080.7,3.74908,13.9816,1.322,19.1449,1073,5,
10080.7,3.74939,13.9847,1.322,19.1449,1073,5,
10080.8,3.74878,13.9832,1.322,19.1449,1073,5,
10080.8,3.74878,13.9816,1.322,19.1449,1073,5,
10080.8,3.74878,13.9832,1.322,19.1449,1073,5,
10080.8,3.74817,13.9816,1.322,19.1449,1073,5,
10080.8,3.74908,13.9801,1.322,19.1449,1073,5,
10080.8,3.74878,13.9832,1.322,19.1449,1073,5,
10080.8,3.74908,13.9816,1.322,19.1449,1073,5,
10080.8,3.74878,13.9847,1.322,19.1449,1073,5,
10080.8,3.74847,13.9847,1.322,19.1449,1073,5,
10080.8,3.74878,13.9816,1.322,19.1449,1073,5,
10080.8,3.74908,13.9801,1.322,19.1449,1073,5,
10080.8,3.74847,13.9832,1.322,19.1449,1073,5,
10080.8,3.74878,13.9832,1.322,19.1449,1073,5,
10080.8,3.74878,13.9847,1.322,19.1449,1073,5,
10080.8,3.74878,13.9832,1.322,19.1449,1073,5,
10080.8,3.74817,13.9816,1.322,19.1449,1073,5,
10080.8,3.74908,13.9832,1.322,19.1449,1073,5,
10080.8,3.74908,13.9832,1.322,19.1449,1073,5,
10080.8,3.74939,13.9816,1.322,19.1449,1073,5,
10080.8,3.74878,13.9786,1.322,19.1449,1073,5,
10080.8,3.74969,13.9816,1.322,19.1449,1073,5,
10080.8,3.74878,13.9801,1.322,19.1449,1073,5,
10080.8,3.74939,13.9801,1.322,19.1449,1073,5,
10080.8,3.74817,13.9816,1.322,19.1449,1073,5,
10080.8,3.74939,13.9832,1.322,19.1449,1073,5,
10080.8,3.74847,13.9832,1.322,19.1449,1073,5,
10080.8,3.74847,13.9816,1.322,19.1449,1073,5,
10080.8,3.74908,13.9862,1.322,19.1449,1073,5,
10080.8,3.74847,13.9801,1.322,19.1449,1073,5,
10080.8,3.74878,13.9847,1.322,19.1449,1073,5,
10080.8,3.74908,13.9847,1.322,19.1449,1073,5,
10080.8,3.74939,13.9847,1.322,19.1449,1073,5,
10080.8,3.74939,13.9816,1.322,19.1449,1073,5,
10080.8,3.74908,13.9816,1.322,19.1449,1073,5,
10080.8,3.74878,13.9816,1.322,19.1449,1073,5,
10080.8,3.74969,13.9816,1.322,19.1449,1073,5,
10080.8,3.74908,13.9832,1.322,19.1449,1073,5,
10080.8,3.74939,13.9816,1.322,19.1449,1073,5,
10080.8,3.74939,13.9832,1.322,19.1449,1073,5,
10080.8,3.74878,13.9832,1.322,19.1449,1073,5,
10080.8,3.74908,13.9816,1.322,19.1449,1073,5,
10080.8,3.74878,13.9816,1.322,19.1449,1073,5,
10080.8,3.74878,13.9832,1.322,19.1449,1073,5,
10080.8,3.74908,13.9801,1.322,19.1449,1073,5,
10080.8,3.74847,13.9832,1.322,19.1449,1073,5,
10080.8,3.74939,13.9816,1.322,19.1449,1073,5,
10080.8,3.74969,13.9832,1.322,19.1449,1073,5,
10080.8,3.74878,13.9847,1.322,19.1449,1073,5,
10080.8,3.74908,13.9801,1.322,19.1449,1073,5,
10080.8,3.74908,13.9816,1.322,19.1449,1073,5,
10080.9,3.74878,13.9816,1.322,19.1449,1073,5,
10080.9,3.74908,13.9847,1.322,19.1449,1073,5,
10080.9,3.74847,13.9862,1.322,19.1449,1073,5,
10080.9,3.74908,13.9786,1.322,19.1449,1073,5,
10080.9,3.74939,13.9801,1.322,19.1449,1073,5,
10080.9,3.74908,13.9847,1.322,19.1449,1073,5,
10080.9,3.74878,13.9816,1.322,19.1449,1073,5,
10080.9,3.74908,13.9847,1.322,19.1449,1073,5,
10080.9,3.74908,13.9816,1.322,19.1449,1073,5,
10080.9,3.74908,13.9832,1.322,19.1449,1073,5,
10080.9,3.74878,13.9816,1.322,19.1449,1073,5,
10080.9,3.74908,13.9816,1.322,19.1449,1073,5,
10080.9,3.74847,13.9862,1.322,19.1449,1073,5,
10080.9,3.74878,13.9847,1.322,19.1449,1073,5,
10080.9,3.74908,13.9816,1.322,19.1449,1073,5,
10080.9,3.74908,13.9847,1.322,19.1449,1073,5,
10080.9,3.74908,13.9832,1.322,19.1449,1073,5,
10080.9,3.74817,13.9816,1.322,19.1449,1073,5,
10080.9,3.74878,13.9816,1.322,19.1449,1073,5,
10080.9,3.75,13.9847,1.322,19.1449,1073,5,
10080.9,3.74878,13.9832,1.322,19.1449,1073,5,
10080.9,3.74878,13.9832,1.322,19.1449,1073,5,
10080.9,3.74878,13.9847,1.322,19.1449,1073,5,
10080.9,3.74847,13.9847,1.322,19.1449,1073,5,
10080.9,3.74817,13.9801,1.322,19.1449,1073,5,
10080.9,3.74878,13.9816,1.322,19.1449,1073,5,
10080.9,3.74908,13.9816,1.322,19.1449,1073,5,
10080.9,3.74908,13.9847,1.322,19.1449,1073,5,
10080.9,3.74878,13.9847,1.322,19.1449,1073,5,
10080.9,3.74908,13.9832,1.322,19.1449,1073,5,
10080.9,3.74878,13.9862,1.322,19.1449,1073,5,
10080.9,3.74878,13.9816,1.322,19.1449,1073,5,
10080.9,3.74939,13.9832,1.322,19.1449,1073,5,
10080.9,3.75275,13.9816,1.322,19.1449,1073,5,
10080.9,3.75397,13.9816,1.322,19.1449,1073,5,
10080.9,3.75458,13.9832,1.322,19.1449,1073,5,
10080.9,3.75397,13.9801,1.322,19.1449,1073,5,
10080.9,3.75427,13.9862,1.322,19.1449,1073,5,
10080.9,3.75427,13.9847,1.322,19.1449,1073,5,
10080.9,3.75336,13.9801,1.322,19.1449,1073,5,
10080.9,3.75366,13.9847,1.322,19.1449,1073,5,
10080.9,3.75366,13.9816,1.322,19.1449,1073,5,
10080.9,3.75336,13.9847,1.322,19.1449,1073,5,
10080.9,3.75366,13.9832,1.322,19.1449,1073,5,
10080.9,3.75397,13.9847,1.322,19.1449,1073,5,
10080.9,3.75397,13.9832,1.322,19.1449,1073,5,
10080.9,3.75488,13.9832,1.322,19.1449,1073,5,
10080.9,3.75366,13.9816,1.322,19.1449,1073,5,
10080.9,3.75305,13.9801,1.322,19.1449,1073,5,
10080.9,3.75427,13.9862,1.322,19.1449,1073,5,
10081,3.75427,13.9832,1.322,19.1449,1073,5,
10081,3.75397,13.9847,1.322,19.1449,1073,5,
10081,3.75397,13.9847,1.322,19.1449,1073,5,
10081,3.75397,13.9832,1.322,19.1449,1073,5,
10081,3.75427,13.9847,1.322,19.1449,1073,5,
10081,3.75488,13.9816,1.322,19.1449,1073,5,
10081,3.75427,13.9816,1.322,19.1449,1073,5,
10081,3.75366,13.9847,1.322,19.1449,1073,5,
10081,3.75366,13.9816,1.322,19.1449,1073,5,
10081,3.75458,13.9816,1.322,19.1449,1073,5,
10081,3.75397,13.9832,1.322,19.1449,1073,5,
10081,3.75366,13.9816,1.322,19.1449,1073,5,
10081,3.75397,13.9847,1.322,19.1449,1073,5,
10081,3.75366,13.9847,1.322,19.1449,1073,5,
10081,3.75397,13.9816,1.322,19.1449,1073,5,
10081,3.75397,13.9832,1.322,19.1449,1073,5,
10081,3.75488,13.9832,1.322,19.1449,1073,5,
10081,3.75397,13.9832,1.322,19.1449,1073,5,
10081,3.75397,13.9847,1.322,19.1449,1073,5,
10081,3.75427,13.9816,1.322,19.1449,1073,5,
10081,3.75458,13.9832,1.322,19.1449,1073,5,
10081,3.75458,13.9832,1.322,19.1449,1073,5,
10081,3.75305,13.9832,1.322,19.1449,1073,5,
10081,3.75427,13.9832,1.322,19.1449,1073,5,
10081,3.75427,13.9801,1.322,19.1449,1073,5,
10081,3.75854,13.9832,1.322,19.1449,1073,5,
10081,3.75916,13.9832,1.322,19.1449,1073,5,
10081,3.75824,13.9832,1.322,19.1449,1073,5,
10081,3.75824,13.9801,1.322,19.1449,1073,5,
10081,3.75824,13.9816,1.322,19.1449,1073,5,
10081,3.75854,13.9801,1.322,19.1449,1073,5,
10081,3.75916,13.9816,1.322,19.1449,1073,5,
10081,3.75824,13.9832,1.322,19.1449,1073,5,
10081,3.75824,13.9847,1.322,19.1449,1073,5,
10081,3.75885,13.9847,1.322,19.1449,1073,5,
10081,3.75885,13.9816,1.322,19.1449,1073,5,
10081,3.75824,13.9801,1.322,19.1449,1073,5,
10081,3.75824,13.9847,1.322,19.1449,1073,5,
10081,3.75885,13.9816,1.322,19.1449,1073,5,
10081,3.75885,13.9847,1.322,19.1449,1073,5,
10081,3.75916,13.9847,1.322,19.1449,1073,5,
10081,3.75854,13.9832,1.322,19.1449,1073,5,
10081,3.75824,13.9847,1.322,19.1449,1073,5,
10081,3.75854,13.9786,1.322,19.1449,1073,5,
10081,3.75854,13.9832,1.322,19.1449,1073,5,
10081,3.75885,13.9786,1.322,19.1449,1073,5,
10081,3.75885,13.9832,1.322,19.1449,1073,5,
10081,3.75854,13.9832,1.322,19.1449,1073,5,
10081,3.75824,13.9847,1.322,19.1449,1073,5,
10081,3.75824,13.9847,1.322,19.1449,1073,5,
10081,3.75916,13.9832,1.322,19.1449,1073,5,
10081.1,3.75793,13.9832,1.322,19.1449,1073,5,
10081.1,3.75916,13.9862,1.322,19.1449,1073,5,
10081.1,3.75916,13.9816,1.322,19.1449,1073,5,
10081.1,3.75824,13.9801,1.322,19.1449,1073,5,
10081.1,3.76282,13.9832,1.322,19.1449,1073,5,
10081.1,3.76312,13.9847,1.322,19.1449,1073,5,
10081.1,3.76343,13.9847,1.322,19.1449,1073,5,
10081.1,3.76343,13.9801,1.322,19.1449,1073,5,
10081.1,3.76312,13.9801,1.322,19.1449,1073,5,
10081.1,3.76434,13.9847,1.322,19.1449,1073,5,
10081.1,3.76343,13.9771,1.322,19.1449,1073,5,
10081.1,3.76343,13.9832,1.322,19.1449,1073,5,
10081.1,3.76373,13.9801,1.322,19.1449,1073,5,
10081.1,3.76404,13.9847,1.322,19.1449,1073,5,
10081.1,3.76373,13.9816,1.322,19.1449,1073,5,
10081.1,3.76343,13.9862,1.322,19.1449,1073,5,
10081.1,3.76343,13.9832,1.322,19.1449,1073,5,
10081.1,3.76343,13.9847,1.322,19.1449,1073,5,
10081.1,3.76404,13.9816,1.322,19.1449,1073,5,
10081.1,3.76343,13.9832,1.322,19.1449,1073,5,
10081.1,3.76434,13.9847,1.322,19.1449,1073,5,
10081.1,3.76434,13.9801,1.322,19.1449,1073,5,
10081.1,3.76404,13.9847,1.322,19.1449,1073,5,
10081.1,3.76343,13.9832,1.322,19.1449,1073,5,
10081.1,3.76434,13.9832,1.322,19.1449,1073,5,
10081.1,3.76404,13.9801,1.322,19.1449,1073,5,
10081.1,3.76343,13.9816,1.322,19.1449,1073,5,
10081.1,3.76434,13.9954,1.322,19.1449,1073,5,
10081.1,3.76404,13.9923,1.322,19.1449,1073,5,
10081.1,3.76404,13.9908,1.322,19.1449,1073,5,
10081.1,3.76404,13.9923,1.322,19.1449,1073,5,
10081.1,3.76373,13.9954,1.322,19.1449,1073,5,
10081.1,3.76312,13.9923,1.322,19.1449,1073,5,
10081.1,3.76312,13.9908,1.322,19.1449,1073,5,
10081.1,3.76343,13.9923,1.322,19.1449,1073,5,
10081.1,3.76343,13.9954,1.322,19.1449,1073,5,
10081.1,3.76343,13.9938,1.322,19.1449,1073,5,
10081.1,3.76312,13.9954,1.322,19.1449,1073,5,
10081.1,3.76312,13.9923,1.322,19.1449,1073,5,
10081.1,3.76312,13.9969,1.322,19.1449,1073,5,
10081.1,3.76831,13.9923,1.322,19.1449,1073,5,
10081.1,3.76801,13.9938,1.322,19.1449,1073,5,
10081.1,3.76862,13.9938,1.322,19.1449,1073,5,
10081.1,3.76892,13.9984,1.322,19.1449,1073,5,
10081.1,3.76862,13.9969,1.322,19.1449,1073,5,
10081.1,3.76831,13.9969,1.322,19.1449,1073,5,
10081.1,3.76862,13.9969,1.322,19.1449,1073,5,
10081.1,3.76831,13.9923,1.322,19.1449,1073,5,
10081.1,3.76831,13.9969,1.322,19.1449,1073,5,
10081.1,3.76831,13.9954,1.322,19.1449,1073,5,
10081.2,3.76801,13.9938,1.322,19.1449,1073,5,
10081.2,3.76862,13.9923,1.322,19.1449,1073,5,
10081.2,3.76831,13.9908,1.322,19.1449,1073,5,
10081.2,3.76892,13.9969,1.322,19.1449,1073,5,
10081.2,3.76831,13.9969,1.322,19.1449,1073,5,
10081.2,3.76801,13.9954,1.322,19.1449,1073,5,
10081.2,3.76831,13.9938,1.322,19.1449,1073,5,
10081.2,3.7677,13.9969,1.322,19.1449,1073,5,
10081.2,3.76862,13.9984,1.322,19.1449,1073,5,
10081.2,3.76862,13.9938,1.322,19.1449,1073,5,
10081.2,3.7677,13.9984,1.322,19.1449,1073,5,
10081.2,3.76801,13.9984,1.322,19.1449,1073,5,
10081.2,3.76892,13.9954,1.322,19.1449,1073,5,
10081.2,3.76831,13.9954,1.322,19.1449,1073,5,
10081.2,3.76862,13.9938,1.322,19.1449,1073,5,
10081.2,3.76831,13.9954,1.322,19.1449,1073,5,
10081.2,3.76862,13.9954,1.322,19.1449,1073,5,
10081.2,3.76831,13.9954,1.322,19.1449,1073,5,
10081.2,3.76801,13.9938,1.322,19.1449,1073,5,
10081.2,3.76801,13.9938,1.322,19.1449,1073,5,
10081.2,3.76892,13.9954,1.322,19.1449,1073,5,
10081.2,3.76923,13.9923,1.322,19.1449,1073,5,
10081.2,3.76862,13.9954,1.322,19.1449,1073,5,
10081.2,3.76831,13.9954,1.322,19.1449,1073,5,
10081.2,3.76862,13.9938,1.322,19.1449,1073,5,
10081.2,3.76373,13.9969,1.322,19.1449,1073,5,
10081.2,3.76343,13.9938,1.322,19.1449,1073,5,
10081.2,3.76465,13.9954,1.322,19.1449,1073,5,
10081.2,3.76282,13.9969,1.322,19.1449,1073,5,
10081.2,3.76404,13.9938,1.322,19.1449,1073,5,
10081.2,3.76373,13.9954,1.322,19.1449,1073,5,
10081.2,3.76404,13.9999,1.322,19.1449,1073,5,
10081.2,3.76343,13.9954,1.322,19.1449,1073,5,
10081.2,3.76343,13.9969,1.322,19.1449,1073,5,
10081.2,3.76343,13.9938,1.322,19.1449,1073,5,
10081.2,3.76373,13.9938,1.322,19.1449,1073,5,
10081.2,3.76373,13.9893,1.322,19.1449,1073,5,
10081.2,3.76312,13.9923,1.322,19.1449,1073,5,
10081.2,3.76434,13.9954,1.322,19.1449,1073,5,
10081.2,3.76343,13.9969,1.322,19.1449,1073,5,
10081.2,3.76312,13.9984,1.322,19.1449,1073,5,
10081.2,3.76373,13.9954,1.322,19.1449,1073,5,
10081.2,3.76373,13.9938,1.322,19.1449,1073,5,
10081.2,3.76373,13.9954,1.322,19.1449,1073,5,
10081.2,3.76312,14.006,1.322,19.1449,1073,5,
10081.2,3.76373,14.0076,1.322,19.1449,1073,5,
10081.2,3.76373,14.0091,1.322,19.1449,1073,5,
10081.2,3.76465,14.0076,1.322,19.1449,1073,5,
10081.2,3.76404,14.0076,1.322,19.1449,1073,5,
10081.2,3.76434,14.0121,1.322,19.1449,1073,5,
10081.3,3.75824,14.0106,1.322,19.1449,1073,5,
10081.3,3.75916,14.0091,1.322,19.1449,1073,5,
10081.3,3.75885,14.003,1.322,19.1449,1073,5,
10081.3,3.75885,14.006,1.322,19.1449,1073,5,
10081.3,3.75854,14.0121,1.322,19.1449,1073,5,
10081.3,3.75916,14.006,1.322,19.1449,1073,5,
10081.3,3.75916,14.006,1.322,19.1449,1073,5,
10081.3,3.75854,14.0091,1.322,19.1449,1073,5,
10081.3,3.75916,14.0076,1.322,19.1449,1073,5,
10081.3,3.75916,14.006,1.322,19.1449,1073,5,
10081.3,3.75916,14.0045,1.322,19.1449,1073,5,
10081.3,3.75854,14.006,1.322,19.1449,1073,5,
10081.3,3.75885,14.0045,1.322,19.1449,1073,5,
10081.3,3.75916,14.003,1.322,19.1449,1073,5,
10081.3,3.75916,14.006,1.322,19.1449,1073,5,
10081.3,3.75854,14.006,1.322,19.1449,1073,5,
10081.3,3.75702,14.0076,1.322,19.1449,1073,5,
10081.3,3.75427,14.0076,1.322,19.1449,1073,5,
10081.3,3.75427,14.0091,1.322,19.1449,1073,5,
10081.3,3.75427,14.0076,1.322,19.1449,1073,5,
10081.3,3.75458,14.0045,1.322,19.1449,1073,5,
10081.3,3.75458,14.0076,1.322,19.1449,1073,5,
10081.3,3.75397,14.0045,1.322,19.1449,1073,5,
10081.3,3.75397,14.0091,1.322,19.1449,1073,5,
10081.3,3.75366,14.0076,1.322,19.1449,1073,5,
10081.3,3.75397,14.0106,1.322,19.1449,1073,5,
10081.3,3.75427,14.006,1.322,19.1449,1073,5,
10081.3,3.75336,14.0076,1.322,19.1449,1073,5,
10081.3,3.75336,14.0106,1.322,19.1449,1073,5,
10081.3,3.75427,14.0091,1.322,19.1449,1073,5,
10081.3,3.75397,14.0183,1.322,19.1449,1073,5,
10081.3,3.74908,14.0183,1.322,19.1449,1073,5,
10081.3,3.74878,14.0183,1.322,19.1449,1073,5,
10081.3,3.74878,14.0198,1.322,19.1449,1073,5,
10081.3,3.75,14.0167,1.322,19.1449,1073,5,
10081.3,3.74908,14.0167,1.322,19.1449,1073,5,
10081.3,3.74908,14.0213,1.322,19.1449,1073,5,
10081.3,3.75,14.0213,1.322,19.1449,1073,5,
10081.3,3.74939,14.0183,1.322,19.1449,1073,5,
10081.3,3.74847,14.0183,1.322,19.1449,1073,5,
10081.3,3.74939,14.0198,1.322,19.1449,1073,5,
10081.3,3.74847,14.0183,1.322,19.1449,1073,5,
10081.3,3.74939,14.0183,1.322,19.1449,1073,5,
10081.3,3.74756,14.0213,1.322,19.1449,1073,5,
10081.3,3.74481,14.0167,1.322,19.1449,1073,5,
10081.3,3.7439,14.0167,1.322,19.1449,1073,5,
10081.3,3.7439,14.0198,1.322,19.1449,1073,5,
10081.3,3.7442,14.0198,1.322,19.1449,1073,5,
10081.3,3.74451,14.0152,1.322,19.1449,1073,5,
10081.4,3.7439,14.0213,1.322,19.1449,1073,5,
10081.4,3.7442,14.0198,1.322,19.1449,1073,5,
10081.4,3.74329,14.0183,1.322,19.1449,1073,5,
10081.4,3.74451,14.0167,1.322,19.1449,1073,5,
10081.4,3.74512,14.0198,1.322,19.1449,1073,5,
10081.4,3.7442,14.0198,1.322,19.1449,1073,5,
10081.4,3.74451,14.0183,1.322,19.1449,1073,5,
10081.4,3.73962,14.0198,1.322,19.1449,1073,5,
10081.4,3.73901,14.0167,1.322,19.1449,1073,5,
10081.4,3.73962,14.0213,1.322,19.1449,1073,5,
10081.4,3.73901,14.0183,1.322,19.1449,1073,5,
10081.4,3.73901,14.0213,1.322,19.1449,1073,5,
10081.4,3.73932,14.0183,1.322,19.1449,1073,5,
10081.4,3.73932,14.0167,1.322,19.1449,1073,5,
10081.4,3.73932,14.0183,1.322,19.1449,1073,5,
10081.4,3.73962,14.0244,1.322,19.1449,1073,5,
10081.4,3.73871,14.0183,1.322,19.1449,1073,5,
10081.4,3.73901,14.0244,1.322,19.1449,1073,5,
10081.4,3.73871,14.0213,1.322,19.1449,1073,5,
10081.4,3.73474,14.0183,1.322,19.1449,1073,5,
10081.4,3.73413,14.0183,1.322,19.1449,1073,5,
10081.4,3.73413,14.0183,1.322,19.1449,1073,5,
10081.4,3.73383,14.0305,1.322,19.1449,1073,5,
10081.4,3.73444,14.0335,1.322,19.1449,1073,5,
10081.4,3.73474,14.0305,1.322,19.1449,1073,5,
10081.4,3.73413,14.0305,1.322,19.1449,1073,5,
10081.4,3.73413,14.032,1.322,19.1449,1073,5,
10081.4,3.73383,14.0305,1.322,19.1449,1073,5,
10081.4,3.73444,14.032,1.322,19.1449,1073,5,
10081.4,3.73413,14.032,1.322,19.1449,1073,5,
10081.4,3.73383,14.035,1.322,19.1449,1073,5,
10081.4,3.73291,14.032,1.322,19.1449,1073,5,
10081.4,3.72925,14.032,1.322,19.1449,1073,5,
10081.4,3.72955,14.032,1.322,19.1449,1073,5,
10081.4,3.72894,14.035,1.322,19.1449,1073,5,
10081.4,3.72925,14.032,1.322,19.1449,1073,5,
10081.4,3.72986,14.0274,1.322,19.1449,1073,5,
10081.4,3.72925,14.0274,1.322,19.1449,1073,5,
10081.4,3.72894,14.0305,1.322,19.1449,1073,5,
10081.4,3.72833,14.0335,1.322,19.1449,1073,5,
10081.4,3.72955,14.0289,1.322,19.1449,1073,5,
10081.4,3.72955,14.032,1.322,19.1449,1073,5,
10081.4,3.72894,14.032,1.322,19.1449,1073,5,
10081.4,3.72925,14.035,1.322,19.1449,1073,5,
10081.4,3.72559,14.0335,1.322,19.1449,1073,5,
10081.4,3.72437,14.032,1.322,19.1449,1073,5,
10081.4,3.72437,14.032,1.322,19.1449,1073,5,
10081.4,3.72528,14.0305,1.322,19.1449,1073,5,
10081.4,3.72406,14.0274,1.322,19.1449,1073,5,
10081.4,3.72437,14.0335,1.322,19.1449,1073,5,
10081.5,3.72498,14.032,1.322,19.1449,1073,5,
10081.5,3.72406,14.032,1.322,19.1449,1073,5,
10081.5,3.72437,14.032,1.322,19.1449,1073,5,
10081.5,3.72467,14.0289,1.322,19.1449,1073,5,
10081.5,3.72467,14.032,1.322,19.1449,1073,5,
10081.5,3.72406,14.032,1.322,19.1449,1073,5,
10081.5,3.72498,14.0366,1.322,19.1449,1073,5,
10081.5,3.72437,14.0335,1.322,19.1449,1073,5,
10081.5,3.72467,14.0335,1.322,19.1449,1073,5,
10081.5,3.71948,14.032,1.322,19.1449,1073,5,
10081.5,3.7204,14.0335,1.322,19.1449,1073,5,
10081.5,3.71979,14.035,1.322,19.1449,1073,5,
10081.5,3.71979,14.0335,1.322,19.1449,1073,5,
10081.5,3.71948,14.0305,1.322,19.1449,1073,5,
10081.5,3.71948,14.032,1.322,19.1449,1073,5,
10081.5,3.71918,14.0305,1.322,19.1449,1073,5,
10081.5,3.71979,14.032,1.322,19.1449,1073,5,
10081.5,3.71948,14.032,1.322,19.1449,1073,5,
10081.5,3.71979,14.0335,1.322,19.1449,1073,5,
10081.5,3.71979,14.0442,1.322,19.1449,1073,5,
10081.5,3.71948,14.0457,1.322,19.1449,1073,5,
10081.5,3.71948,14.0442,1.322,19.1449,1073,5,
10081.5,3.71979,14.0442,1.322,19.1449,1073,5,
10081.5,3.71948,14.0457,1.322,19.1449,1073,5,
10081.5,3.71948,14.0442,1.322,19.1449,1073,5,
10081.5,3.71979,14.0411,1.322,19.1449,1073,5,
10081.5,3.71979,14.0427,1.322,19.1449,1073,5,
10081.5,3.71521,14.0411,1.322,19.1449,1073,5,
10081.5,3.71521,14.0442,1.322,19.1449,1073,5,
10081.5,3.71429,14.0427,1.322,19.1449,1073,5,
10081.5,3.7146,14.0396,1.322,19.1449,1073,5,
10081.5,3.7149,14.0442,1.322,19.1449,1073,5,
10081.5,3.7146,14.0396,1.322,19.1449,1073,5,
10081.5,3.71429,14.0427,1.322,19.1449,1073,5,
10081.5,3.7146,14.0396,1.322,19.1449,1073,5,
10081.5,3.71429,14.0427,1.322,19.1449,1073,5,
10081.5,3.7146,14.0427,1.322,19.1449,1073,5,
10081.5,3.7149,14.0442,1.322,19.1449,1073,5,
10081.5,3.7149,14.0427,1.322,19.1449,1073,5,
10081.5,3.7149,14.0427,1.322,19.1449,1073,5,
10081.5,3.71429,14.0427,1.322,19.1449,1073,5,
10081.5,3.71429,14.0427,1.322,19.1449,1073,5,
10081.5,3.7149,14.0457,1.322,19.1449,1073,5,
10081.5,3.71521,14.0411,1.322,19.1449,1073,5,
10081.5,3.71429,14.0442,1.322,19.1449,1073,5,
10081.5,3.71521,14.0411,1.322,19.1449,1073,5,
10081.5,3.7149,14.0442,1.322,19.1449,1073,5,
10081.5,3.7149,14.0442,1.322,19.1449,1073,5,
10081.5,3.71521,14.0442,1.322,19.1449,1073,5,
10081.5,3.71521,14.0442,1.322,19.1449,1073,5,
10081.5,3.7146,14.0442,1.322,19.1449,1073,5,
10081.6,3.71429,14.0427,1.322,19.1449,1073,5,
10081.6,3.7146,14.0457,1.322,19.1449,1073,5,
10081.6,3.7146,14.0442,1.322,19.1449,1073,5,
10081.6,3.7149,14.0427,1.322,19.1449,1073,5,
10081.6,3.71429,14.0549,1.322,19.1449,1073,5,
10081.6,3.7149,14.0549,1.322,19.1449,1073,5,
10081.6,3.71521,14.0579,1.322,19.1449,1073,5,
10081.6,3.7149,14.0549,1.322,19.1449,1073,5,
10081.6,3.71521,14.0549,1.322,19.1449,1073,5,
10081.6,3.7149,14.0549,1.322,19.1449,1073,5,
10081.6,3.71521,14.0549,1.322,19.1449,1073,5,
10081.6,3.7146,14.0533,1.322,19.1449,1073,5,
10081.6,3.71521,14.0549,1.322,19.1449,1073,5,
10081.6,3.7149,14.0533,1.322,19.1449,1073,5,
10081.6,3.71429,14.0564,1.322,19.1449,1073,5,
10081.6,3.7146,14.0579,1.322,19.1449,1073,5,
10081.6,3.71429,14.0564,1.322,19.1449,1073,5,
10081.6,3.7146,14.0564,1.322,19.1449,1073,5,
10081.6,3.71521,14.0579,1.322,19.1449,1073,5,
10081.6,3.7146,14.0549,1.322,19.1449,1073,5,
10081.6,3.71429,14.0579,1.322,19.1449,1073,5,
10081.6,3.71429,14.0564,1.322,19.1449,1073,5,
10081.6,3.71521,14.0579,1.322,19.1449,1073,5,
10081.6,3.71429,14.0549,1.322,19.1449,1073,5,
10081.6,3.71521,14.0579,1.322,19.1449,1073,5,
10081.6,3.7146,14.0518,1.322,19.1449,1073,5,
10081.6,3.71429,14.0579,1.322,19.1449,1073,5,
10081.6,3.7149,14.0579,1.322,19.1449,1073,5,
10081.6,3.7149,14.0518,1.322,19.1449,1073,5,
10081.6,3.71521,14.0564,1.322,19.1449,1073,5,
10081.6,3.7149,14.0549,1.322,19.1449,1073,5,
10081.6,3.7146,14.0564,1.322,19.1449,1073,5,
10081.6,3.71521,14.0579,1.322,19.1449,1073,5,
10081.6,3.71521,14.0549,1.322,19.1449,1073,5,
10081.6,3.71429,14.0533,1.322,19.1449,1073,5,
10081.6,3.7146,14.0579,1.322,19.1449,1073,5,
10081.6,3.71399,14.0564,1.322,19.1449,1073,5,
10081.6,3.7149,14.0671,1.322,19.1449,1073,5,
10081.6,3.7146,14.0686,1.322,19.1449,1073,5,
10081.6,3.7149,14.0686,1.322,19.1449,1073,5,
10081.6,3.71521,14.0656,1.322,19.1449,1073,5,
10081.6,3.7149,14.0732,1.322,19.1449,1073,5,
10081.6,3.71521,14.0671,1.322,19.1449,1073,5,
10081.6,3.71429,14.0671,1.322,19.1449,1073,5,
10081.6,3.71368,14.0701,1.322,19.1449,1073,5,
10081.6,3.71429,14.0671,1.322,19.1449,1073,5,
10081.6,3.7149,14.0686,1.322,19.1449,1073,5,
10081.6,3.7146,14.0671,1.322,19.1449,1073,5,
10081.6,3.7149,14.0732,1.322,19.1449,1073,5,
10081.6,3.7146,14.0686,1.322,19.1449,1073,5,
10081.7,3.71399,14.0671,1.322,19.1449,1073,5,
10081.7,3.7149,14.0671,1.322,19.1449,1073,5,
10081.7,3.71429,14.0701,1.322,19.1449,1073,5,
10081.7,3.71429,14.0701,1.322,19.1449,1073,5,
10081.7,3.71979,14.0656,1.322,19.1449,1073,5,
10081.7,3.71948,14.0671,1.322,19.1449,1073,5,
10081.7,3.71948,14.0671,1.322,19.1449,1073,5,
10081.7,3.71948,14.0732,1.322,19.1449,1073,5,
10081.7,3.71979,14.0686,1.322,19.1449,1073,5,
10081.7,3.71887,14.0701,1.322,19.1449,1073,5,
10081.7,3.71918,14.0686,1.322,19.1449,1073,5,
10081.7,3.71979,14.0686,1.322,19.1449,1073,5,
10081.7,3.71918,14.0671,1.322,19.1449,1073,5,
10081.7,3.72009,14.0671,1.322,19.1449,1073,5,
10081.7,3.71948,14.0717,1.322,19.1449,1073,5,
10081.7,3.71979,14.0686,1.322,19.1449,1073,5,
10081.7,3.71918,14.0686,1.322,19.1449,1073,5,
10081.7,3.71918,14.0701,1.322,19.1449,1073,5,
10081.7,3.71948,14.0671,1.322,19.1449,1073,5,
10081.7,3.71918,14.0656,1.322,19.1449,1073,5,
10081.7,3.72009,14.0701,1.322,19.1449,1073,5,
10081.7,3.71979,14.0823,1.322,19.1449,1073,5,
10081.7,3.7204,14.0778,1.322,19.1449,1073,5,
10081.7,3.72467,14.0793,1.322,19.1449,1073,5,
10081.7,3.72467,14.0823,1.322,19.1449,1073,5,
10081.7,3.72467,14.0778,1.322,19.1449,1073,5,
10081.7,3.72437,14.0823,1.322,19.1449,1073,5,
10081.7,3.72437,14.0793,1.322,19.1449,1073,5,
10081.7,3.72498,14.0808,1.322,19.1449,1073,5,
10081.7,3.72437,14.0808,1.322,19.1449,1073,5,
10081.7,3.72437,14.0762,1.322,19.1449,1073,5,
10081.7,3.72467,14.0808,1.322,19.1449,1073,5,
10081.7,3.72498,14.0808,1.322,19.1449,1073,5,
10081.7,3.72498,14.0808,1.322,19.1449,1073,5,
10081.7,3.72437,14.0839,1.322,19.1449,1073,5,
10081.7,3.72498,14.0823,1.322,19.1449,1073,5,
10081.7,3.72406,14.0808,1.322,19.1449,1073,5,
10081.7,3.72803,14.0808,1.322,19.1449,1073,5,
10081.7,3.72925,14.0823,1.322,19.1449,1073,5,
10081.7,3.72986,14.0793,1.322,19.1449,1073,5,
10081.7,3.72925,14.0839,1.322,19.1449,1073,5,
10081.7,3.72925,14.0808,1.322,19.1449,1073,5,
10081.7,3.72925,14.0823,1.322,19.1449,1073,5,
10081.7,3.72894,14.0808,1.322,19.1449,1073,5,
10081.7,3.72955,14.0808,1.322,19.1449,1073,5,
10081.7,3.72925,14.0839,1.322,19.1449,1073,5,
10081.7,3.73047,14.0808,1.322,19.1449,1073,5,
10081.7,3.72986,14.0808,1.322,19.1449,1073,5,
10081.7,3.72986,14.0839,1.322,19.1449,1073,5,
10081.8,3.72894,14.0808,1.322,19.1449,1073,5,
10081.8,3.73444,14.0823,1.322,19.1449,1073,5,
10081.8,3.73444,14.0823,1.322,19.1449,1073,5,
10081.8,3.73444,14.0823,1.322,19.1449,1073,5,
10081.8,3.73444,14.0778,1.322,19.1449,1073,5,
10081.8,3.73383,14.0793,1.322,19.1449,1073,5,
10081.8,3.73383,14.0808,1.322,19.1449,1073,5,
10081.8,3.73383,14.0793,1.322,19.1449,1073,5,
10081.8,3.73383,14.0793,1.322,19.1449,1073,5,
10081.8,3.73444,14.093,1.322,19.1449,1073,5,
10081.8,3.73444,14.0945,1.322,19.1449,1073,5,
10081.8,3.73474,14.0915,1.322,19.1449,1073,5,
10081.8,3.73444,14.0884,1.322,19.1449,1073,5,
10081.8,3.73901,14.093,1.322,19.1449,1073,5,
10081.8,3.73962,14.0915,1.322,19.1449,1073,5,
10081.8,3.73871,14.0945,1.322,19.1449,1073,5,
10081.8,3.73901,14.093,1.322,19.1449,1073,5,
10081.8,3.73871,14.093,1.322,19.1449,1073,5,
10081.8,3.73932,14.0915,1.322,19.1449,1073,5,
10081.8,3.73901,14.0915,1.322,19.1449,1073,5,
10081.8,3.73871,14.093,1.322,19.1449,1073,5,
10081.8,3.7384,14.093,1.322,19.1449,1073,5,
10081.8,3.73871,14.0884,1.322,19.1449,1073,5,
10081.8,3.74023,14.0915,1.322,19.1449,1073,5,
10081.8,3.74115,14.0945,1.322,19.1449,1073,5,
10081.8,3.7442,14.0915,1.322,19.1449,1073,5,
10081.8,3.74359,14.0915,1.322,19.1449,1073,5,
10081.8,3.74451,14.0961,1.322,19.1449,1073,5,
10081.8,3.74451,14.093,1.322,19.1449,1073,5,
10081.8,3.7439,14.093,1.322,19.1449,1073,5,
10081.8,3.7439,14.0945,1.322,19.1449,1073,5,
10081.8,3.74512,14.093,1.322,19.1449,1073,5,
10081.8,3.7439,14.093,1.322,19.1449,1073,5,
10081.8,3.7442,14.093,1.322,19.1449,1073,5,
10081.8,3.7442,14.0915,1.322,19.1449,1073,5,
10081.8,3.74878,14.093,1.322,19.1449,1073,5,
10081.8,3.74939,14.0945,1.322,19.1449,1073,5,
10081.8,3.74817,14.0915,1.322,19.1449,1073,5,
10081.8,3.74908,14.0915,1.322,19.1449,1073,5,
10081.8,3.74908,14.0915,1.322,19.1449,1073,5,
10081.8,3.74969,14.093,1.322,19.1449,1073,5,
10081.8,3.74878,14.09,1.322,19.1449,1073,5,
10081.8,3.74939,14.093,1.322,19.1449,1073,5,
10081.8,3.74878,14.09,1.322,19.1449,1073,5,
10081.8,3.74908,14.0915,1.322,19.1449,1073,5,
10081.8,3.75305,14.09,1.322,19.1449,1073,5,
10081.8,3.75366,14.1037,1.322,19.1449,1073,5,
10081.8,3.75366,14.1052,1.322,19.1449,1073,5,
10081.8,3.75366,14.1022,1.322,19.1449,1073,5,
10081.8,3.75366,14.1037,1.322,19.1449,1073,5,
10081.9,3.75366,14.1068,1.322,19.1449,1073,5,
10081.9,3.75458,14.1037,1.322,19.1449,1073,5,
10081.9,3.75397,14.1037,1.322,19.1449,1073,5,
10081.9,3.75397,14.1022,1.322,19.1449,1073,5,
10081.9,3.75427,14.1052,1.322,19.1449,1073,5,
10081.9,3.75732,14.1083,1.322,19.1449,1073,5,
10081.9,3.75854,14.1052,1.322,19.1449,1073,5,
10081.9,3.75824,14.1037,1.322,19.1449,1073,5,
10081.9,3.75854,14.1022,1.322,19.1449,1073,5,
10081.9,3.75885,14.0991,1.322,19.1449,1073,5,
10081.9,3.75885,14.1052,1.322,19.1449,1073,5,
10081.9,3.75854,14.1052,1.322,19.1449,1073,5,
10081.9,3.75824,14.1068,1.322,19.1449,1073,5,
10081.9,3.75854,14.0976,1.322,19.1449,1073,5,
10081.9,3.75885,14.1006,1.322,19.1449,1073,5,
10081.9,3.76312,14.1022,1.322,19.1449,1073,5,
10081.9,3.76373,14.1068,1.322,19.1449,1073,5,
10081.9,3.76312,14.1022,1.322,19.1449,1073,5,
10081.9,3.76312,14.1052,1.322,19.1449,1073,5,
10081.9,3.76373,14.1052,1.322,19.1449,1073,5,
10081.9,3.76343,14.1037,1.322,19.1449,1073,5,
10081.9,3.76312,14.1083,1.322,19.1449,1073,5,
10081.9,3.76373,14.1052,1.322,19.1449,1073,5,
10081.9,3.76343,14.1037,1.322,19.1449,1073,5,
10081.9,3.76343,14.1022,1.322,19.1449,1073,5,
10081.9,3.76831,14.1037,1.322,19.1449,1073,5,
10081.9,3.76862,14.1083,1.322,19.1449,1073,5,
10081.9,3.76801,14.1037,1.322,19.1449,1073,5,
10081.9,3.76831,14.1068,1.322,19.1449,1073,5,
10081.9,3.76862,14.1006,1.322,19.1449,1073,5,
10081.9,3.76862,14.1052,1.322,19.1449,1073,5,
10081.9,3.76831,14.1037,1.322,19.1449,1073,5,
10081.9,3.76862,14.1052,1.322,19.1449,1073,5,
10081.9,3.76862,14.1068,1.322,19.1449,1073,5,
10081.9,3.76862,14.1037,1.322,19.1449,1073,5,
10081.9,3.77319,14.1037,1.322,19.1449,1073,5,
10081.9,3.77289,14.1068,1.322,19.1449,1073,5,
10081.9,3.77289,14.1068,1.322,19.1449,1073,5,
10081.9,3.77441,14.1144,1.322,19.1449,1073,5,
10081.9,3.77319,14.1174,1.322,19.1449,1073,5,
10081.9,3.7735,14.119,1.322,19.1449,1073,5,
10081.9,3.77319,14.1159,1.322,19.1449,1073,5,
10081.9,3.77411,14.1174,1.322,19.1449,1073,5,
10081.9,3.7738,14.1174,1.322,19.1449,1073,5,
10081.9,3.7738,14.1174,1.322,19.1449,1073,5,
10081.9,3.77838,14.1113,1.322,19.1449,1073,5,
10081.9,3.77808,14.1174,1.322,19.1449,1073,5,
10081.9,3.77838,14.1159,1.322,19.1449,1073,5,
10081.9,3.77869,14.1174,1.322,19.1449,1073,5,
10081.9,3.77869,14.119,1.322,19.1449,1073,5,
10082,3.77838,14.1159,1.322,19.1449,1073,5,
10082,3.77838,14.1144,1.322,19.1449,1073,5,
10082,3.77838,14.119,1.322,19.1449,1073,5,
10082,3.77869,14.1159,1.322,19.1449,1073,5,
10082,3.77808,14.1159,1.322,19.1449,1073,5,
10082,3.78326,14.1174,1.322,19.1449,1073,5,
10082,3.78296,14.1144,1.322,19.1449,1073,5,
10082,3.78326,14.1174,1.322,19.1449,1073,5,
10082,3.78326,14.1174,1.322,19.1449,1073,5,
10082,3.78326,14.1174,1.322,19.1449,1073,5,
10082,3.78326,14.1159,1.322,19.1449,1073,5,
10082,3.78387,14.1174,1.322,19.1449,1073,5,
10082,3.78296,14.1159,1.322,19.1449,1073,5,
10082,3.78357,14.1174,1.322,19.1449,1073,5,
10082,3.78448,14.1144,1.322,19.1449,1073,5,
10082,3.78784,14.119,1.322,19.1449,1073,5,
10082,3.78815,14.119,1.322,19.1449,1073,5,
10082,3.78815,14.1159,1.322,19.1449,1073,5,
10082,3.78845,14.1159,1.322,19.1449,1073,5,
10082,3.78784,14.1144,1.322,19.1449,1073,5,
10082,3.78784,14.1174,1.322,19.1449,1073,5,
10082,3.78754,14.1144,1.322,19.1449,1073,5,
10082,3.78784,14.119,1.322,19.1449,1073,5,
10082,3.78815,14.1144,1.322,19.1449,1073,5,
10082,3.78967,14.1144,1.322,19.1449,1073,5,
10082,3.79303,14.1159,1.322,19.1449,1073,5,
10082,3.79303,14.1174,1.322,19.1449,1073,5,
10082,3.79272,14.119,1.322,19.1449,1073,5,
10082,3.79333,14.1174,1.322,19.1449,1073,5,
10082,3.79272,14.1144,1.322,19.1449,1073,5,
10082,3.79211,14.1113,0,19.1449,1073,5,
10082,3.79333,14.119,0,19.1449,1073,5,
10082,3.79303,14.1159,0,19.1449,1073,5,
10082,3.79272,14.1174,0,19.1449,1073,5,
10082,3.79242,14.1281,0,19.1449,1073,5,
10082,3.79669,14.1266,0,19.1449,1073,5,
10082,3.79791,14.1266,0,19.1449,1073,5,
10082,3.79761,14.1281,2.26,19.1449,1073,5,
10082,3.79822,14.1235,2.26,19.1449,1073,5,
10082,3.79791,14.1281,2.26,19.1449,1073,5,
10082,3.79791,14.1296,2.26,19.1449,1073,5,
10082,3.79822,14.1312,2.26,19.1449,1073,5,
10082,3.79761,14.1266,2.26,19.1449,1073,5,
10082,3.79761,14.1281,2.26,19.1449,1073,5,
10082,3.79791,14.1251,2.26,19.1449,1073,5,
10082,3.79761,14.1296,2.26,19.1449,1073,5,
10082,3.8028,14.1281,2.26,19.1449,1073,5,
10082,3.8028,14.1266,2.26,19.1449,1073,5,
10082,3.80341,14.1281,2.26,19.1449,1073,5,
10082,3.8028,14.1296,2.26,19.1449,1073,5,
10082,3.80341,14.1266,2.26,19.1449,1073,5,
10082.1,3.80249,14.1312,2.26,19.1449,1073,5,
10082.1,3.8028,14.1281,2.26,19.1449,1073,5,
10082.1,3.8028,14.1251,2.26,19.1449,1073,5,
10082.1,3.8031,14.1266,2.26,19.1449,1073,5,
10082.1,3.8028,14.1296,2.26,19.1449,1073,5,
10082.1,3.8028,14.1281,2.26,19.1449,1073,5,
10082.1,3.80646,14.1281,2.26,19.1449,1073,5,
10082.1,3.80768,14.1281,2.26,19.1449,1073,5,
10082.1,3.80768,14.1296,2.26,19.1449,1073,5,
10082.1,3.80768,14.1296,2.26,19.1449,1073,5,
10082.1,3.80768,14.1312,2.26,19.1449,1073,5,
10082.1,3.80768,14.1266,2.26,19.1449,1073,5,
10082.1,3.80798,14.1266,2.26,19.1449,1073,5,
10082.1,3.80768,14.1296,2.26,19.1449,1073,5,
10082.1,3.80737,14.1296,2.26,19.1449,1073,5,
10082.1,3.80768,14.1251,2.26,19.1449,1073,5,
10082.1,3.80829,14.1281,2.26,19.1449,1073,5,
10082.1,3.8089,14.1266,2.26,19.1449,1073,5,
10082.1,3.81287,14.1296,2.26,19.1449,1073,5,
10082.1,3.81348,14.1266,2.26,19.1449,1073,5,
10082.1,3.81256,14.1266,2.26,19.1449,1073,5,
10082.1,3.81287,14.1296,2.26,19.1449,1073,0,
10082.1,3.81195,14.1266,2.26,19.1449,1073,0,
10082.1,3.81287,14.1281,2.26,19.1449,1073,0,
10082.1,3.81256,14.1281,2.26,19.1449,1073,0,
10082.1,3.81287,14.1266,2.26,19.1449,1073,0,
10082.1,3.81256,14.1281,2.26,19.1449,1073,0,
10082.1,3.81226,14.1281,2.26,19.1449,1073,0,
10082.1,3.81195,14.1266,2.26,19.1449,1073,0,
10082.1,3.81256,14.1266,2.26,19.1449,1073,0,
10082.1,3.81348,14.1281,2.26,19.1449,1073,0,
10082.1,3.81775,14.1296,2.26,19.1449,1073,0,
10082.1,3.81714,14.1312,2.26,19.1449,1073,0,
10082.1,3.81836,14.1418,2.26,19.1449,1073,0,
10082.1,3.81775,14.1388,2.26,19.1449,1073,0,
10082.1,3.81714,14.1373,2.26,19.1449,1073,0,
10082.1,3.81714,14.1403,2.26,19.1449,1073,0,
10082.1,3.81714,14.1418,2.26,19.1449,1073,0,
10082.1,3.81744,14.1434,2.26,19.1449,1073,0,
10082.1,3.81775,14.1403,2.26,19.1449,1073,0,
10082.1,3.81775,14.1403,2.26,19.1449,1073,0,
10082.1,3.81805,14.1403,2.26,19.1449,1073,0,
10082.1,3.81744,14.1388,2.26,19.1449,1073,0,
10082.1,3.81744,14.1388,2.26,19.1449,1073,0,
10082.1,3.82233,14.1418,2.26,19.1449,1073,0,
10082.1,3.82263,14.1418,2.26,19.1449,1073,0,
10082.1,3.82263,14.1373,2.26,19.1449,1073,0,
10082.1,3.82233,14.1403,2.26,19.1449,1073,0,
10082.1,3.82294,14.1403,2.26,19.1449,1073,0,
10082.1,3.82233,14.1449,2.26,19.1449,1073,0,
10082.2,3.82202,14.1418,2.26,19.1449,1073,0,
10082.2,3.82233,14.1418,2.26,19.1449,1073,0,
10082.2,3.82233,14.1388,2.26,19.1449,1073,0,
10082.2,3.82324,14.1418,2.26,19.1449,1073,0,
10082.2,3.82202,14.1388,2.26,19.1449,1073,0,
10082.2,3.82202,14.1403,2.26,19.1449,1073,0,
10082.2,3.82233,14.1388,2.26,19.1449,1073,0,
10082.2,3.82233,14.1403,2.26,19.1449,1073,0,
10082.2,3.8269,14.1403,2.26,19.1449,1073,0,
10082.2,3.82751,14.1373,2.26,19.1449,1073,0,
10082.2,3.82751,14.1373,2.26,19.1449,1073,0,
10082.2,3.82751,14.1388,2.26,19.1449,1073,0,
10082.2,3.82721,14.1388,2.26,19.1449,1073,0,
10082.2,3.82721,14.1388,2.26,19.1449,1073,0,
10082.2,3.82751,14.1388,2.26,19.1449,1073,0,
10082.2,3.82751,14.1418,2.26,19.1449,1073,0,
10082.2,3.8269,14.1373,2.26,19.1449,1073,0,
10082.2,3.82721,14.1388,2.26,19.1449,1073,0,
10082.2,3.82751,14.1434,2.26,19.1449,1073,0,
10082.2,3.82751,14.1388,2.26,19.1449,1073,0,
10082.2,3.8269,14.1434,2.26,19.1449,1073,0,
10082.2,3.82721,14.1418,2.26,19.1449,1073,0,
10082.2,3.82721,14.1403,2.26,19.1449,1073,0,
10082.2,3.82843,14.1403,2.26,19.1449,1073,0,
10082.2,3.82904,14.1434,2.26,19.1449,1073,0,
10082.2,3.8327,14.1418,2.26,19.1449,1073,0,
10082.2,3.83179,14.1403,2.26,19.1449,1073,0,
10082.2,3.8327,14.1388,2.26,19.1449,1073,0,
10082.2,3.83209,14.1373,2.26,19.1449,1073,0,
10082.2,3.83148,14.1403,2.26,19.1449,1073,0,
10082.2,3.83179,14.1418,2.26,19.1449,1073,0,
10082.2,3.83179,14.1418,2.26,19.1449,1073,0,
10082.2,3.83209,14.1418,2.26,19.1449,1073,0,
10082.2,3.83179,14.1418,2.26,19.1449,1073,0,
10082.2,3.8327,14.1403,2.26,19.1449,1073,0,
10082.2,3.8324,14.1434,2.26,19.1449,1073,0,
10082.2,3.8324,14.1418,2.26,19.1449,1073,0,
10082.2,3.83209,14.1388,2.26,19.1449,1073,0,
10082.2,3.83179,14.1373,2.26,19.1449,1073,0,
10082.2,3.83209,14.1403,2.26,19.1449,1073,0,
10082.2,3.83209,14.1403,2.26,19.1449,1073,0,
10082.2,3.83179,14.1403,2.26,19.1449,1073,0,
10082.2,3.83179,14.1403,2.26,19.1449,1073,0,
10082.2,3.83301,14.1434,2.26,19.1449,1073,0,
10082.2,3.8324,14.1357,2.26,19.1449,1073,0,
10082.2,3.83728,14.1403,2.26,19.1449,1073,0,
10082.2,3.83667,14.1388,2.26,19.1449,1073,0,
10082.2,3.83728,14.1403,2.26,19.1449,1073,0,
10082.2,3.83698,14.1434,2.26,19.1449,1073,0,
10082.2,3.83759,14.1418,2.26,19.1449,1073,0,
10082.3,3.83698,14.1403,2.26,19.1449,1073,0,
10082.3,3.83698,14.1418,2.26,19.1449,1073,0,
10082.3,3.83789,14.151,2.26,19.1449,1073,0,
10082.3,3.83728,14.1541,2.26,19.1449,1073,0,
10082.3,3.83759,14.1525,2.26,19.1449,1073,0,
10082.3,3.83728,14.1541,2.26,19.1449,1073,0,
10082.3,3.83667,14.151,2.26,19.1449,1073,0,
10082.3,3.83728,14.1525,2.26,19.1449,1073,0,
10082.3,3.83759,14.1541,2.26,19.1449,1073,0,
10082.3,3.83728,14.148,2.26,19.1449,1073,0,
10082.3,3.83698,14.1525,2.26,19.1449,1073,0,
10082.3,3.83728,14.1495,2.26,19.1449,1073,0,
10082.3,3.83789,14.1495,2.26,19.1449,1073,0,
10082.3,3.83728,14.1525,2.26,19.1449,1073,0,
10082.3,3.83728,14.151,2.26,19.1449,1073,0,
10082.3,3.83698,14.1525,2.26,19.1449,1073,0,
10082.3,3.83728,14.1541,2.26,19.1449,1073,0,
10082.3,3.83728,14.1525,2.26,19.1449,1073,0,
10082.3,3.83698,14.1541,2.26,19.1449,1073,0,
10082.3,3.83698,14.1525,2.26,19.1449,1073,0,
10082.3,3.83698,14.1541,2.26,19.1449,1073,0,
10082.3,3.83667,14.1541,2.26,19.1449,1073,0,
10082.3,3.83667,14.1541,2.26,19.1449,1073,0,
10082.3,3.83728,14.151,2.26,19.1449,1073,0,
10082.3,3.83789,14.1525,2.26,19.1449,1073,0,
10082.3,3.83698,14.151,2.26,19.1449,1073,0,
10082.3,3.83698,14.1525,2.26,19.1449,1073,0,
10082.3,3.83789,14.1556,2.26,19.1449,1073,0,
10082.3,3.83789,14.1525,2.26,19.1449,1073,0,
10082.3,3.83667,14.1495,2.26,19.1449,1073,0,
10082.3,3.83667,14.151,2.26,19.1449,1073,0,
10082.3,3.83698,14.1525,2.26,19.1449,1073,0,
10082.3,3.83759,14.1541,2.26,19.1449,1073,0,
10082.3,3.83636,14.1525,2.26,19.1449,1073,0,
10082.3,3.83698,14.1541,2.26,19.1449,1073,0,
10082.3,3.83728,14.1541,2.26,19.1449,1073,0,
10082.3,3.83728,14.1541,2.26,19.1449,1073,0,
10082.3,3.83728,14.1541,2.26,19.1449,1073,0,
10082.3,3.83698,14.1541,2.26,19.1449,1073,0,
10082.3,3.83728,14.1495,2.26,19.1449,1073,0,
10082.3,3.83728,14.1541,2.26,19.1449,1073,0,
10082.3,3.83698,14.1495,2.26,19.1449,1073,0,
10082.3,3.83789,14.1525,2.26,19.1449,1073,0,
10082.3,3.83698,14.1525,2.26,19.1449,1073,0,
10082.3,3.83789,14.1556,2.26,19.1449,1073,0,
10082.3,3.83698,14.1525,2.26,19.1449,1073,0,
10082.3,3.83698,14.151,2.26,19.1449,1073,0,
10082.3,3.83698,14.1541,2.26,19.1449,1073,0,
10082.3,3.83698,14.1525,2.26,19.1449,1073,0,
10082.4,3.83698,14.1541,2.26,19.1449,1073,0,
10082.4,3.83698,14.1556,2.26,19.1449,1073,0,
10082.4,3.83698,14.1525,2.26,19.1449,1073,0,
10082.4,3.83667,14.151,2.26,19.1449,1073,0,
10082.4,3.83698,14.1541,2.26,19.1449,1073,0,
10082.4,3.83789,14.1541,2.26,19.1449,1073,0,
10082.4,3.83759,14.1525,2.26,19.1449,1073,0,
10082.4,3.83728,14.151,2.26,19.1449,1073,0,
10082.4,3.83728,14.1525,2.26,19.1449,1073,0,
10082.4,3.83667,14.1541,2.26,19.1449,1073,0,
10082.4,3.83667,14.1541,2.26,19.1449,1073,0,
10082.4,3.83698,14.151,2.26,19.1449,1073,0,
10082.4,3.83698,14.1495,2.26,19.1449,1073,0,
10082.4,3.83667,14.1495,2.26,19.1449,1073,0,
10082.4,3.83636,14.151,2.26,19.1449,1073,0,
10082.4,3.83667,14.1495,2.26,19.1449,1073,0,
10082.4,3.83667,14.151,2.26,19.1449,1073,0,
10082.4,3.83698,14.1541,2.26,19.1449,1073,0,
10082.4,3.83667,14.1541,2.26,19.1449,1073,0,
10082.4,3.83728,14.1495,2.26,19.1449,1073,0,
10082.4,3.83667,14.1525,2.26,19.1449,1073,0,
10082.4,3.83789,14.151,2.26,19.1449,1073,0,
10082.4,3.83728,14.1556,2.26,19.1449,1073,0,
10082.4,3.83789,14.1556,2.26,19.1449,1073,0,
10082.4,3.83636,14.1541,2.26,19.1449,1073,0,
10082.4,3.83698,14.1525,2.26,19.1449,1073,0,
10082.4,3.83698,14.1556,2.26,19.1449,1073,0,
10082.4,3.83698,14.151,2.26,19.1449,1073,0,
10082.4,3.83698,14.1525,2.26,19.1449,1073,0,
10082.4,3.83484,14.1541,2.26,19.1449,1073,0,
10082.4,3.8324,14.1541,2.26,19.1449,1073,0,
10082.4,3.8324,14.1556,2.26,19.1449,1073,0,
10082.4,3.83179,14.1541,2.26,19.1449,1073,0,
10082.4,3.83209,14.151,2.26,19.1449,1073,0,
10082.4,3.83179,14.1541,2.26,19.1449,1073,0,
10082.4,3.8327,14.1525,2.26,19.1449,1073,0,
10082.4,3.83179,14.1525,2.26,19.1449,1073,0,
10082.4,3.83179,14.1525,2.26,19.1449,1073,0,
10082.4,3.8327,14.151,2.26,19.1449,1073,0,
10082.4,3.83209,14.1525,2.26,19.1449,1073,0,
10082.4,3.8324,14.1525,2.26,19.1449,1073,0,
10082.4,3.83209,14.148,2.26,19.1449,1073,0,
10082.4,3.83179,14.1541,2.26,19.1449,1073,0,
10082.4,3.8327,14.1541,2.26,19.1449,1073,0,
10082.4,3.83209,14.1525,2.26,19.1449,1073,0,
10082.4,3.83148,14.151,2.26,19.1449,1073,0,
10082.4,3.83209,14.1541,2.26,19.1449,1073,0,
10082.4,3.83209,14.1525,2.26,19.1449,1073,0,
10082.4,3.83148,14.1541,2.26,19.1449,1073,0,
10082.4,3.83179,14.1525,2.26,19.1449,1073,0,
10082.5,3.8324,14.1525,2.26,19.1449,1073,0,
10082.5,3.83209,14.151,2.26,19.1449,1073,0,
10082.5,3.83209,14.1556,2.26,19.1449,1073,0,
10082.5,3.83179,14.1556,2.26,19.1449,1073,0,
10082.5,3.83209,14.151,2.26,19.1449,1073,0,
10082.5,3.83331,14.1556,2.26,19.1449,1073,0,
10082.5,3.83179,14.1525,2.26,19.1449,1073,0,
10082.5,3.83148,14.1495,2.26,19.1449,1073,0,
10082.5,3.83179,14.1525,2.26,19.1449,1073,0,
10082.5,3.82751,14.1525,2.26,19.1449,1073,0,
10082.5,3.82721,14.1495,2.26,19.1449,1073,0,
10082.5,3.82812,14.1495,2.26,19.1449,1073,0,
10082.5,3.82721,14.151,2.26,19.1449,1073,0,
10082.5,3.82782,14.1495,2.26,19.1449,1073,0,
10082.5,3.82782,14.1525,2.26,19.1449,1073,0,
10082.5,3.82721,14.1541,2.26,19.1449,1073,0,
10082.5,3.82751,14.151,2.26,19.1449,1073,0,
10082.5,3.8269,14.1541,2.26,19.1449,1073,0,
10082.5,3.82782,14.1495,2.26,19.1449,1073,0,
10082.5,3.82721,14.1541,2.26,19.1449,1073,0,
10082.5,3.82751,14.1525,2.26,19.1449,1073,0,
10082.5,3.82812,14.1525,2.26,19.1449,1073,0,
10082.5,3.82721,14.1541,2.26,19.1449,1073,0,
10082.5,3.82721,14.151,2.26,19.1449,1073,0,
10082.5,3.8269,14.1525,2.26,19.1449,1073,0,
10082.5,3.82751,14.1541,2.26,19.1449,1073,0,
10082.5,3.82782,14.151,2.26,19.1449,1073,0,
10082.5,3.82721,14.1495,2.26,19.1449,1073,0,
10082.5,3.8269,14.1495,2.26,19.1449,1073,0,
10082.5,3.82721,14.1541,2.26,19.1449,1073,0,
10082.5,3.82751,14.1541,2.26,19.1449,1073,0,
10082.5,3.82751,14.1571,2.26,19.1449,1073,0,
10082.5,3.82721,14.1525,2.26,19.1449,1073,0,
10082.5,3.82721,14.151,2.26,19.1449,1073,0,
10082.5,3.82751,14.1541,2.26,19.1449,1073,0,
10082.5,3.8269,14.1541,2.26,19.1449,1073,0,
10082.5,3.82751,14.151,2.26,19.1449,1073,0,
10082.5,3.82751,14.1525,2.26,19.1449,1073,0,
10082.5,3.82721,14.1525,2.26,19.1449,1073,0,
10082.5,3.8266,14.151,2.26,19.1449,1073,0,
10082.5,3.82324,14.1541,2.26,19.1449,1073,0,
10082.5,3.82263,14.1541,2.26,19.1449,1073,0,
10082.5,3.82233,14.1556,2.26,19.1449,1073,0,
10082.5,3.82294,14.1525,2.26,19.1449,1073,0,
10082.5,3.82263,14.1525,2.26,19.1449,1073,0,
10082.5,3.82233,14.1541,2.26,19.1449,1073,0,
10082.5,3.82263,14.1541,2.26,19.1449,1073,0,
10082.5,3.82263,14.1541,2.26,19.1449,1073,0,
10082.5,3.82202,14.151,2.26,19.1449,1073,0,
10082.5,3.82202,14.151,2.26,19.1449,1073,0,
10082.5,3.82202,14.1525,2.26,19.1449,1073,0,
10082.6,3.82294,14.1525,2.26,19.1449,1073,0,
10082.6,3.82294,14.1525,2.26,19.1449,1073,0,
10082.6,3.82294,14.1541,2.26,19.1449,1073,0,
10082.6,3.82294,14.1556,2.26,19.1449,1073,0,
10082.6,3.82202,14.1525,2.26,19.1449,1073,0,
10082.6,3.82263,14.1556,2.26,19.1449,1073,0,
10082.6,3.82202,14.1541,2.26,19.1449,1073,0,
10082.6,3.82263,14.151,2.26,19.1449,1073,0,
10082.6,3.82233,14.1541,2.26,19.1449,1073,0,
10082.6,3.82263,14.1525,2.26,19.1449,1073,0,
10082.6,3.82233,14.151,2.26,19.1449,1073,0,
10082.6,3.82233,14.1495,2.26,19.1449,1073,0,
10082.6,3.82202,14.1525,2.26,19.1449,1073,0,
10082.6,3.82294,14.1525,2.26,19.1449,1073,0,
10082.6,3.82202,14.1541,2.26,19.1449,1073,0,
10082.6,3.82202,14.1495,2.26,19.1449,1073,0,
10082.6,3.82233,14.1525,2.26,19.1449,1073,0,
10082.6,3.82233,14.151,2.26,19.1449,1073,0,
10082.6,3.82263,14.1525,2.26,19.1449,1073,0,
10082.6,3.82233,14.1541,2.26,19.1449,1073,0,
10082.6,3.82294,14.1541,2.26,19.1449,1073,0,
10082.6,3.82233,14.1525,2.26,19.1449,1073,0,
10082.6,3.82233,14.151,2.26,19.1449,1073,0,
10082.6,3.82202,14.151,2.26,19.1449,1073,0,
10082.6,3.82202,14.1541,2.26,19.1449,1073,0,
10082.6,3.82263,14.1556,2.26,19.1449,1073,0,
10082.6,3.82202,14.1525,2.26,19.1449,1073,0,
10082.6,3.82294,14.151,2.26,19.1449,1073,0,
10082.6,3.82233,14.151,2.26,19.1449,1073,0,
10082.6,3.82263,14.1541,2.26,19.1449,1073,0,
10082.6,3.82202,14.1525,2.26,19.1449,1073,0,
10082.6,3.82233,14.1541,2.26,19.1449,1073,0,
10082.6,3.82202,14.1541,2.26,19.1449,1073,0,
10082.6,3.82263,14.1541,2.26,19.1449,1073,0,
10082.6,3.82233,14.1525,2.26,19.1449,1073,0,
10082.6,3.82324,14.1556,2.26,19.1449,1073,0,
10082.6,3.82202,14.1556,2.26,19.1449,1073,0,
10082.6,3.82202,14.1541,2.26,19.1449,1073,0,
10082.6,3.82172,14.1525,2.26,19.1449,1073,0,
10082.6,3.82202,14.151,2.26,19.1449,1073,0,
10082.6,3.82233,14.1556,2.26,19.1449,1073,0,
10082.6,3.82233,14.1525,2.26,19.1449,1073,0,
10082.6,3.82294,14.1495,2.26,19.1449,1073,0,
10082.6,3.82263,14.1556,2.26,19.1449,1073,0,
10082.6,3.82263,14.1525,2.26,19.1449,1073,0,
10082.6,3.82263,14.1525,2.26,0,1073,0,
10082.6,3.82172,14.1571,2.26,0,1073,0,
10082.6,3.82263,14.1556,2.26,0,1073,0,
10082.6,3.82324,14.1525,2.26,0,1073,0,
10082.6,3.82263,14.1525,2.26,0,1073,0,
10082.7,3.82202,14.1556,2.26,0,1073,0,
10082.7,3.82202,14.1525,2.26,0,1073,0,
10082.7,3.82263,14.1525,2.26,0,1073,0,
10082.7,3.82233,14.1525,2.26,0,1073,0,
10082.7,3.82324,14.1525,2.26,0,1073,0,
10082.7,3.82202,14.1525,2.26,0,1073,0,
10082.7,3.82233,14.1525,2.26,0,1073,0,
10082.7,3.82294,14.1541,2.26,0,1073,0,
10082.7,3.82294,14.1541,2.26,0,1073,0,
10082.7,3.82263,14.1525,2.26,0,1073,0,
10082.7,3.82233,14.151,2.26,16.93,1073,0,
10082.7,3.82202,14.1525,2.26,16.93,1073,0,
10082.7,3.82263,14.1525,2.26,5.22284,1073,0,
10082.7,3.82233,14.1541,2.26,5.22284,1073,0,
10082.7,3.82233,14.1541,2.26,5.22284,1073,0,
10082.7,3.82263,14.1556,2.26,5.22284,1073,0,
10082.7,3.82233,14.1495,2.26,5.22284,1073,0,
10082.7,3.82263,14.1525,2.26,5.22284,1073,0,
10082.7,3.82324,14.1556,2.26,5.22284,1073,0,
10082.7,3.82233,14.1525,2.26,5.22284,1073,0,
10082.7,3.82233,14.1541,2.26,5.22284,1073,0,
10082.7,3.82263,14.1541,2.26,5.22284,1073,0,
10082.7,3.82263,14.1541,2.26,5.22284,1073,0,
10082.7,3.82294,14.1541,2.26,5.22284,1073,0,
10082.7,3.82202,14.151,2.26,5.22284,1073,0,
10082.7,3.82233,14.1556,2.26,5.22284,1073,0,
10082.7,3.82233,14.1525,2.26,5.22284,1073,0,
10082.7,3.82233,14.1525,2.26,5.22284,1073,0,
10082.7,3.82324,14.1571,2.26,5.22284,1073,0,
10082.7,3.82263,14.1556,2.26,5.22284,1073,0,
10082.7,3.82202,14.1541,2.26,5.22284,1073,0,
10082.7,3.82233,14.1556,2.26,5.22284,1073,0,
10082.7,3.82233,14.1541,2.26,5.22284,1073,0,
10082.7,3.82263,14.1495,2.26,5.22284,1073,0,
10082.7,3.82202,14.1541,2.26,5.22284,1073,0,
10082.7,3.82263,14.151,2.26,5.22284,1073,0,
10082.7,3.82263,14.1525,2.26,5.22284,1073,0,
10082.7,3.82233,14.151,2.26,5.22284,1073,0,
10082.7,3.82202,14.1541,2.26,5.22284,1073,0,
10082.7,3.82324,14.1541,2.26,5.22284,1073,0,
10082.7,3.82233,14.1541,2.26,5.22284,1073,0,
10082.7,3.82233,14.1525,2.26,5.22284,1073,0,
10082.7,3.82263,14.1525,2.26,5.22284,1073,0,
10082.7,3.82263,14.151,2.26,5.22284,1073,0,
10082.7,3.82233,14.1525,2.26,5.22284,1073,0,
10082.7,3.82263,14.151,2.26,5.22284,1073,0,
10082.7,3.82263,14.1525,2.26,5.22284,1073,0,
10082.7,3.82629,14.1525,2.26,5.22284,1073,0,
10082.7,3.82721,14.1495,2.26,5.22284,1073,0,
10082.8,3.82751,14.1495,2.26,5.22284,1073,0,
10082.8,3.82782,14.1541,2.26,5.22284,1073,0,
10082.8,3.82751,14.1525,2.26,5.22284,1073,0,
10082.8,3.82751,14.151,2.26,5.22284,1073,0,
10082.8,3.8269,14.1495,2.26,5.22284,1073,0,
10082.8,3.82782,14.1525,2.26,5.22284,1073,0,
10082.8,3.82782,14.1541,2.26,5.22284,1073,0,
10082.8,3.82721,14.1525,2.26,5.22284,1073,0,
10082.8,3.82721,14.1571,2.26,5.22284,1073,0,
10082.8,3.8266,14.1541,2.26,5.22284,1073,0,
10082.8,3.82721,14.1495,2.26,5.22284,1073,0,
10082.8,3.82751,14.1541,2.26,5.22284,1073,0,
10082.8,3.82782,14.1541,2.26,5.22284,1073,0,
10082.8,3.82721,14.148,2.26,5.22284,1073,0,
10082.8,3.82721,14.1525,2.26,5.22284,1073,0,
10082.8,3.82782,14.1556,2.26,5.22284,1073,0,
10082.8,3.82751,14.1541,2.26,5.22284,1073,0,
10082.8,3.82721,14.1525,2.26,5.22284,1073,0,
10082.8,3.82721,14.1525,2.26,5.22284,1073,0,
10082.8,3.8269,14.1556,2.26,5.22284,1073,0,
10082.8,3.82721,14.1541,2.26,5.22284,1073,0,
10082.8,3.82721,14.1525,2.26,5.22284,1073,0,
10082.8,3.82751,14.1541,2.26,5.22284,1073,0,
10082.8,3.82721,14.1541,2.26,5.22284,1073,0,
10082.8,3.83179,14.1495,2.26,5.22284,1073,0,
10082.8,3.8324,14.1525,2.26,5.22284,1073,0,
10082.8,3.83209,14.1525,2.26,5.22284,1073,0,
10082.8,3.83179,14.1495,2.26,5.22284,1073,0,
10082.8,3.83209,14.1525,2.26,5.22284,1073,0,
10082.8,3.8324,14.1541,2.26,5.22284,1073,0,
10082.8,3.83209,14.151,2.26,5.22284,1073,0,
10082.8,3.83179,14.1556,2.26,5.22284,1073,0,
10082.8,3.83179,14.1541,2.26,5.22284,1073,0,
10082.8,3.83209,14.1541,2.26,5.22284,1073,0,
10082.8,3.83209,14.1541,2.26,5.22284,1073,0,
10082.8,3.83179,14.1556,2.26,5.22284,1073,0,
10082.8,3.8324,14.1541,2.26,5.22284,1073,0,
10082.8,3.83209,14.1525,2.26,5.22284,1073,0,
10082.8,3.83118,14.1434,2.26,5.22284,1073,0,
10082.8,3.83179,14.1388,2.26,5.22284,1073,0,
10082.8,3.83179,14.1434,2.26,5.22284,1073,0,
10082.8,3.83301,14.1434,2.26,5.22284,1073,0,
10082.8,3.8327,14.1388,2.26,5.22284,1073,0,
10082.8,3.83179,14.1418,2.26,5.22284,1073,0,
10082.8,3.83698,14.1434,2.26,5.22284,1073,0,
10082.8,3.83759,14.1418,2.26,5.22284,1073,0,
10082.8,3.83698,14.1403,2.26,5.22284,1073,0,
10082.8,3.83636,14.1418,2.26,5.22284,1073,0,
10082.8,3.83698,14.1418,2.26,5.22284,1073,0,
10082.8,3.83698,14.1403,2.26,5.22284,1073,0,
10082.9,3.83698,14.1418,2.26,5.22284,1073,0,
10082.9,3.83698,14.1388,2.26,5.22284,1073,0,
10082.9,3.83728,14.1388,2.26,5.22284,1073,0,
10082.9,3.83636,14.1403,2.26,5.22284,1073,0,
10082.9,3.83698,14.1403,2.26,5.22284,1073,0,
10082.9,3.83636,14.1418,2.26,5.22284,1073,0,
10082.9,3.83728,14.1388,2.26,5.22284,1073,0,
10082.9,3.83636,14.1418,2.26,5.22284,1073,0,
10082.9,3.83698,14.1434,2.26,5.22284,1073,0,
10082.9,3.83789,14.1373,2.26,5.22284,1073,0,
10082.9,3.83667,14.1418,2.26,5.22284,1073,0,
10082.9,3.8382,14.1418,2.26,5.22284,1073,0,
10082.9,3.84216,14.1388,2.26,5.22284,1073,0,
10082.9,3.84186,14.1418,2.26,5.22284,1073,0,
10082.9,3.84247,14.1388,2.26,5.22284,1073,0,
10082.9,3.84277,14.1357,2.26,5.22284,1073,0,
10082.9,3.84247,14.1388,2.26,5.22284,1073,0,
10082.9,3.84216,14.1403,2.26,5.22284,1073,0,
10082.9,3.84216,14.1403,2.26,5.22284,1073,0,
10082.9,3.84247,14.1388,2.26,5.22284,1073,0,
10082.9,3.84155,14.1388,2.26,5.22284,1073,0,
10082.9,3.84216,14.1418,2.26,5.22284,1073,0,
10082.9,3.84155,14.1434,2.26,5.22284,1073,0,
10082.9,3.84186,14.1388,2.26,5.22284,1073,0,
10082.9,3.84125,14.1403,2.26,5.22284,1073,0,
10082.9,3.84216,14.1357,2.26,5.22284,1073,0,
10082.9,3.84216,14.1418,2.26,5.22284,1073,0,
10082.9,3.84186,14.1388,2.26,5.22284,1073,0,
10082.9,3.84186,14.1418,2.26,5.22284,1073,0,
10082.9,3.84552,14.1388,2.26,5.22284,1073,0,
10082.9,3.84613,14.1357,2.26,5.22284,1073,0,
10082.9,3.84705,14.1388,2.26,5.22284,1073,0,
10082.9,3.84735,14.1434,2.26,5.22284,1073,0,
10082.9,3.84705,14.1388,2.26,5.22284,1073,0,
10082.9,3.84735,14.1388,2.26,5.22284,1073,0,
10082.9,3.84674,14.1373,2.26,5.22284,1073,0,
10082.9,3.84705,14.1357,2.26,5.22284,1073,0,
10082.9,3.84613,14.1388,2.26,5.22284,1073,0,
10082.9,3.84674,14.1403,2.26,5.22284,1073,0,
10082.9,3.84705,14.1403,2.26,5.22284,1073,0,
10082.9,3.84705,14.1388,2.26,5.22284,1073,0,
10082.9,3.84644,14.1388,2.26,5.22284,1073,0,
10082.9,3.84766,14.1403,2.26,5.22284,1073,0,
10082.9,3.84705,14.1403,2.26,5.22284,1073,0,
10082.9,3.84705,14.1434,2.26,5.22284,1073,0,
10082.9,3.84674,14.1418,2.26,5.22284,1073,0,
10082.9,3.84766,14.1388,2.26,5.22284,1073,0,
10082.9,3.85101,14.1434,2.26,5.22284,1073,0,
10082.9,3.85254,14.1403,2.26,5.22284,1073,0,
10082.9,3.85193,14.1403,2.26,5.22284,1073,0,
10083,3.85193,14.1373,2.26,5.22284,1073,0,
10083,3.85132,14.1388,2.26,5.22284,1073,0,
10083,3.85223,14.1388,2.26,5.22284,1073,0,
10083,3.85223,14.1357,2.26,5.22284,1073,0,
10083,3.85223,14.1418,2.26,5.22284,1073,0,
10083,3.85193,14.1434,2.26,5.22284,1073,0,
10083,3.85193,14.1388,2.26,5.22284,1073,0,
10083,3.85162,14.1434,2.26,5.22284,1073,0,
10083,3.85193,14.1388,2.26,5.22284,1073,0,
10083,3.85223,14.1418,2.26,5.22284,1073,0,
10083,3.85162,14.1418,2.26,5.22284,1073,0,
10083,3.85162,14.1388,2.26,5.22284,1073,0,
10083,3.85132,14.1403,2.26,5.22284,1073,0,
10083,3.85193,14.1388,2.26,5.22284,1073,0,
10083,3.85162,14.1418,2.26,5.22284,1073,0,
10083,3.85651,14.1418,2.26,5.22284,1073,0,
10083,3.85681,14.1357,2.26,5.22284,1073,0,
10083,3.85651,14.1296,2.26,5.22284,1073,0,
10083,3.85681,14.1281,2.26,5.22284,1073,0,
10083,3.85651,14.1266,2.26,5.22284,1073,0,
10083,3.85651,14.1296,2.26,5.22284,1073,0,
10083,3.85742,14.1281,2.26,5.22284,1073,0,
10083,3.8562,14.1281,2.26,5.22284,1073,0,
10083,3.85681,14.1266,2.26,5.22284,1073,0,
10083,3.8562,14.1281,2.26,5.22284,1073,0,
10083,3.85742,14.1281,2.26,5.22284,1073,0,
10083,3.85681,14.1296,2.26,5.22284,1073,0,
10083,3.85681,14.1312,2.26,5.22284,1073,0,
10083,3.85651,14.1296,2.26,5.22284,1073,0,
10083,3.85651,14.1281,2.26,5.22284,1073,0,
10083,3.85681,14.1296,2.26,5.22284,1073,0,
10083,3.85712,14.1296,2.26,5.22284,1073,0,
10083,3.85681,14.1266,2.26,5.22284,1073,0,
10083,3.86108,14.1251,2.26,5.22284,1073,0,
10083,3.86292,14.1281,2.26,5.22284,1073,0,
10083,3.86169,14.1266,2.26,5.22284,1073,0,
10083,3.8623,14.1296,2.26,5.22284,1073,0,
10083,3.8623,14.1281,2.26,5.22284,1073,0,
10083,3.86169,14.1266,2.26,5.22284,1073,0,
10083,3.86139,14.1327,2.26,5.22284,1073,0,
10083,3.86139,14.1296,2.26,5.22284,1073,0,
10083,3.86139,14.1312,2.26,5.22284,1073,0,
10083,3.86139,14.1296,2.26,5.22284,1073,0,
10083,3.86169,14.1281,2.26,5.22284,1073,0,
10083,3.86108,14.1281,2.26,5.22284,1073,0,
10083,3.86169,14.1296,2.26,5.22284,1073,0,
10083,3.86169,14.1296,2.26,5.22284,1073,0,
10083,3.86169,14.1312,2.26,5.22284,1073,0,
10083,3.86169,14.1266,2.26,5.22284,1073,0,
10083,3.86169,14.1266,2.26,5.22284,1073,0,
10083,3.86139,14.1327,2.26,5.22284,1073,0,
10083.1,3.86169,14.1312,2.26,5.22284,1073,0,
10083.1,3.86169,14.1296,2.26,5.22284,1073,0,
10083.1,3.86169,14.1266,2.26,5.22284,1073,0,
10083.1,3.86597,14.1312,2.26,5.22284,1073,0,
10083.1,3.86658,14.1281,2.26,5.22284,1073,0,
10083.1,3.86719,14.1266,2.26,5.22284,1073,0,
10083.1,3.86719,14.1266,2.26,5.22284,1073,0,
10083.1,3.86719,14.1296,2.26,5.22284,1073,0,
10083.1,3.86688,14.1296,2.26,5.22284,1073,0,
10083.1,3.86658,14.1281,2.26,5.22284,1073,0,
10083.1,3.86719,14.1296,2.26,5.22284,1073,0,
10083.1,3.86627,14.1312,2.26,5.22284,1073,0,
10083.1,3.86719,14.1281,2.26,5.22284,1073,0,
10083.1,3.86688,14.1281,2.26,5.22284,1073,0,
10083.1,3.86749,14.1281,2.26,5.22284,1073,0,
10083.1,3.86658,14.1251,2.26,5.22284,1073,0,
10083.1,3.86627,14.1296,2.26,5.22284,1073,0,
10083.1,3.86719,14.1296,2.26,5.22284,1073,0,
10083.1,3.86719,14.1296,2.26,5.22284,1073,0,
10083.1,3.86719,14.1281,2.26,5.22284,1073,0,
10083.1,3.86688,14.1296,2.26,5.22284,1073,0,
10083.1,3.86719,14.1281,2.26,5.22284,1073,0,
10083.1,3.86719,14.1266,2.26,5.22284,1073,0,
10083.1,3.86688,14.1281,2.26,5.22284,1073,0,
10083.1,3.86627,14.1266,2.26,5.22284,1073,0,
10083.1,3.86627,14.1312,2.26,5.22284,1073,0,
10083.1,3.8681,14.1266,2.26,5.22284,1073,0,
10083.1,3.87207,14.1296,2.26,5.22284,1073,0,
10083.1,3.87146,14.1159,2.26,5.22284,1073,0,
10083.1,3.87177,14.122,2.26,5.22284,1073,0,
10083.1,3.87115,14.1144,2.26,5.22284,1073,0,
10083.1,3.87115,14.1174,2.26,5.22284,1073,0,
10083.1,3.87085,14.1129,2.26,5.22284,1073,0,
10083.1,3.87115,14.1174,2.26,5.22284,1073,0,
10083.1,3.87207,14.119,2.26,5.22284,1073,0,
10083.1,3.87115,14.1174,2.26,5.22284,1073,0,
10083.1,3.87085,14.1159,2.26,5.22284,1073,0,
10083.1,3.87115,14.1174,2.26,5.22284,1073,0,
10083.1,3.87115,14.1159,2.26,5.22284,1073,0,
10083.1,3.87085,14.1159,2.26,5.22284,1073,0,
10083.1,3.87146,14.1174,2.26,5.22284,1073,0,
10083.1,3.87146,14.1159,2.26,5.22284,1073,0,
10083.1,3.87146,14.1144,2.26,5.22284,1073,0,
10083.1,3.87115,14.1174,2.26,5.22284,1073,0,
10083.1,3.87115,14.1144,2.26,5.22284,1073,0,
10083.1,3.87115,14.1205,2.26,5.22284,1073,0,
10083.1,3.87115,14.1159,2.26,5.22284,1073,0,
10083.1,3.87146,14.119,2.26,5.22284,1073,0,
10083.1,3.87146,14.1174,2.26,5.22284,1073,0,
10083.1,3.87177,14.119,2.26,5.22284,1073,0,
10083.2,3.87146,14.119,2.26,5.22284,1073,0,
10083.2,3.87115,14.1174,2.26,5.22284,1073,0,
10083.2,3.87115,14.1174,2.26,5.22284,1073,0,
10083.2,3.87146,14.1174,2.26,5.22284,1073,0,
10083.2,3.87146,14.1174,2.26,5.22284,1073,0,
10083.2,3.87085,14.1174,2.26,5.22284,1073,0,
10083.2,3.87115,14.1144,2.26,5.22284,1073,0,
10083.2,3.87054,14.1159,2.26,5.22284,1073,0,
10083.2,3.87207,14.1159,2.26,5.22284,1073,0,
10083.2,3.87146,14.1174,2.26,5.22284,1073,0,
10083.2,3.87146,14.1174,2.26,5.22284,1073,0,
10083.2,3.87573,14.122,2.26,5.22284,1073,0,
10083.2,3.87665,14.1144,2.26,5.22284,1073,0,
10083.2,3.87665,14.1174,2.26,5.22284,1073,0,
10083.2,3.87634,14.1174,2.26,5.22284,1073,0,
10083.2,3.87665,14.1144,2.26,5.22284,1073,0,
10083.2,3.87634,14.1159,2.26,5.22284,1073,0,
10083.2,3.87634,14.119,2.26,5.22284,1073,0,
10083.2,3.87695,14.119,2.26,5.22284,1073,0,
10083.2,3.87665,14.1159,2.26,5.22284,1073,0,
10083.2,3.87634,14.1144,2.26,5.22284,1073,0,
10083.2,3.87634,14.1205,2.26,5.22284,1073,0,
10083.2,3.87573,14.1174,2.26,5.22284,1073,0,
10083.2,3.87634,14.119,2.26,5.22284,1073,0,
10083.2,3.87573,14.1174,2.26,5.22284,1073,0,
10083.2,3.87695,14.1159,2.26,5.22284,1073,0,
10083.2,3.87634,14.119,2.26,5.22284,1073,0,
10083.2,3.87726,14.1174,2.26,5.22284,1073,0,
10083.2,3.87726,14.1159,2.26,5.22284,1073,0,
10083.2,3.87695,14.1174,2.26,5.22284,1073,0,
10083.2,3.87604,14.119,2.26,5.22284,1073,0,
10083.2,3.87634,14.1144,2.26,5.22284,1073,0,
10083.2,3.87695,14.1144,2.26,5.22284,1073,0,
10083.2,3.87695,14.1174,2.26,5.22284,1073,0,
10083.2,3.87634,14.1205,2.26,5.22284,1073,0,
10083.2,3.87573,14.1174,2.26,5.22284,1073,0,
10083.2,3.87634,14.119,2.26,5.22284,1073,0,
10083.2,3.87665,14.1083,2.26,5.22284,1073,0,
10083.2,3.87665,14.1037,2.26,5.22284,1073,0,
10083.2,3.87634,14.1068,2.26,5.22284,1073,0,
10083.2,3.87665,14.1052,2.26,5.22284,1073,0,
10083.2,3.87634,14.1037,2.26,5.22284,1073,0,
10083.2,3.87573,14.1022,2.26,5.22284,1073,0,
10083.2,3.87665,14.1068,2.26,5.22284,1073,0,
10083.2,3.87695,14.1052,2.26,5.22284,1073,0,
10083.2,3.87604,14.1083,2.26,5.22284,1073,0,
10083.2,3.87695,14.1068,2.26,5.22284,1073,0,
10083.2,3.87543,14.1022,2.26,5.22284,1073,0,
10083.2,3.87665,14.1006,2.26,5.22284,1073,0,
10083.2,3.87665,14.1052,2.26,5.22284,1073,0,
10083.3,3.87665,14.1052,2.26,5.22284,1073,0,
10083.3,3.87604,14.1037,2.26,5.22284,1073,0,
10083.3,3.87634,14.1068,2.26,5.22284,1073,0,
10083.3,3.87634,14.1052,2.26,5.22284,1073,0,
10083.3,3.87695,14.1068,2.26,5.22284,1073,0,
10083.3,3.87665,14.1052,2.26,5.22284,1073,0,
10083.3,3.87695,14.1068,2.26,5.22284,1073,0,
10083.3,3.87695,14.1037,2.26,5.22284,1073,0,
10083.3,3.87634,14.1068,2.26,5.22284,1073,0,
10083.3,3.87756,14.1022,2.26,5.22284,1073,0,
10083.3,3.87665,14.1052,2.26,5.22284,1073,0,
10083.3,3.87695,14.1037,2.26,5.22284,1073,0,
10083.3,3.87695,14.1052,2.26,5.22284,1073,0,
10083.3,3.87634,14.1068,2.26,5.22284,1073,0,
10083.3,3.87695,14.1083,2.26,5.22284,1073,0,
10083.3,3.87695,14.1083,2.26,5.22284,1073,0,
10083.3,3.87695,14.1052,2.26,5.22284,1073,0,
10083.3,3.87665,14.1037,2.26,5.22284,1073,0,
10083.3,3.87695,14.1022,2.26,5.22284,1073,0,
10083.3,3.87634,14.1083,2.26,5.22284,1073,0,
10083.3,3.87695,14.1037,2.26,5.22284,1073,0,
10083.3,3.87695,14.1052,2.26,5.22284,1073,0,
10083.3,3.87604,14.1037,2.26,5.22284,1073,0,
10083.3,3.87634,14.1052,2.26,5.22284,1073,0,
10083.3,3.87695,14.1052,2.26,5.22284,1073,0,
10083.3,3.87695,14.1068,2.26,5.22284,1073,0,
10083.3,3.87634,14.1037,2.26,5.22284,1073,0,
10083.3,3.87695,14.1037,2.26,5.22284,1073,0,
10083.3,3.87573,14.1022,2.26,5.22284,1073,0,
10083.3,3.87634,14.1068,2.26,5.22284,1073,0,
10083.3,3.87695,14.1052,2.26,5.22284,1073,0,
10083.3,3.87665,14.1068,2.26,5.22284,1073,0,
10083.3,3.87604,14.1037,2.26,5.22284,1073,0,
10083.3,3.87695,14.1037,2.26,5.22284,1073,0,
10083.3,3.87695,14.1083,2.26,5.22284,1073,0,
10083.3,3.87634,14.1052,2.26,5.22284,1073,0,
10083.3,3.87543,14.1052,2.26,5.22284,1073,0,
10083.3,3.87238,14.1068,2.26,5.22284,1073,0,
10083.3,3.87146,14.1068,2.26,5.22284,1073,0,
10083.3,3.87146,14.1052,2.26,5.22284,1073,0,
10083.3,3.87146,14.1022,2.26,5.22284,1073,0,
10083.3,3.87207,14.1098,2.26,5.22284,1073,0,
10083.3,3.87207,14.1022,2.26,5.22284,1073,0,
10083.3,3.87115,14.1113,2.26,5.22284,1073,0,
10083.3,3.87146,14.1052,2.26,5.22284,1073,0,
10083.3,3.87207,14.1052,2.26,5.22284,1073,0,
10083.3,3.87238,14.1052,2.26,5.22284,1073,0,
10083.3,3.87146,14.1052,2.26,5.22284,1073,0,
10083.3,3.87146,14.1068,2.26,5.22284,1073,0,
10083.4,3.87085,14.1052,2.26,5.22284,1073,0,
10083.4,3.87146,14.1052,2.26,5.22284,1073,0,
10083.4,3.87207,14.1037,2.26,5.22284,1073,0,
10083.4,3.87207,14.1052,2.26,5.22284,1073,0,
10083.4,3.87146,14.1022,2.26,5.22284,1073,0,
10083.4,3.87207,14.1068,2.26,5.22284,1073,0,
10083.4,3.87177,14.1068,2.26,5.22284,1073,0,
10083.4,3.87207,14.1052,2.26,5.22284,1073,0,
10083.4,3.87177,14.1037,2.26,5.22284,1073,0,
10083.4,3.87146,14.1022,2.26,5.22284,1073,0,
10083.4,3.87177,14.1037,2.26,5.22284,1073,0,
10083.4,3.87146,14.1068,2.26,5.22284,1073,0,
10083.4,3.87115,14.1052,2.26,5.22284,1073,0,
10083.4,3.87146,14.0884,2.26,5.22284,1073,0,
10083.4,3.87238,14.093,2.26,5.22284,1073,0,
10083.4,3.87085,14.0884,2.26,5.22284,1073,0,
10083.4,3.8678,14.0945,2.26,5.22284,1073,0,
10083.4,3.86658,14.0945,2.26,5.22284,1073,0,
10083.4,3.86627,14.0945,2.26,5.22284,1073,0,
10083.4,3.86597,14.09,2.26,5.22284,1073,0,
10083.4,3.86688,14.0945,2.26,5.22284,1073,0,
10083.4,3.86597,14.093,2.26,5.22284,1073,0,
10083.4,3.86627,14.09,2.26,5.22284,1073,0,
10083.4,3.86719,14.09,2.26,5.22284,1073,0,
10083.4,3.86658,14.0945,2.26,5.22284,1073,0,
10083.4,3.86688,14.0915,2.26,5.22284,1073,0,
10083.4,3.86719,14.0945,2.26,5.22284,1073,0,
10083.4,3.86658,14.0945,2.26,5.22284,1073,0,
10083.4,3.86627,14.0884,2.26,5.22284,1073,0,
10083.4,3.86658,14.0869,2.26,5.22284,1073,0,
10083.4,3.86658,14.0945,2.26,5.22284,1073,0,
10083.4,3.86627,14.0915,2.26,5.22284,1073,0,
10083.4,3.86627,14.093,2.26,5.22284,1073,0,
10083.4,3.86597,14.09,2.26,5.22284,1073,0,
10083.4,3.86658,14.0945,2.26,5.22284,1073,0,
10083.4,3.86688,14.093,2.26,5.22284,1073,0,
10083.4,3.86597,14.093,2.26,5.22284,1073,0,
10083.4,3.86444,14.0945,2.26,5.22284,1073,0,
10083.4,3.86169,14.093,2.26,5.22284,1073,0,
10083.4,3.86139,14.093,2.26,5.22284,1073,0,
10083.4,3.86139,14.0915,2.26,5.22284,1073,0,
10083.4,3.862,14.093,2.26,5.22284,1073,0,
10083.4,3.86108,14.0945,2.26,5.22284,1073,0,
10083.4,3.8623,14.0945,2.26,5.22284,1073,0,
10083.4,3.86139,14.0945,2.26,5.22284,1073,0,
10083.4,3.86139,14.093,2.26,5.22284,1073,0,
10083.4,3.86169,14.0915,2.26,5.22284,1073,0,
10083.4,3.86169,14.093,2.26,5.22284,1073,0,
10083.4,3.86169,14.0915,2.26,5.22284,1073,0,
10083.4,3.86169,14.0976,2.26,5.22284,1073,0,
10083.5,3.86169,14.0915,2.26,5.22284,1073,0,
10083.5,3.86108,14.093,2.26,5.22284,1073,0,
10083.5,3.86108,14.0915,2.26,5.22284,1073,0,
10083.5,3.86139,14.093,2.26,5.22284,1073,0,
10083.5,3.86169,14.093,2.26,5.22284,1073,0,
10083.5,3.86169,14.093,2.26,5.22284,1073,0,
10083.5,3.862,14.093,2.26,5.22284,1073,0,
10083.5,3.85986,14.09,2.26,5.22284,1073,0,
10083.5,3.85651,14.093,2.26,5.22284,1073,0,
10083.5,3.85651,14.093,2.26,5.22284,1073,0,
10083.5,3.85712,14.0945,2.26,5.22284,1073,0,
10083.5,3.8562,14.0915,2.26,5.22284,1073,0,
10083.5,3.85651,14.0915,2.26,5.22284,1073,0,
10083.5,3.85742,14.0915,2.26,5.22284,1073,0,
10083.5,3.85681,14.0945,2.26,5.22284,1073,0,
10083.5,3.8562,14.0915,2.26,5.22284,1073,0,
10083.5,3.85651,14.0915,2.26,5.22284,1073,0,
10083.5,3.85651,14.0945,2.26,5.22284,1073,0,
10083.5,3.85651,14.0945,2.26,5.22284,1073,0,
10083.5,3.85651,14.0884,2.26,5.22284,1073,0,
10083.5,3.85651,14.0945,2.26,5.22284,1073,0,
10083.5,3.85712,14.093,2.26,5.22284,1073,0,
10083.5,3.8562,14.0915,2.26,5.22284,1073,0,
10083.5,3.85712,14.0945,2.26,5.22284,1073,0,
10083.5,3.85712,14.0976,2.26,5.22284,1073,0,
10083.5,3.85742,14.093,2.26,5.22284,1073,0,
10083.5,3.8559,14.0884,2.26,5.22284,1073,0,
10083.5,3.85529,14.0961,2.26,5.22284,1073,0,
10083.5,3.85162,14.0976,2.26,5.22284,1073,0,
10083.5,3.85193,14.0915,2.26,5.22284,1073,0,
10083.5,3.85101,14.0915,2.26,5.22284,1073,0,
10083.5,3.85132,14.0884,2.26,5.22284,1073,0,
10083.5,3.85132,14.093,2.26,5.22284,1073,0,
10083.5,3.85254,14.0945,2.26,5.22284,1073,0,
10083.5,3.85162,14.09,2.26,5.22284,1073,0,
10083.5,3.85162,14.093,2.26,5.22284,1073,0,
10083.5,3.85193,14.0945,2.26,5.22284,1073,0,
10083.5,3.85132,14.09,2.26,5.22284,1073,0,
10083.5,3.85162,14.0915,2.26,5.22284,1073,0,
10083.5,3.85162,14.093,2.26,5.22284,1073,0,
10083.5,3.85132,14.0884,2.26,5.22284,1073,0,
10083.5,3.85162,14.0945,2.26,5.22284,1073,0,
10083.5,3.85162,14.09,2.26,5.22284,1073,0,
10083.5,3.85193,14.09,2.26,5.22284,1073,0,
10083.5,3.85193,14.0915,2.26,5.22284,1073,0,
10083.5,3.85254,14.09,2.26,5.22284,1073,0,
10083.5,3.85132,14.093,2.26,5.22284,1073,0,
10083.5,3.85132,14.093,2.26,5.22284,1073,0,
10083.5,3.84613,14.093,2.26,5.22284,1073,0,
10083.5,3.84705,14.093,2.26,5.22284,1073,0,
10083.5,3.84705,14.0915,2.26,5.22284,1073,0,
10083.6,3.84766,14.0945,2.26,5.22284,1073,0,
10083.6,3.84735,14.093,2.26,5.22284,1073,0,
10083.6,3.84674,14.0915,2.26,5.22284,1073,0,
10083.6,3.84674,14.0961,2.26,5.22284,1073,0,
10083.6,3.84674,14.093,2.26,5.22284,1073,0,
10083.6,3.84674,14.093,2.26,5.22284,1073,0,
10083.6,3.84705,14.093,2.26,5.22284,1073,0,
10083.6,3.84644,14.0915,2.26,5.22284,1073,0,
10083.6,3.84644,14.0915,2.26,5.22284,1073,0,
10083.6,3.84644,14.093,2.26,5.22284,1073,0,
10083.6,3.84766,14.093,2.26,5.22284,1073,0,
10083.6,3.84705,14.09,2.26,5.22284,1073,0,
10083.6,3.84705,14.093,2.26,5.22284,1073,0,
10083.6,3.84644,14.093,2.26,5.22284,1073,0,
10083.6,3.84735,14.0945,2.26,5.22284,1073,0,
10083.6,3.84735,14.0945,2.26,5.22284,1073,0,
10083.6,3.84644,14.0915,2.26,5.22284,1073,0,
10083.6,3.84644,14.0945,2.26,5.22284,1073,0,
10083.6,3.84766,14.0976,2.26,5.22284,1073,0,
10083.6,3.84796,14.093,2.26,5.22284,1073,0,
10083.6,3.84674,14.093,2.26,5.22284,1073,0,
10083.6,3.84247,14.0945,2.26,5.22284,1073,0,
10083.6,3.84186,14.0915,2.26,5.22284,1073,0,
10083.6,3.84277,14.093,2.26,5.22284,1073,0,
10083.6,3.84277,14.093,2.26,5.22284,1073,0,
10083.6,3.84216,14.09,2.26,5.22284,1073,0,
10083.6,3.84216,14.093,2.26,5.22284,1073,0,
10083.6,3.84247,14.0945,2.26,5.22284,1073,0,
10083.6,3.84155,14.093,2.26,5.22284,1073,0,
10083.6,3.84216,14.093,2.26,5.22284,1073,0,
10083.6,3.84186,14.0961,2.26,5.22284,1073,0,
10083.6,3.84186,14.0915,2.26,5.22284,1073,0,
10083.6,3.84186,14.0915,2.26,5.22284,1073,0,
10083.6,3.84216,14.0945,2.26,5.22284,1073,0,
10083.6,3.84186,14.093,2.26,5.22284,1073,0,
10083.6,3.84216,14.093,2.26,5.22284,1073,0,
10083.6,3.84186,14.09,2.26,5.22284,1073,0,
10083.6,3.84186,14.0915,2.26,5.22284,1073,0,
10083.6,3.84247,14.09,2.26,5.22284,1073,0,
10083.6,3.84155,14.0945,2.26,5.22284,1073,0,
10083.6,3.84125,14.0915,2.26,5.22284,1073,0,
10083.6,3.84216,14.093,2.26,5.22284,1073,0,
10083.6,3.84277,14.0915,2.26,5.22284,1073,0,
10083.6,3.84216,14.0915,2.26,5.22284,1073,0,
10083.6,3.84216,14.093,2.26,5.22284,1073,0,
10083.6,3.84155,14.09,2.26,5.22284,1073,0,
10083.6,3.84186,14.0945,2.26,5.22284,1073,0,
10083.6,3.84155,14.093,2.26,5.22284,1073,0,
10083.6,3.84186,14.09,2.26,5.22284,1073,0,
10083.6,3.84216,14.09,2.26,5.22284,1073,0,
10083.7,3.84216,14.0961,2.26,5.22284,1073,0,
10083.7,3.84186,14.093,2.26,5.22284,1073,0,
10083.7,3.84186,14.093,2.26,5.22284,1073,0,
10083.7,3.8385,14.093,2.26,5.22284,1073,0,
10083.7,3.83728,14.0915,2.26,5.22284,1073,0,
10083.7,3.83698,14.0961,2.26,5.22284,1073,0,
10083.7,3.83789,14.093,2.26,5.22284,1073,0,
10083.7,3.83545,14.0915,2.26,5.22284,1073,0,
10083.7,3.83698,14.0945,2.26,5.22284,1073,0,
10083.7,3.83728,14.0945,2.26,5.22284,1073,0,
10083.7,3.83667,14.093,2.26,5.22284,1073,0,
10083.7,3.83698,14.0915,2.26,5.22284,1073,0,
10083.7,3.83698,14.0915,2.26,5.22284,1073,0,
10083.7,3.83667,14.09,2.26,5.22284,1073,0,
10083.7,3.83698,14.0869,2.26,5.22284,1073,0,
10083.7,3.83728,14.0945,2.26,5.22284,1073,0,
10083.7,3.83698,14.09,2.26,5.22284,1073,0,
10083.7,3.83759,14.0915,2.26,5.22284,1073,0,
10083.7,3.83698,14.0945,2.26,5.22284,1073,0,
10083.7,3.83728,14.0945,2.26,5.22284,1073,0,
10083.7,3.83698,14.0945,2.26,5.22284,1073,0,
10083.7,3.83698,14.0961,2.26,5.22284,1073,0,
10083.7,3.83667,14.0915,2.26,5.22284,1073,0,
10083.7,3.83636,14.0915,2.26,5.22284,1073,0,
10083.7,3.83789,14.0945,2.26,5.22284,1073,0,
10083.7,3.83667,14.09,2.26,5.22284,1073,0,
10083.7,3.83698,14.093,2.26,5.22284,1073,0,
10083.7,3.83759,14.09,2.26,5.22284,1073,0,
10083.7,3.83667,14.0961,2.26,5.22284,1073,0,
10083.7,3.83728,14.09,2.26,5.22284,1073,0,
10083.7,3.83636,14.09,2.26,5.22284,1073,0,
10083.7,3.83667,14.093,2.26,5.22284,1073,0,
10083.7,3.83667,14.0915,2.26,5.22284,1073,0,
10083.7,3.83667,14.0915,2.26,5.22284,1073,0,
10083.7,3.83789,14.093,2.26,5.22284,1073,0,
10083.7,3.83698,14.0915,2.26,5.22284,1073,0,
10083.7,3.83667,14.09,2.26,5.22284,1073,0,
10083.7,3.83728,14.0884,2.26,5.22284,1073,0,
10083.7,3.83636,14.093,2.26,5.22284,1073,0,
10083.7,3.83698,14.09,2.26,5.22284,1073,0,
10083.7,3.83789,14.093,2.26,5.22284,1073,0,
10083.7,3.83698,14.0915,2.26,5.22284,1073,0,
10083.7,3.83698,14.09,2.26,5.22284,1073,0,
10083.7,3.83728,14.09,2.26,5.22284,1073,0,
10083.7,3.83789,14.0961,2.26,5.22284,1073,0,
10083.7,3.83698,14.093,2.26,5.22284,1073,0,
10083.7,3.83667,14.0884,2.26,5.22284,1073,0,
10083.7,3.83698,14.0915,2.26,5.22284,1073,0,
10083.7,3.83698,14.093,2.26,5.22284,1073,0,
10083.8,3.83728,14.0915,2.26,5.22284,1073,0,
10083.8,3.83728,14.0915,2.26,5.22284,1073,0,
10083.8,3.83728,14.0945,2.26,5.22284,1073,0,
10083.8,3.83759,14.0915,2.26,5.22284,1073,0,
10083.8,3.83667,14.093,2.26,5.22284,1073,0,
10083.8,3.83698,14.0915,2.26,5.22284,1073,0,
10083.8,3.83698,14.0915,2.26,5.22284,1073,0,
10083.8,3.83698,14.093,2.26,5.22284,1073,0,
10083.8,3.83636,14.0915,2.26,5.22284,1073,0,
10083.8,3.83667,14.0915,2.26,5.22284,1073,0,
10083.8,3.83698,14.0915,2.26,5.22284,1073,0,
10083.8,3.83728,14.0945,2.26,5.22284,1073,0,
10083.8,3.83667,14.0915,2.26,5.22284,1073,0,
10083.8,3.83667,14.093,2.26,5.22284,1073,0,
10083.8,3.83636,14.0915,2.26,5.22284,1073,0,
10083.8,3.83698,14.093,2.26,5.22284,1073,0,
10083.8,3.83698,14.0945,2.26,5.22284,1073,0,
10083.8,3.83759,14.0945,2.26,5.22284,1073,0,
10083.8,3.83728,14.09,2.26,5.22284,1073,0,
10083.8,3.83606,14.09,2.26,5.22284,1073,0,
10083.8,3.83667,14.0915,2.26,5.22284,1073,0,
10083.8,3.83759,14.09,2.26,5.22284,1073,0,
10083.8,3.83728,14.0945,2.26,5.22284,1073,0,
10083.8,3.83728,14.093,2.26,5.22284,1073,0,
10083.8,3.83698,14.093,2.26,5.22284,1073,0,
10083.8,3.83698,14.0915,2.26,5.22284,1073,0,
10083.8,3.83667,14.093,2.26,5.22284,1073,0,
10083.8,3.83698,14.0915,2.26,5.22284,1073,0,
10083.8,3.83728,14.0915,2.26,5.22284,1073,0,
10083.8,3.83698,14.09,2.26,5.22284,1073,0,
10083.8,3.83728,14.093,2.26,5.22284,1073,0,
10083.8,3.83728,14.093,2.26,5.22284,1073,0,
10083.8,3.83728,14.0945,2.26,5.22284,1073,0,
10083.8,3.83789,14.0945,2.26,5.22284,1073,0,
10083.8,3.83698,14.093,2.26,5.22284,1073,0,
10083.8,3.83667,14.0915,2.26,5.22284,1073,0,
10083.8,3.83728,14.0915,2.26,5.22284,1073,0,
10083.8,3.83636,14.0915,2.26,5.22284,1073,0,
10083.8,3.83667,14.093,2.26,5.22284,1073,0,
10083.8,3.83667,14.0915,2.26,5.22284,1073,0,
10083.8,3.83728,14.0915,2.26,5.22284,1073,0,
10083.8,3.83698,14.09,2.26,5.22284,1073,0,
10083.8,3.83789,14.093,2.26,5.22284,1073,0,
10083.8,3.83698,14.0915,2.26,5.22284,1073,0,
10083.8,3.83698,14.0915,2.26,5.22284,1073,0,
10083.8,3.83698,14.0945,2.26,5.22284,1073,0,
10083.8,3.83698,14.0945,2.26,5.22284,1073,0,
10083.8,3.83606,14.093,2.26,5.22284,1073,0,
10083.8,3.83698,14.09,2.26,5.22284,1073,0,
10083.8,3.83667,14.0945,2.26,5.22284,1073,0,
10083.9,3.83698,14.09,2.26,5.22284,1073,0,
10083.9,3.83728,14.0945,2.26,5.22284,1073,0,
10083.9,3.83698,14.093,2.26,5.22284,1073,0,
10083.9,3.83698,14.0945,2.26,5.22284,1073,0,
10083.9,3.83728,14.0915,2.26,5.22284,1073,0,
10083.9,3.83698,14.0945,2.26,5.22284,1073,0,
10083.9,3.83698,14.0945,2.26,5.22284,1073,0,
10083.9,3.83698,14.0915,2.26,5.22284,1073,0,
10083.9,3.83636,14.0945,2.26,5.22284,1073,0,
10083.9,3.83209,14.0915,2.26,5.22284,1073,0,
10083.9,3.83179,14.093,2.26,5.22284,1073,0,
10083.9,3.8327,14.0945,2.26,5.22284,1073,0,
10083.9,3.8327,14.0945,2.26,5.22284,1073,0,
10083.9,3.83301,14.093,2.26,5.22284,1073,0,
10083.9,3.8324,14.093,2.26,5.22284,1073,0,
10083.9,3.83209,14.0915,2.26,5.22284,1073,0,
10083.9,3.8327,14.093,2.26,5.22284,1073,0,
10083.9,3.83148,14.0915,2.26,5.22284,1073,0,
10083.9,3.8324,14.0915,2.26,5.22284,1073,0,
10083.9,3.8324,14.0915,2.26,5.22284,1073,0,
10083.9,3.8324,14.0915,2.26,5.22284,1073,0,
10083.9,3.83148,14.093,2.26,5.22284,1073,0,
10083.9,3.8324,14.0945,2.26,5.22284,1073,0,
10083.9,3.83179,14.09,2.26,5.22284,1073,0,
10083.9,3.8324,14.09,2.26,5.22284,1073,0,
10083.9,3.83209,14.093,2.26,5.22284,1073,0,
10083.9,3.83209,14.093,2.26,5.22284,1073,0,
10083.9,3.83209,14.09,2.26,5.22284,1073,0,
10083.9,3.83179,14.093,2.26,5.22284,1073,0,
10083.9,3.83148,14.0915,2.26,5.22284,1073,0,
10083.9,3.8324,14.0915,2.26,5.22284,1073,0,
10083.9,3.8324,14.0945,2.26,5.22284,1073,0,
10083.9,3.8324,14.093,2.26,5.22284,1073,0,
10083.9,3.83179,14.0915,2.26,5.22284,1073,0,
10083.9,3.83148,14.0945,2.26,5.22284,1073,0,
10083.9,3.83148,14.0945,2.26,5.22284,1073,0,
10083.9,3.83301,14.0945,2.26,5.22284,1073,0,
10083.9,3.83179,14.0869,2.26,5.22284,1073,0,
10083.9,3.83209,14.0945,2.26,5.22284,1073,0,
10083.9,3.83148,14.0915,2.26,5.22284,1073,0,
10083.9,3.83179,14.0976,2.26,5.22284,1073,0,
10083.9,3.83148,14.093,2.26,5.22284,1073,0,
10083.9,3.83209,14.0945,2.26,5.22284,1073,0,
10083.9,3.8324,14.0915,2.26,5.22284,1073,0,
10083.9,3.83179,14.0915,2.26,5.22284,1073,0,
10083.9,3.8327,14.0915,2.26,5.22284,1073,0,
10083.9,3.83209,14.0945,2.26,5.22284,1073,0,
10083.9,3.83148,14.0945,2.26,5.22284,1073,0,
10083.9,3.83179,14.0961,2.26,5.22284,1073,0,
10083.9,3.83148,14.0945,2.26,5.22284,1073,0,
10084,3.83209,14.0915,2.26,5.22284,1073,0,
10084,3.83301,14.0976,2.26,5.22284,1073,0,
10084,3.8324,14.0884,2.26,5.22284,1073,0,
10084,3.8324,14.093,2.26,5.22284,1073,0,
10084,3.8324,14.093,2.26,5.22284,1073,0,
10084,3.83148,14.09,2.26,5.22284,1073,0,
10084,3.83209,14.0945,2.26,5.22284,1073,0,
10084,3.83179,14.09,2.26,5.22284,1073,0,
10084,3.83209,14.0945,2.26,5.22284,1073,0,
10084,3.83179,14.09,2.26,5.22284,1073,0,
10084,3.8327,14.093,2.26,5.22284,1073,0,
10084,3.83179,14.093,2.26,5.22284,1073,0,
10084,3.83209,14.0945,2.26,5.22284,1073,0,
10084,3.83179,14.093,2.26,5.22284,1073,0,
10084,3.8324,14.0945,2.26,5.22284,1073,0,
10084,3.8327,14.0945,2.26,5.22284,1073,0,
10084,3.8324,14.0915,2.26,5.22284,1073,0,
10084,3.8327,14.0915,2.26,5.22284,1073,0,
10084,3.8327,14.093,2.26,5.22284,1073,0,
10084,3.83209,14.09,2.26,5.22284,1073,0,
10084,3.83179,14.0915,2.26,5.22284,1073,0,
10084,3.8324,14.0945,2.26,5.22284,1073,0,
10084,3.8324,14.093,2.26,5.22284,1073,0,
10084,3.8327,14.0915,2.26,5.22284,1073,0,
10084,3.83209,14.0915,2.26,5.22284,1073,0,
10084,3.8324,14.0945,2.26,5.22284,1073,0,
10084,3.8327,14.093,2.26,5.22284,1073,0,
10084,3.83179,14.09,2.26,5.22284,1073,0,
10084,3.83209,14.093,2.26,5.22284,1073,0,
10084,3.8324,14.0961,2.26,5.22284,1073,0,
10084,3.8324,14.0976,2.26,5.22284,1073,0,
10084,3.83148,14.093,2.26,5.22284,1073,0,
10084,3.83209,14.0945,2.26,5.22284,1073,0,
10084,3.83209,14.093,2.26,5.22284,1073,0,
10084,3.83209,14.0915,2.26,5.22284,1073,0,
10084,3.8324,14.0945,2.26,5.22284,1073,0,
10084,3.83148,14.0915,2.26,5.22284,1073,0,
10084,3.8327,14.0915,2.26,5.22284,1073,0,
10084,3.8324,14.0915,2.26,5.22284,1073,0,
10084,3.8327,14.0945,2.26,5.22284,1073,0,
10084,3.8327,14.0884,2.26,5.22284,1073,0,
10084,3.83179,14.0915,2.26,5.22284,1073,0,
10084,3.83179,14.093,2.26,5.22284,1073,0,
10084,3.83209,14.093,2.26,5.22284,1073,0,
10084,3.83301,14.0915,2.26,5.22284,1073,0,
10084,3.8324,14.093,2.26,5.22284,1073,0,
10084,3.8324,14.0976,2.26,5.22284,1073,0,
10084,3.8327,14.0945,2.26,5.22284,1073,0,
10084,3.83209,14.0915,2.26,5.22284,1073,0,
10084,3.83179,14.093,2.26,5.22284,1073,0,
10084,3.83179,14.093,2.26,5.22284,1073,0,
10084.1,3.83209,14.093,2.26,5.22284,1073,0,
10084.1,3.83209,14.093,2.26,5.22284,1073,0,
10084.1,3.83209,14.0945,2.26,5.22284,1073,0,
10084.1,3.8324,14.0884,2.26,5.22284,1073,0,
10084.1,3.83209,14.093,2.26,5.22284,1073,0,
10084.1,3.83209,14.0945,2.26,5.22284,1073,0,
10084.1,3.83179,14.0915,2.26,5.22284,1073,0,
10084.1,3.83301,14.0884,2.26,5.22284,1073,0,
10084.1,3.8324,14.093,2.26,5.22284,1073,0,
10084.1,3.8327,14.09,2.26,5.22284,1073,0,
10084.1,3.83209,14.0915,2.26,5.22284,1073,0,
10084.1,3.83148,14.0945,2.26,5.22284,1073,0,
10084.1,3.83301,14.093,2.26,5.22284,1073,0,
10084.1,3.8324,14.0945,2.26,5.22284,1073,0,
10084.1,3.83209,14.0915,2.26,5.22284,1073,0,
10084.1,3.83209,14.0915,2.26,5.22284,1073,0,
10084.1,3.83301,14.0915,2.26,5.22284,1073,0,
10084.1,3.83148,14.093,2.26,5.22284,1073,0,
10084.1,3.8324,14.093,2.26,5.22284,1073,0,
10084.1,3.8324,14.0945,2.26,5.22284,1073,0,
10084.1,3.83209,14.0976,2.26,5.22284,1073,0,
10084.1,3.8324,14.0915,2.26,5.22284,1073,0,
10084.1,3.83209,14.093,2.26,5.22284,1073,0,
10084.1,3.83301,14.0915,2.26,5.22284,1073,0,
10084.1,3.8324,14.09,2.26,5.22284,1073,0,
10084.1,3.8327,14.0945,2.26,5.22284,1073,0,
10084.1,3.8324,14.0915,2.26,5.22284,1073,0,
10084.1,3.83179,14.0945,2.26,5.22284,1073,0,
10084.1,3.8324,14.0915,2.26,5.22284,1073,0,
10084.1,3.83362,14.0945,2.26,5.22284,1073,0,
10084.1,3.8327,14.0915,2.26,5.22284,1073,0,
10084.1,3.83209,14.0915,2.26,5.22284,1073,0,
10084.1,3.8324,14.0915,2.26,5.22284,1073,0,
10084.1,3.8324,14.09,2.26,5.22284,1073,0,
10084.1,3.83301,14.093,2.26,5.22284,1073,0,
10084.1,3.83179,14.0945,2.26,5.22284,1073,0,
10084.1,3.83209,14.093,2.26,5.22284,1073,0,
10084.1,3.8327,14.0915,2.26,5.22284,1073,0,
10084.1,3.8324,14.093,2.26,5.22284,1073,0,
10084.1,3.83179,14.093,2.26,5.22284,1073,0,
10084.1,3.83179,14.0945,2.26,5.22284,1073,0,
10084.1,3.8327,14.093,2.26,5.22284,1073,0,
10084.1,3.83179,14.0915,2.26,5.22284,1073,0,
10084.1,3.8324,14.093,2.26,5.22284,1073,0,
10084.1,3.8327,14.0945,2.26,5.22284,1073,0,
10084.1,3.8324,14.0945,2.26,5.22284,1073,0,
10084.1,3.83148,14.0945,2.26,5.22284,1073,0,
10084.1,3.83209,14.0961,2.26,5.22284,1073,0,
10084.1,3.83179,14.093,2.26,5.22284,1073,0,
10084.1,3.83209,14.0961,2.26,5.22284,1073,0,
10084.2,3.83179,14.093,2.26,5.22284,1073,0,
10084.2,3.8324,14.0915,2.26,5.22284,1073,0,
10084.2,3.83179,14.093,2.26,5.22284,1073,0,
10084.2,3.83179,14.093,2.26,5.22284,1073,0,
10084.2,3.8324,14.0915,2.26,5.22284,1073,0,
10084.2,3.83179,14.093,2.26,5.22284,1073,0,
10084.2,3.8327,14.0915,2.26,5.22284,1073,0,
10084.2,3.83179,14.0945,2.26,5.22284,1073,0,
10084.2,3.83301,14.0945,2.26,5.22284,1073,0,
10084.2,3.83209,14.093,2.26,5.22284,1073,0,
10084.2,3.83209,14.093,2.26,5.22284,1073,0,
10084.2,3.83209,14.093,2.26,5.22284,1073,0,
10084.2,3.83209,14.093,2.26,5.22284,1073,0,
10084.2,3.83179,14.093,2.26,5.22284,1073,0,
10084.2,3.83209,14.0945,2.26,5.22284,1073,0,
10084.2,3.83209,14.0976,2.26,5.22284,1073,0,
10084.2,3.83209,14.09,2.26,5.22284,1073,0,
10084.2,3.83148,14.0915,2.26,5.22284,1073,0,
10084.2,3.8324,14.093,2.26,5.22284,1073,0,
10084.2,3.8324,14.0961,2.26,5.22284,1073,0,
10084.2,3.8324,14.0915,2.26,5.22284,1073,0,
10084.2,3.83209,14.09,2.26,5.22284,1073,0,
10084.2,3.8324,14.0915,2.26,5.22284,1073,0,
10084.2,3.83301,14.0915,2.26,5.22284,1073,0,
10084.2,3.8327,14.0945,2.26,5.22284,1073,0,
10084.2,3.83209,14.0961,2.26,5.22284,1073,0,
10084.2,3.83179,14.0945,2.26,5.22284,1073,0,
10084.2,3.8327,14.09,2.26,5.22284,1073,0,
10084.2,3.8327,14.0945,2.26,5.22284,1073,0,
10084.2,3.83179,14.093,2.26,5.22284,1073,0,
10084.2,3.83179,14.093,2.26,5.22284,1073,0,
10084.2,3.83209,14.093,2.26,5.22284,1073,0,
10084.2,3.83148,14.093,2.26,5.22284,1073,0,
10084.2,3.8324,14.0915,2.26,5.22284,1073,0,
10084.2,3.83179,14.0915,2.26,5.22284,1073,0,
10084.2,3.83209,14.0915,2.26,5.22284,1073,0,
10084.2,3.83179,14.0945,2.26,5.22284,1073,0,
10084.2,3.83179,14.0945,2.26,5.22284,1073,0,
10084.2,3.83301,14.093,2.26,5.22284,1073,0,
10084.2,3.8327,14.0915,2.26,5.22284,1073,0,
10084.2,3.8327,14.0945,2.26,5.22284,1073,0,
10084.2,3.83179,14.0945,2.26,5.22284,1073,0,
10084.2,3.83179,14.0915,2.26,5.22284,1073,0,
10084.2,3.83301,14.0915,2.26,5.22284,1073,0,
10084.2,3.8324,14.0884,2.26,5.22284,1073,0,
10084.2,3.8324,14.0915,2.26,5.22284,1073,0,
10084.2,3.83209,14.0915,2.26,5.22284,1073,0,
10084.2,3.83179,14.0945,2.26,5.22284,1073,0,
10084.2,3.8327,14.0945,2.26,5.22284,1073,0,
10084.2,3.83209,14.0915,2.26,5.22284,1073,0,
10084.3,3.83179,14.093,2.26,5.22284,1073,0,
10084.3,3.83209,14.093,2.26,5.22284,1073,0,
10084.3,3.8324,14.093,2.26,5.22284,1073,0,
10084.3,3.83209,14.0945,2.26,5.22284,1073,0,
10084.3,3.83209,14.09,2.26,5.22284,1073,0,
10084.3,3.83301,14.093,2.26,5.22284,1073,0,
10084.3,3.83209,14.0915,2.26,5.22284,1073,0,
10084.3,3.83209,14.0915,2.26,5.22284,1073,0,
10084.3,3.8324,14.093,2.26,5.22284,1073,0,
10084.3,3.83209,14.093,0,5.22284,1073,0,
10084.3,3.83179,14.0869,0,5.22284,1073,0,
10084.3,3.83209,14.0808,0,5.22284,1073,0,
10084.3,3.83209,14.0762,0,5.22284,1073,0,
10084.3,3.8327,14.0808,0,5.22284,1073,0,
10084.3,3.83209,14.0808,2.258,5.22284,1073,0,
10084.3,3.8324,14.0808,2.258,5.22284,1073,0,
10084.3,3.8327,14.0793,2.258,5.22284,1073,0,
10084.3,3.8324,14.0793,2.258,5.22284,1073,0,
10084.3,3.82843,14.0793,2.258,5.22284,1073,0,
10084.3,3.82812,14.0823,2.258,5.22284,1073,0,
10084.3,3.82721,14.0778,2.258,5.22284,1073,0,
10084.3,3.82751,14.0808,2.258,5.22284,1073,0,
10084.3,3.82782,14.0778,2.258,5.22284,1073,0,
10084.3,3.82751,14.0823,2.258,5.22284,1073,0,
10084.3,3.82812,14.0808,2.258,5.22284,1073,0,
10084.3,3.82782,14.0778,2.258,5.22284,1073,0,
10084.3,3.82721,14.0793,2.258,5.22284,1073,0,
10084.3,3.82812,14.0808,2.258,5.22284,1073,0,
10084.3,3.82782,14.0808,2.258,5.22284,1073,0,
10084.3,3.82721,14.0839,2.258,5.22284,1073,0,
10084.3,3.82751,14.0839,2.258,5.22284,1073,0,
10084.3,3.82751,14.0839,2.258,5.22284,1073,0,
10084.3,3.82812,14.0793,2.258,5.22284,1073,0,
10084.3,3.82751,14.0778,2.258,5.22284,1073,0,
10084.3,3.82721,14.0793,2.258,5.22284,1073,0,
10084.3,3.82782,14.0808,2.258,5.22284,1073,0,
10084.3,3.8269,14.0808,2.258,5.22284,1073,0,
10084.3,3.82782,14.0793,2.258,5.22284,1073,0,
10084.3,3.82812,14.0793,2.258,5.22284,1073,0,
10084.3,3.82751,14.0793,2.258,5.22284,1073,0,
10084.3,3.82812,14.0808,2.258,5.22284,1073,0,
10084.3,3.82782,14.0778,2.258,5.22284,1073,0,
10084.3,3.82721,14.0839,2.258,5.22284,1073,0,
10084.3,3.82751,14.0793,2.258,5.22284,1073,0,
10084.3,3.82721,14.0808,2.258,5.22284,1073,0,
10084.3,3.82782,14.0823,2.258,5.22284,1073,0,
10084.3,3.82782,14.0778,2.258,5.22284,1073,0,
10084.3,3.82721,14.0839,2.258,5.22284,1073,0,
10084.3,3.82782,14.0823,2.258,5.22284,1073,0,
10084.4,3.82751,14.0808,2.258,5.22284,1073,0,
10084.4,3.82751,14.0839,2.258,5.22284,1073,0,
10084.4,3.82751,14.0839,2.258,5.22284,1073,0,
10084.4,3.82751,14.0793,2.258,5.22284,1073,0,
10084.4,3.82751,14.0823,2.258,5.22284,1073,0,
10084.4,3.82751,14.0793,2.258,5.22284,1073,0,
10084.4,3.82782,14.0808,2.258,5.22284,1073,0,
10084.4,3.82721,14.0823,2.258,5.22284,1073,0,
10084.4,3.82782,14.0808,2.258,5.22284,1073,0,
10084.4,3.82721,14.0808,2.258,5.22284,1073,0,
10084.4,3.82751,14.0808,2.258,5.22284,1073,0,
10084.4,3.82751,14.0854,2.258,5.22284,1073,0,
10084.4,3.82721,14.0823,2.258,5.22284,1073,0,
10084.4,3.82751,14.0778,2.258,5.22284,1073,0,
10084.4,3.82782,14.0808,2.258,5.22284,1073,0,
10084.4,3.82782,14.0823,2.258,5.22284,1073,0,
10084.4,3.82721,14.0823,2.258,5.22284,1073,0,
10084.4,3.82721,14.0793,2.258,5.22284,1073,0,
10084.4,3.82812,14.0823,2.258,5.22284,1073,0,
10084.4,3.82812,14.0823,2.258,5.22284,1073,0,
10084.4,3.82843,14.0823,2.258,5.22284,1073,0,
10084.4,3.82812,14.0823,2.258,5.22284,1073,0,
10084.4,3.8269,14.0808,2.258,5.22284,1073,0,
10084.4,3.82751,14.0823,2.258,5.22284,1073,0,
10084.4,3.82751,14.0778,2.258,5.22284,1073,0,
10084.4,3.82782,14.0823,2.258,5.22284,1073,0,
10084.4,3.8269,14.0778,2.258,5.22284,1073,0,
10084.4,3.8266,14.0808,2.258,5.22284,1073,0,
10084.4,3.82751,14.0808,2.258,5.22284,1073,0,
10084.4,3.82751,14.0808,2.258,5.22284,1073,0,
10084.4,3.82751,14.0823,2.258,5.22284,1073,0,
10084.4,3.8266,14.0778,2.258,5.22284,1073,0,
10084.4,3.82721,14.0793,2.258,5.22284,1073,0,
10084.4,3.82812,14.0823,2.258,5.22284,1073,0,
10084.4,3.82843,14.0793,2.258,5.22284,1073,0,
10084.4,3.82721,14.0808,2.258,5.22284,1073,0,
10084.4,3.82751,14.0808,2.258,5.22284,1073,0,
10084.4,3.82721,14.0793,2.258,5.22284,1073,0,
10084.4,3.82782,14.0793,2.258,5.22284,1073,0,
10084.4,3.82812,14.0793,2.258,5.22284,1073,0,
10084.4,3.82721,14.0808,2.258,5.22284,1073,0,
10084.4,3.82721,14.0808,2.258,5.22284,1073,0,
10084.4,3.8266,14.0793,2.258,5.22284,1073,0,
10084.4,3.82751,14.0793,2.258,5.22284,1073,0,
10084.4,3.8269,14.0808,2.258,5.22284,1073,0,
10084.4,3.82721,14.0793,2.258,5.22284,1073,0,
10084.4,3.82751,14.0808,2.258,5.22284,1073,0,
10084.4,3.82721,14.0839,2.258,5.22284,1073,0,
10084.4,3.8269,14.0793,2.258,5.22284,1073,0,
10084.4,3.82751,14.0778,2.258,5.22284,1073,0,
10084.5,3.82782,14.0854,2.258,5.22284,1073,0,
10084.5,3.82721,14.0808,2.258,5.22284,1073,0,
10084.5,3.82751,14.0839,2.258,5.22284,1073,0,
10084.5,3.8269,14.0762,2.258,5.22284,1073,0,
10084.5,3.82812,14.0854,2.258,5.22284,1073,0,
10084.5,3.82721,14.0793,2.258,5.22284,1073,0,
10084.5,3.82782,14.0808,2.258,5.22284,1073,0,
10084.5,3.82751,14.0823,2.258,5.22284,1073,0,
10084.5,3.82721,14.0808,2.258,5.22284,1073,0,
10084.5,3.82782,14.0808,2.258,5.22284,1073,0,
10084.5,3.82721,14.0808,2.258,5.22284,1073,0,
10084.5,3.8269,14.0808,2.258,5.22284,1073,0,
10084.5,3.82812,14.0793,2.258,5.22284,1073,0,
10084.5,3.82721,14.0793,2.258,5.22284,1073,0,
10084.5,3.82751,14.0854,2.258,5.22284,1073,0,
10084.5,3.82721,14.0808,2.258,5.22284,1073,0,
10084.5,3.82782,14.0839,2.258,5.22284,1073,0,
10084.5,3.82721,14.0823,2.258,5.22284,1073,0,
10084.5,3.8266,14.0808,2.258,5.22284,1073,0,
10084.5,3.82782,14.0808,2.258,5.22284,1073,0,
10084.5,3.82751,14.0808,2.258,5.22284,1073,0,
10084.5,3.82721,14.0839,2.258,5.22284,1073,0,
10084.5,3.82751,14.0808,2.258,5.22284,1073,0,
10084.5,3.8324,14.0823,2.258,5.22284,1073,0,
10084.5,3.8327,14.0808,2.258,5.22284,1073,0,
10084.5,3.83301,14.0686,2.258,5.22284,1073,0,
10084.5,3.8324,14.0717,2.258,5.22284,1073,0,
10084.5,3.83209,14.0701,2.258,5.22284,1073,0,
10084.5,3.8327,14.0656,2.258,5.22284,1073,0,
10084.5,3.8324,14.0686,2.258,5.22284,1073,0,
10084.5,3.83209,14.0686,2.258,5.22284,1073,0,
10084.5,3.83209,14.0701,2.258,5.22284,1073,0,
10084.5,3.83179,14.0671,2.258,5.22284,1073,0,
10084.5,3.83209,14.0686,2.258,5.22284,1073,0,
10084.5,3.8324,14.0671,2.258,5.22284,1073,0,
10084.5,3.83209,14.0701,2.258,5.22284,1073,0,
10084.5,3.83179,14.0701,2.258,5.22284,1073,0,
10084.5,3.83209,14.0701,2.258,5.22284,1073,0,
10084.5,3.83209,14.0686,2.258,5.22284,1073,0,
10084.5,3.83179,14.0686,2.258,5.22284,1073,0,
10084.5,3.83118,14.0701,2.258,5.22284,1073,0,
10084.5,3.8324,14.0671,2.258,5.22284,1073,0,
10084.5,3.83209,14.0732,2.258,5.22284,1073,0,
10084.5,3.83209,14.0701,2.258,5.22284,1073,0,
10084.5,3.83301,14.0701,2.258,5.22284,1073,0,
10084.5,3.83209,14.0671,2.258,5.22284,1073,0,
10084.5,3.83179,14.0671,2.258,5.22284,1073,0,
10084.5,3.8327,14.0701,2.258,5.22284,1073,0,
10084.5,3.8324,14.0701,2.258,5.22284,1073,0,
10084.5,3.83209,14.0671,2.258,5.22284,1073,0,
10084.5,3.83209,14.0701,2.258,5.22284,1073,0,
10084.6,3.83179,14.0686,2.258,5.22284,1073,0,
10084.6,3.83209,14.0656,2.258,5.22284,1073,0,
10084.6,3.83209,14.0686,2.258,5.22284,1073,0,
10084.6,3.8324,14.0701,2.258,5.22284,1073,0,
10084.6,3.8324,14.0671,2.258,5.22284,1073,0,
10084.6,3.83148,14.0701,2.258,5.22284,1073,0,
10084.6,3.83209,14.0671,2.258,5.22284,1073,0,
10084.6,3.83514,14.0701,2.258,5.22284,1073,0,
10084.6,3.83698,14.0671,2.258,5.22284,1073,0,
10084.6,3.83728,14.0671,2.258,5.22284,1073,0,
10084.6,3.83728,14.0686,2.258,5.22284,1073,0,
10084.6,3.83667,14.0701,2.258,5.22284,1073,0,
10084.6,3.83728,14.0686,2.258,5.22284,1073,0,
10084.6,3.83667,14.0701,2.258,5.22284,1073,0,
10084.6,3.83789,14.0701,2.258,5.22284,1073,0,
10084.6,3.83667,14.0671,2.258,5.22284,1073,0,
10084.6,3.83667,14.0686,2.258,5.22284,1073,0,
10084.6,3.83728,14.0671,2.258,5.22284,1073,0,
10084.6,3.83759,14.0671,2.258,5.22284,1073,0,
10084.6,3.83698,14.0671,2.258,5.22284,1073,0,
10084.6,3.83698,14.0686,2.258,5.22284,1073,0,
10084.6,3.83667,14.0686,2.258,5.22284,1073,0,
10084.6,3.83667,14.0671,2.258,5.22284,1073,0,
10084.6,3.83728,14.0686,2.258,5.22284,1073,0,
10084.6,3.83728,14.0671,2.258,5.22284,1073,0,
10084.6,3.83698,14.0701,2.258,5.22284,1073,0,
10084.6,3.83667,14.0671,2.258,5.22284,1073,0,
10084.6,3.84033,14.0671,2.258,5.22284,1073,0,
10084.6,3.84155,14.0686,2.258,5.22284,1073,0,
10084.6,3.84247,14.0717,2.258,5.22284,1073,0,
10084.6,3.84186,14.0686,2.258,5.22284,1073,0,
