1800-SECPT.acq
2 msec/sample
6 channels
RSP, X, RSPEC-R
Volts
EDA, Y, PPGED-R
microsiemens
ECG R-R
Seconds
Respiration Rate
BPM
C7 - EDR
Peaks
C14 - Control
Volts
min,CH1,CH14,CH40,CH42,CH47,CH54,
,65966,65966,65966,65966,65966,65966,
105.762,4.94446,0.531007,0.596,18.2815,76,0,
105.762,4.94476,0.534059,0.596,18.2815,76,0,
105.762,4.94415,0.527955,0.596,18.2815,76,0,
105.762,4.94476,0.531007,0.596,18.2815,76,0,
105.762,4.94537,0.531007,0.596,18.2815,76,0,
105.762,4.94507,0.532533,0.596,18.2815,76,0,
105.762,4.94507,0.527955,0.596,18.2815,76,0,
105.762,4.94537,0.531007,0.596,18.2815,76,0,
105.762,4.94507,0.529481,0.596,18.2815,76,0,
105.762,4.94415,0.532533,0.596,18.2815,76,0,
105.762,4.94476,0.532533,0.596,18.2815,76,0,
105.762,4.94476,0.531007,0.596,18.2815,76,0,
105.762,4.94446,0.529481,0.596,18.2815,76,0,
105.762,4.93988,0.532533,0.596,18.2815,76,0,
105.762,4.93927,0.532533,0.596,18.2815,76,0,
105.762,4.93927,0.532533,0.596,18.2815,76,0,
105.762,4.93958,0.527955,0.596,18.2815,76,0,
105.762,4.94019,0.531007,0.596,18.2815,76,0,
105.762,4.94019,0.531007,0.596,18.2815,76,0,
105.762,4.93958,0.529481,0.596,18.2815,76,0,
105.762,4.93988,0.527955,0.596,18.2815,76,0,
105.762,4.93958,0.531007,0.596,18.2815,76,0,
105.762,4.94049,0.529481,0.596,18.2815,76,0,
105.762,4.94019,0.531007,0.596,18.2815,76,0,
105.763,4.94019,0.529481,0.596,18.2815,76,0,
105.763,4.93958,0.532533,0.596,18.2815,76,0,
105.763,4.93988,0.529481,0.596,18.2815,76,0,
105.763,4.93469,0.529481,0.596,18.2815,76,0,
105.763,4.9353,0.529481,0.596,18.2815,76,0,
105.763,4.935,0.527955,0.596,18.2815,76,0,
105.763,4.935,0.529481,0.596,18.2815,76,0,
105.763,4.935,0.531007,0.596,18.2815,76,0,
105.763,4.93439,0.531007,0.596,18.2815,76,0,
105.763,4.93561,0.532533,0.596,18.2815,76,0,
105.763,4.935,0.535584,0.596,18.2815,76,0,
105.763,4.93561,0.529481,0.596,18.2815,76,0,
105.763,4.935,0.531007,0.596,18.2815,76,0,
105.763,4.93469,0.529481,0.596,18.2815,76,0,
105.763,4.935,0.532533,0.596,18.2815,76,0,
105.763,4.93469,0.529481,0.596,18.2815,76,0,
105.763,4.93073,0.531007,0.596,18.2815,76,0,
105.763,4.92981,0.527955,0.596,18.2815,76,0,
105.763,4.93011,0.529481,0.596,18.2815,76,0,
105.763,4.93042,0.535584,0.596,18.2815,76,0,
105.763,4.9292,0.532533,0.596,18.2815,76,0,
105.763,4.92981,0.534059,0.596,18.2815,76,0,
105.763,4.92981,0.531007,0.596,18.2815,76,0,
105.763,4.93011,0.531007,0.596,18.2815,76,0,
105.763,4.9295,0.529481,0.596,18.2815,76,0,
105.763,4.93073,0.531007,0.596,18.2815,76,0,
105.763,4.93073,0.532533,0.596,18.2815,76,0,
105.763,4.92981,0.534059,0.596,18.2815,76,0,
105.763,4.9295,0.529481,0.596,18.2815,76,0,
105.763,4.92615,0.531007,0.596,18.2815,76,0,
105.763,4.92554,0.526429,0.596,18.2815,76,0,
105.764,4.92493,0.529481,0.596,18.2815,76,0,
105.764,4.92523,0.531007,0.596,18.2815,76,0,
105.764,4.92523,0.532533,0.596,18.2815,76,0,
105.764,4.92523,0.529481,0.596,18.2815,76,0,
105.764,4.92493,0.529481,0.596,18.2815,76,0,
105.764,4.92493,0.532533,0.596,18.2815,76,0,
105.764,4.92493,0.534059,0.596,18.2815,76,0,
105.764,4.92462,0.529481,0.596,18.2815,76,0,
105.764,4.92432,0.527955,0.596,18.2815,76,0,
105.764,4.92523,0.532533,0.596,18.2815,76,0,
105.764,4.92554,0.532533,0.596,18.2815,76,0,
105.764,4.92493,0.531007,0.596,18.2815,76,0,
105.764,4.91943,0.529481,0.596,18.2815,76,0,
105.764,4.91974,0.527955,0.596,18.2815,76,0,
105.764,4.92126,0.531007,0.596,18.2815,76,0,
105.764,4.92035,0.532533,0.596,18.2815,76,0,
105.764,4.91974,0.531007,0.596,18.2815,76,0,
105.764,4.92065,0.532533,0.596,18.2815,76,0,
105.764,4.92004,0.531007,0.596,18.2815,76,0,
105.764,4.91943,0.532533,0.596,18.2815,76,0,
105.764,4.92065,0.534059,0.596,18.2815,76,0,
105.764,4.92004,0.531007,0.596,18.2815,76,0,
105.764,4.91943,0.531007,0.596,18.2815,76,0,
105.764,4.91974,0.527955,0.596,18.2815,76,0,
105.764,4.91943,0.529481,0.596,18.2815,76,0,
105.764,4.92004,0.531007,0.596,18.2815,76,0,
105.764,4.91882,0.529481,0.596,18.2815,76,0,
105.764,4.91486,0.529481,0.596,18.2815,76,0,
105.764,4.91547,0.532533,0.596,18.2815,76,0,
105.764,4.91516,0.531007,0.596,18.2815,76,0,
105.765,4.91547,0.531007,0.596,18.2815,76,0,
105.765,4.91577,0.529481,0.596,18.2815,76,0,
105.765,4.91516,0.534059,0.596,18.2815,76,0,
105.765,4.91516,0.531007,0.596,18.2815,76,0,
105.765,4.91516,0.532533,0.596,18.2815,76,0,
105.765,4.91516,0.529481,0.596,18.2815,76,0,
105.765,4.91516,0.532533,0.596,18.2815,76,0,
105.765,4.91577,0.529481,0.596,18.2815,76,0,
105.765,4.91516,0.531007,0.596,18.2815,76,0,
105.765,4.91547,0.532533,0.596,18.2815,76,0,
105.765,4.91516,0.531007,0.596,18.2815,76,0,
105.765,4.91547,0.529481,0.596,18.2815,76,0,
105.765,4.91577,0.532533,0.596,18.2815,76,0,
105.765,4.9115,0.529481,0.596,18.2815,76,0,
105.765,4.91058,0.529481,0.596,18.2815,76,0,
105.765,4.91028,0.531007,0.596,18.2815,76,0,
105.765,4.90997,0.529481,0.596,18.2815,76,0,
105.765,4.90997,0.527955,0.596,18.2815,76,0,
105.765,4.91028,0.531007,0.596,18.2815,76,0,
105.765,4.90967,0.531007,0.596,18.2815,76,0,
105.765,4.91058,0.531007,0.596,18.2815,76,0,
105.765,4.91058,0.531007,0.596,18.2815,76,0,
105.765,4.91058,0.527955,0.596,18.2815,76,0,
105.765,4.91028,0.529481,0.596,18.2815,76,0,
105.765,4.91089,0.532533,0.596,18.2815,76,0,
105.765,4.91028,0.532533,0.596,18.2815,76,0,
105.765,4.91058,0.529481,0.596,18.2815,76,0,
105.765,4.91028,0.527955,0.596,18.2815,76,0,
105.765,4.91058,0.531007,0.596,18.2815,76,0,
105.766,4.90662,0.529481,0.596,18.2815,76,0,
105.766,4.9054,0.529481,0.596,18.2815,76,0,
105.766,4.9054,0.527955,0.596,18.2815,76,0,
105.766,4.9054,0.531007,0.596,18.2815,76,0,
105.766,4.9054,0.529481,0.596,18.2815,76,0,
105.766,4.9057,0.532533,0.596,18.2815,76,0,
105.766,4.9054,0.529481,0.596,18.2815,76,0,
105.766,4.90601,0.531007,0.596,18.2815,76,0,
105.766,4.9054,0.532533,0.596,18.2815,76,0,
105.766,4.90631,0.527955,0.596,18.2815,76,0,
105.766,4.90601,0.532533,0.596,18.2815,76,0,
105.766,4.90601,0.529481,0.596,18.2815,76,0,
105.766,4.9057,0.531007,0.596,18.2815,76,0,
105.766,4.90479,0.527955,0.596,18.2815,76,0,
105.766,4.90234,0.529481,0.596,18.2815,76,0,
105.766,4.90021,0.532533,0.596,18.2815,76,0,
105.766,4.90051,0.531007,0.596,18.2815,76,0,
105.766,4.90082,0.532533,0.596,18.2815,76,0,
105.766,4.90021,0.529481,0.596,18.2815,76,0,
105.766,4.90051,0.531007,0.596,18.2815,76,0,
105.766,4.90112,0.531007,0.596,18.2815,76,0,
105.766,4.90051,0.529481,0.596,18.2815,76,0,
105.766,4.90051,0.532533,0.596,18.2815,76,0,
105.766,4.90143,0.531007,0.596,18.2815,76,0,
105.766,4.90051,0.531007,0.596,18.2815,76,0,
105.766,4.90021,0.531007,0.596,18.2815,76,0,
105.766,4.89899,0.529481,0.596,18.2815,76,0,
105.766,4.89594,0.532533,0.596,18.2815,76,0,
105.766,4.89624,0.529481,0.596,18.2815,76,0,
105.766,4.89563,0.529481,0.596,18.2815,76,0,
105.766,4.89563,0.532533,0.596,18.2815,76,0,
105.767,4.89594,0.531007,0.596,18.2815,76,0,
105.767,4.89502,0.531007,0.596,18.2815,76,0,
105.767,4.89563,0.532533,0.596,18.2815,76,0,
105.767,4.89502,0.529481,0.596,18.2815,76,0,
105.767,4.89502,0.531007,0.596,18.2815,76,0,
105.767,4.89563,0.531007,0.596,18.2815,76,0,
105.767,4.89075,0.531007,0.596,18.2815,76,0,
105.767,4.89105,0.531007,0.596,18.2815,76,0,
105.767,4.89075,0.534059,0.596,18.2815,76,0,
105.767,4.89044,0.532533,0.596,18.2815,76,0,
105.767,4.89075,0.531007,0.596,18.2815,76,0,
105.767,4.89044,0.534059,0.596,18.2815,76,0,
105.767,4.89044,0.531007,0.596,18.2815,76,0,
105.767,4.89044,0.529481,0.596,18.2815,76,0,
105.767,4.89075,0.532533,0.596,18.2815,76,0,
105.767,4.88586,0.529481,0.596,18.2815,76,0,
105.767,4.88617,0.531007,0.596,18.2815,76,0,
105.767,4.88586,0.531007,0.596,18.2815,76,0,
105.767,4.88617,0.529481,0.596,18.2815,76,0,
105.767,4.88586,0.531007,0.596,18.2815,76,0,
105.767,4.88586,0.532533,0.596,18.2815,76,0,
105.767,4.88556,0.527955,0.596,18.2815,76,0,
105.767,4.88586,0.534059,0.596,18.2815,76,0,
105.767,4.88129,0.532533,0.596,18.2815,76,0,
105.767,4.88129,0.532533,0.596,18.2815,76,0,
105.767,4.88129,0.529481,0.596,18.2815,76,0,
105.767,4.88068,0.527955,0.596,18.2815,76,0,
105.767,4.88098,0.529481,0.596,18.2815,76,0,
105.767,4.88098,0.531007,0.596,18.2815,76,0,
105.767,4.88098,0.529481,0.596,18.2815,76,0,
105.768,4.87701,0.531007,0.596,18.2815,76,0,
105.768,4.8764,0.531007,0.596,18.2815,76,0,
105.768,4.8764,0.532533,0.596,18.2815,76,0,
105.768,4.87671,0.529481,0.596,18.2815,76,0,
105.768,4.87671,0.529481,0.596,18.2815,76,0,
105.768,4.8764,0.531007,0.596,18.2815,76,0,
105.768,4.87671,0.527955,0.596,18.2815,76,0,
105.768,4.87305,0.527955,0.596,18.2815,76,0,
105.768,4.87152,0.532533,0.596,18.2815,76,0,
105.768,4.87152,0.529481,0.596,18.2815,76,0,
105.768,4.87183,0.531007,0.596,18.2815,76,0,
105.768,4.87183,0.532533,0.596,18.2815,76,0,
105.768,4.87122,0.529481,0.596,18.2815,76,0,
105.768,4.87091,0.531007,0.596,18.2815,76,0,
105.768,4.86633,0.529481,0.596,18.2815,76,0,
105.768,4.86572,0.531007,0.596,18.2815,76,0,
105.768,4.86603,0.532533,0.596,18.2815,76,0,
105.768,4.86603,0.531007,0.596,18.2815,76,0,
105.768,4.86603,0.531007,0.596,18.2815,76,0,
105.768,4.86603,0.529481,0.596,18.2815,76,0,
105.768,4.86145,0.532533,0.596,18.2815,76,0,
105.768,4.86084,0.531007,0.596,18.2815,76,0,
105.768,4.86176,0.531007,0.596,18.2815,76,0,
105.768,4.86115,0.529481,0.596,18.2815,76,0,
105.768,4.86084,0.532533,0.596,18.2815,76,0,
105.768,4.86145,0.532533,0.596,18.2815,76,0,
105.768,4.85626,0.526429,0.596,18.2815,76,0,
105.768,4.85657,0.529481,0.596,18.2815,76,0,
105.768,4.85657,0.532533,0.596,18.2815,76,0,
105.769,4.85626,0.532533,0.596,18.2815,76,0,
105.769,4.85657,0.529481,0.596,18.2815,76,0,
105.769,4.85687,0.532533,0.596,18.2815,76,0,
105.769,4.85199,0.529481,0.596,18.2815,76,0,
105.769,4.85107,0.531007,0.596,18.2815,76,0,
105.769,4.85138,0.532533,0.596,18.2815,76,0,
105.769,4.85138,0.529481,0.596,18.2815,76,0,
105.769,4.85199,0.531007,0.596,18.2815,76,0,
105.769,4.84772,0.529481,0.596,18.2815,76,0,
105.769,4.8468,0.529481,0.596,18.2815,76,0,
105.769,4.8465,0.532533,0.596,18.2815,76,0,
105.769,4.8468,0.532533,0.596,18.2815,76,0,
105.769,4.8465,0.531007,0.596,18.2815,76,0,
105.769,4.84467,0.532533,0.596,18.2815,76,0,
105.769,4.84192,0.532533,0.596,18.2815,76,0,
105.769,4.84192,0.532533,0.596,18.2815,76,0,
105.769,4.84161,0.532533,0.596,18.2815,76,0,
105.769,4.84222,0.529481,0.596,18.2815,76,0,
105.769,4.84222,0.529481,0.596,18.2815,76,0,
105.769,4.83704,0.534059,0.596,18.2815,76,0,
105.769,4.83643,0.531007,0.596,18.2815,76,0,
105.769,4.83673,0.529481,0.596,18.2815,76,0,
105.769,4.83734,0.529481,0.596,18.2815,76,0,
105.769,4.83673,0.529481,0.596,18.2815,76,0,
105.769,4.83215,0.531007,0.596,18.2815,76,0,
105.769,4.83185,0.529481,0.596,18.2815,76,0,
105.769,4.83185,0.534059,0.596,18.2815,76,0,
105.769,4.83215,0.531007,0.596,18.2815,76,0,
105.769,4.83063,0.532533,0.596,18.2815,76,0,
105.769,4.82666,0.534059,0.596,18.2815,76,0,
105.769,4.82697,0.531007,0.596,18.2815,76,0,
105.77,4.82666,0.527955,0.596,18.2815,76,0,
105.77,4.82666,0.531007,0.596,18.2815,76,0,
105.77,4.8233,0.532533,0.596,18.2815,76,0,
105.77,4.82178,0.529481,0.596,18.2815,76,0,
105.77,4.82208,0.531007,0.596,18.2815,76,0,
105.77,4.82208,0.529481,0.596,18.2815,76,0,
105.77,4.82208,0.532533,0.596,18.2815,76,0,
105.77,4.8175,0.524903,0.596,18.2815,76,0,
105.77,4.81689,0.532533,0.596,18.2815,76,0,
105.77,4.8172,0.532533,0.596,18.2815,76,0,
105.77,4.81812,0.529481,0.596,18.2815,76,0,
105.77,4.81323,0.532533,0.596,18.2815,76,0,
105.77,4.81232,0.532533,0.596,18.2815,76,0,
105.77,4.81232,0.534059,0.596,18.2815,76,0,
105.77,4.81232,0.529481,0.596,18.2815,76,0,
105.77,4.81232,0.531007,0.596,18.2815,76,0,
105.77,4.80713,0.531007,0.596,18.2815,76,0,
105.77,4.80774,0.526429,0.596,18.2815,76,0,
105.77,4.80804,0.532533,0.596,18.2815,76,0,
105.77,4.80804,0.529481,0.596,18.2815,76,0,
105.77,4.80286,0.529481,0.596,18.2815,76,0,
105.77,4.80164,0.529481,0.596,18.2815,76,0,
105.77,4.80164,0.529481,0.596,18.2815,76,0,
105.77,4.80255,0.532533,0.596,18.2815,76,0,
105.77,4.79858,0.531007,0.596,18.2815,76,0,
105.77,4.79858,0.529481,0.596,18.2815,76,0,
105.77,4.79767,0.529481,0.596,18.2815,76,0,
105.77,4.79767,0.534059,0.596,18.2815,76,0,
105.77,4.79584,0.529481,0.596,18.2815,76,0,
105.77,4.79279,0.532533,0.596,18.2815,76,0,
105.771,4.79279,0.527955,0.596,18.2815,76,0,
105.771,4.79218,0.529481,0.596,18.2815,76,0,
105.771,4.79126,0.529481,0.596,18.2815,76,0,
105.771,4.7879,0.529481,0.596,18.2815,76,0,
105.771,4.7879,0.531007,0.596,18.2815,76,0,
105.771,4.7876,0.531007,0.596,18.2815,76,0,
105.771,4.78668,0.529481,0.596,18.2815,76,0,
105.771,4.78271,0.529481,0.596,18.2815,76,0,
105.771,4.78302,0.532533,0.596,18.2815,76,0,
105.771,4.78271,0.529481,0.596,18.2815,76,0,
105.771,4.78119,0.532533,0.596,18.2815,76,0,
105.771,4.77844,0.531007,0.596,18.2815,76,0,
105.771,4.77814,0.529481,0.596,18.2815,76,0,
105.771,4.77814,0.532533,0.596,18.2815,76,0,
105.771,4.776,0.532533,0.596,18.2815,76,0,
105.771,4.77295,0.531007,0.596,18.2815,76,0,
105.771,4.77295,0.527955,0.596,18.2815,76,0,
105.771,4.77325,0.529481,0.596,18.2815,76,0,
105.771,4.76929,0.529481,0.596,18.2815,76,0,
105.771,4.76776,0.529481,0.596,18.2815,76,0,
105.771,4.76868,0.532533,0.596,18.2815,76,0,
105.771,4.76807,0.529481,0.596,18.2815,76,0,
105.771,4.76379,0.532533,0.596,18.2815,76,0,
105.771,4.76318,0.531007,0.596,18.2815,76,0,
105.771,4.76349,0.534059,0.596,18.2815,76,0,
105.771,4.76318,0.527955,0.596,18.2815,76,0,
105.771,4.7583,0.531007,0.596,18.2815,76,0,
105.771,4.75861,0.529481,0.596,18.2815,76,0,
105.771,4.75891,0.531007,0.596,18.2815,76,0,
105.772,4.75494,0.534059,0.596,18.2815,76,0,
105.772,4.75372,0.531007,0.596,18.2815,76,0,
105.772,4.75281,0.529481,0.596,18.2815,76,0,
105.772,4.75342,0.532533,0.596,18.2815,76,0,
105.772,4.74915,0.531007,0.596,18.2815,76,0,
105.772,4.74884,0.532533,0.596,18.2815,76,0,
105.772,4.74792,0.527955,0.596,18.2815,76,0,
105.772,4.74518,0.534059,0.596,18.2815,76,0,
105.772,4.74365,0.529481,0.596,18.2815,76,0,
105.772,4.74457,0.532533,0.596,18.2815,76,0,
105.772,4.74182,0.529481,0.596,18.2815,76,0,
105.772,4.73907,0.531007,0.596,18.2815,76,0,
105.772,4.73877,0.531007,0.596,18.2815,76,0,
105.772,4.73877,0.529481,0.596,18.2815,76,0,
105.772,4.73419,0.532533,0.596,18.2815,76,0,
105.772,4.7348,0.527955,0.596,18.2815,76,0,
105.772,4.73419,0.529481,0.596,18.2815,76,0,
105.772,4.72931,0.527955,0.596,18.2815,76,0,
105.772,4.729,0.531007,0.596,18.2815,76,0,
105.772,4.72961,0.532533,0.596,18.2815,76,0,
105.772,4.72504,0.527955,0.596,18.2815,76,0,
105.772,4.72443,0.532533,0.596,18.2815,76,0,
105.772,4.72412,0.529481,0.596,18.2815,76,0,
105.772,4.72076,0.531007,0.596,18.2815,76,0,
105.772,4.71893,0.532533,0.596,18.2815,76,0,
105.772,4.71893,0.531007,0.596,18.2815,76,0,
105.772,4.71771,0.531007,0.596,18.2815,76,0,
105.772,4.71436,0.526429,0.596,18.2815,76,0,
105.772,4.71436,0.531007,0.596,18.2815,76,0,
105.772,4.71283,0.532533,0.596,18.2815,76,0,
105.772,4.70978,0.527955,0.596,18.2815,76,0,
105.773,4.70978,0.531007,0.596,18.2815,76,0,
105.773,4.70825,0.529481,0.596,18.2815,76,0,
105.773,4.70459,0.529481,0.596,18.2815,76,0,
105.773,4.7049,0.529481,0.596,18.2815,76,0,
105.773,4.70276,0.529481,0.596,18.2815,76,0,
105.773,4.69971,0.527955,0.596,18.2815,76,0,
105.773,4.70001,0.529481,0.596,18.2815,76,0,
105.773,4.69513,0.531007,0.596,18.2815,76,0,
105.773,4.69452,0.531007,0.596,18.2815,76,0,
105.773,4.69452,0.527955,0.596,18.2815,76,0,
105.773,4.68994,0.529481,0.596,18.2815,76,0,
105.773,4.68964,0.531007,0.596,18.2815,76,0,
105.773,4.68933,0.531007,0.596,18.2815,76,0,
105.773,4.68475,0.529481,0.596,18.2815,76,0,
105.773,4.68506,0.534059,0.596,18.2815,76,0,
105.773,4.68475,0.529481,0.596,18.2815,76,0,
105.773,4.67987,0.532533,0.596,18.2815,76,0,
105.773,4.68018,0.531007,0.596,18.2815,76,0,
105.773,4.67834,0.532533,0.596,18.2815,76,0,
105.773,4.67438,0.529481,0.596,18.2815,76,0,
105.773,4.67438,0.532533,0.596,18.2815,76,0,
105.773,4.67102,0.529481,0.596,18.2815,76,0,
105.773,4.66949,0.529481,0.596,18.2815,76,0,
105.773,4.6701,0.532533,0.596,18.2815,76,0,
105.773,4.66553,0.532533,0.596,18.2815,76,0,
105.773,4.66522,0.529481,0.596,18.2815,76,0,
105.773,4.66553,0.526429,0.596,18.2815,76,0,
105.773,4.66003,0.532533,0.596,18.2815,76,0,
105.773,4.66003,0.531007,0.596,18.2815,76,0,
105.773,4.65637,0.527955,0.596,18.2815,76,0,
105.774,4.65515,0.534059,0.596,18.2815,76,0,
105.774,4.65515,0.527955,0.596,18.2815,76,0,
105.774,4.64996,0.531007,0.596,18.2815,76,0,
105.774,4.65057,0.529481,0.596,18.2815,76,0,
105.774,4.64935,0.532533,0.596,18.2815,76,0,
105.774,4.646,0.527955,0.596,18.2815,76,0,
105.774,4.64539,0.529481,0.596,18.2815,76,0,
105.774,4.64111,0.529481,0.596,18.2815,76,0,
105.774,4.6405,0.535584,0.596,18.2815,76,0,
105.774,4.63928,0.529481,0.596,18.2815,76,0,
105.774,4.63531,0.527955,0.596,18.2815,76,0,
105.774,4.63501,0.529481,0.596,18.2815,76,0,
105.774,4.63226,0.534059,0.596,18.2815,76,0,
105.774,4.63104,0.531007,0.596,18.2815,76,0,
105.774,4.63074,0.531007,0.596,18.2815,76,0,
105.774,4.62616,0.529481,0.596,18.2815,76,0,
105.774,4.62585,0.529481,0.596,18.2815,76,0,
105.774,4.62158,0.529481,0.596,18.2815,76,0,
105.774,4.62128,0.529481,0.596,18.2815,76,0,
105.774,4.62006,0.527955,0.596,18.2815,76,0,
105.774,4.61609,0.532533,0.596,18.2815,76,0,
105.774,4.61578,0.529481,0.596,18.2815,76,0,
105.774,4.61182,0.529481,0.596,18.2815,76,0,
105.774,4.61121,0.529481,0.596,18.2815,76,0,
105.774,4.60999,0.531007,0.596,18.2815,76,0,
105.774,4.60571,0.531007,0.596,18.2815,76,0,
105.774,4.60632,0.534059,0.596,18.2815,76,0,
105.774,4.60175,0.532533,0.596,18.2815,76,0,
105.774,4.60144,0.527955,0.596,18.2815,76,0,
105.775,4.59961,0.531007,0.596,18.2815,76,0,
105.775,4.59625,0.534059,0.596,18.2815,76,0,
105.775,4.59625,0.531007,0.596,18.2815,76,0,
105.775,4.59167,0.531007,0.596,18.2815,76,0,
105.775,4.59198,0.529481,0.596,18.2815,76,0,
105.775,4.58771,0.531007,0.596,18.2815,76,0,
105.775,4.58649,0.531007,0.596,18.2815,76,0,
105.775,4.5871,0.531007,0.596,18.2815,76,0,
105.775,4.5816,0.527955,0.596,18.2815,76,0,
105.775,4.5816,0.529481,0.596,18.2815,76,0,
105.775,4.57733,0.529481,0.596,18.2815,76,0,
105.775,4.57642,0.527955,0.596,18.2815,76,0,
105.775,4.5755,0.531007,0.596,18.2815,76,0,
105.775,4.57184,0.529481,0.596,18.2815,76,0,
105.775,4.57184,0.531007,0.596,18.2815,76,0,
105.775,4.56696,0.529481,0.596,18.2815,76,0,
105.775,4.56726,0.532533,0.596,18.2815,76,0,
105.775,4.56573,0.531007,0.596,18.2815,76,0,
105.775,4.56207,0.526429,0.596,18.2815,76,0,
105.775,4.56238,0.531007,0.596,18.2815,76,0,
105.775,4.5575,0.529481,0.596,18.2815,76,0,
105.775,4.55719,0.532533,0.596,18.2815,76,0,
105.775,4.55383,0.532533,0.596,18.2815,76,0,
105.775,4.55261,0.529481,0.596,18.2815,76,0,
105.775,4.55231,0.532533,0.596,18.2815,76,0,
105.775,4.54803,0.529481,0.596,18.2815,76,0,
105.775,4.54712,0.532533,0.596,18.2815,76,0,
105.775,4.54437,0.531007,0.596,18.2815,76,0,
105.775,4.54254,0.535584,0.596,18.2815,76,0,
105.775,4.54285,0.532533,0.596,18.2815,76,0,
105.775,4.53796,0.531007,0.596,18.2815,76,0,
105.776,4.53735,0.531007,0.596,18.2815,76,0,
105.776,4.53369,0.532533,0.596,18.2815,76,0,
105.776,4.53308,0.531007,0.596,18.2815,76,0,
105.776,4.53278,0.532533,0.596,18.2815,76,0,
105.776,4.52789,0.531007,0.596,18.2815,76,0,
105.776,4.5285,0.527955,0.596,18.2815,76,0,
105.776,4.52393,0.531007,0.596,18.2815,76,0,
105.776,4.52362,0.529481,0.596,18.2815,76,0,
105.776,4.52332,0.529481,0.596,18.2815,76,0,
105.776,4.51874,0.529481,0.596,18.2815,76,0,
105.776,4.51874,0.531007,0.596,18.2815,76,0,
105.776,4.51721,0.531007,0.596,18.2815,76,0,
105.776,4.51324,0.531007,0.596,18.2815,76,0,
105.776,4.51355,0.529481,0.596,18.2815,76,0,
105.776,4.50806,0.529481,0.596,18.2815,76,0,
105.776,4.50867,0.531007,0.596,18.2815,76,0,
105.776,4.50836,0.529481,0.596,18.2815,76,0,
105.776,4.50317,0.527955,0.596,18.2815,76,0,
105.776,4.50409,0.532533,0.596,18.2815,76,0,
105.776,4.50195,0.531007,0.596,18.2815,76,0,
105.776,4.4989,0.531007,0.596,18.2815,76,0,
105.776,4.49829,0.532533,0.596,18.2815,76,0,
105.776,4.49493,0.529481,0.596,18.2815,76,0,
105.776,4.49432,0.531007,0.596,18.2815,76,0,
105.776,4.49371,0.529481,0.596,18.2815,76,0,
105.776,4.48883,0.531007,0.596,18.2815,76,0,
105.776,4.48914,0.529481,0.596,18.2815,76,0,
105.776,4.48853,0.527955,0.596,18.2815,76,0,
105.776,4.48364,0.529481,0.596,18.2815,76,0,
105.776,4.48425,0.531007,0.596,18.2815,76,0,
105.777,4.48425,0.531007,0.596,18.2815,76,0,
105.777,4.47937,0.531007,0.596,18.2815,76,0,
105.777,4.47876,0.532533,0.596,18.2815,76,0,
105.777,4.47815,0.531007,0.596,18.2815,76,0,
105.777,4.47418,0.529481,0.596,18.2815,76,0,
105.777,4.47449,0.532533,0.596,18.2815,76,0,
105.777,4.47449,0.529481,0.596,18.2815,76,0,
105.777,4.4696,0.529481,0.596,18.2815,76,0,
105.777,4.46899,0.531007,0.596,18.2815,76,0,
105.777,4.46899,0.532533,0.596,18.2815,76,0,
105.777,4.46564,0.531007,0.596,18.2815,76,0,
105.777,4.46381,0.534059,0.596,18.2815,76,0,
105.777,4.46472,0.529481,0.596,18.2815,76,0,
105.777,4.46289,0.531007,0.596,18.2815,76,0,
105.777,4.45892,0.531007,0.596,18.2815,76,0,
105.777,4.45923,0.532533,0.596,18.2815,76,0,
105.777,4.45923,0.532533,0.596,18.2815,76,0,
105.777,4.45435,0.531007,0.596,18.2815,76,0,
105.777,4.45465,0.529481,0.596,18.2815,76,0,
105.777,4.45496,0.529481,0.596,18.2815,76,0,
105.777,4.45404,0.529481,0.596,18.2815,76,0,
105.777,4.44977,0.532533,0.596,18.2815,76,0,
105.777,4.44855,0.529481,0.596,18.2815,76,0,
105.777,4.44977,0.531007,0.596,18.2815,76,0,
105.777,4.44946,0.527955,0.596,18.2815,76,0,
105.777,4.44489,0.527955,0.596,18.2815,76,0,
105.777,4.44427,0.529481,0.596,18.2815,76,0,
105.777,4.44397,0.532533,0.596,18.2815,76,0,
105.777,4.44427,0.526429,0.596,18.2815,76,0,
105.778,4.44,0.527955,0.596,18.2815,76,0,
105.778,4.44031,0.531007,0.596,18.2815,76,0,
105.778,4.4397,0.529481,0.596,18.2815,76,0,
105.778,4.43939,0.531007,0.596,18.2815,76,0,
105.778,4.43756,0.534059,0.596,18.2815,76,0,
105.778,4.43481,0.529481,0.596,18.2815,76,0,
105.778,4.43481,0.534059,0.596,18.2815,76,0,
105.778,4.43481,0.529481,0.596,18.2815,76,0,
105.778,4.43512,0.531007,0.596,18.2815,76,0,
105.778,4.43451,0.532533,0.596,18.2815,76,0,
105.778,4.42993,0.527955,0.596,18.2815,76,0,
105.778,4.43054,0.527955,0.596,18.2815,76,0,
105.778,4.43024,0.531007,0.596,18.2815,76,0,
105.778,4.43024,0.531007,0.596,18.2815,76,0,
105.778,4.43024,0.529481,0.596,18.2815,76,0,
105.778,4.43024,0.529481,0.596,18.2815,76,0,
105.778,4.42535,0.527955,0.596,18.2815,76,0,
105.778,4.42566,0.534059,0.596,18.2815,76,0,
105.778,4.42535,0.531007,0.596,18.2815,76,0,
105.778,4.42535,0.529481,0.596,18.2815,76,0,
105.778,4.42535,0.531007,0.596,18.2815,76,0,
105.778,4.42535,0.529481,0.596,18.2815,76,0,
105.778,4.42505,0.532533,0.596,18.2815,76,0,
105.778,4.42383,0.529481,0.596,18.2815,76,0,
105.778,4.42017,0.527955,0.596,18.2815,76,0,
105.778,4.42017,0.531007,0.596,18.2815,76,0,
105.778,4.42078,0.529481,0.596,18.2815,76,0,
105.778,4.41986,0.534059,0.596,18.2815,76,0,
105.778,4.42047,0.529481,0.596,18.2815,76,0,
105.778,4.42078,0.529481,0.596,18.2815,76,0,
105.778,4.42108,0.529481,0.596,18.2815,76,0,
105.779,4.42017,0.526429,0.596,18.2815,76,0,
105.779,4.42047,0.527955,0.596,18.2815,76,0,
105.779,4.42017,0.529481,0.596,18.2815,76,0,
105.779,4.42047,0.529481,0.596,18.2815,76,0,
105.779,4.41986,0.529481,0.596,18.2815,76,0,
105.779,4.42017,0.529481,0.596,18.2815,76,0,
105.779,4.42047,0.529481,0.596,18.2815,76,0,
105.779,4.41895,0.532533,0.596,18.2815,76,0,
105.779,4.41559,0.531007,0.596,18.2815,76,0,
105.779,4.41528,0.532533,0.596,18.2815,76,0,
105.779,4.41467,0.531007,0.596,18.2815,76,0,
105.779,4.41559,0.531007,0.596,18.2815,76,0,
105.779,4.41437,0.531007,0.596,18.2815,76,0,
105.779,4.41528,0.531007,0.596,18.2815,76,0,
105.779,4.41559,0.529481,0.596,18.2815,76,0,
105.779,4.41528,0.529481,0.596,18.2815,76,0,
105.779,4.41559,0.527955,0.596,18.2815,76,0,
105.779,4.41559,0.529481,0.596,18.2815,76,0,
105.779,4.41895,0.531007,0.596,18.2815,76,0,
105.779,4.42017,0.529481,0.596,18.2815,76,0,
105.779,4.42017,0.532533,0.596,18.2815,76,0,
105.779,4.42078,0.529481,0.596,18.2815,76,0,
105.779,4.42047,0.529481,0.596,18.2815,76,0,
105.779,4.42078,0.527955,0.596,18.2815,76,0,
105.779,4.42047,0.531007,0.596,18.2815,76,0,
105.779,4.42017,0.529481,0.596,18.2815,76,0,
105.779,4.42047,0.532533,0.596,18.2815,76,0,
105.779,4.42139,0.531007,0.596,18.2815,76,0,
105.779,4.42047,0.531007,0.596,18.2815,76,0,
105.779,4.42108,0.529481,0.596,18.2815,76,0,
105.78,4.42017,0.529481,0.596,18.2815,76,0,
105.78,4.42017,0.529481,0.596,18.2815,76,0,
105.78,4.42017,0.529481,0.596,18.2815,76,0,
105.78,4.42444,0.531007,0.596,18.2815,76,0,
105.78,4.42535,0.531007,0.596,18.2815,76,0,
105.78,4.42505,0.532533,0.596,18.2815,76,0,
105.78,4.42566,0.531007,0.596,18.2815,76,0,
105.78,4.42474,0.531007,0.596,18.2815,76,0,
105.78,4.42535,0.527955,0.596,18.2815,76,0,
105.78,4.42566,0.527955,0.596,18.2815,76,0,
105.78,4.42627,0.532533,0.596,18.2815,76,0,
105.78,4.43054,0.532533,0.596,18.2815,76,0,
105.78,4.43054,0.532533,0.596,18.2815,76,0,
105.78,4.43085,0.529481,0.596,18.2815,76,0,
105.78,4.43024,0.531007,0.596,18.2815,76,0,
105.78,4.43024,0.527955,0.596,18.2815,76,0,
105.78,4.42993,0.531007,0.596,18.2815,76,0,
105.78,4.4342,0.531007,0.596,18.2815,76,0,
105.78,4.43512,0.529481,0.596,18.2815,76,0,
105.78,4.43481,0.534059,0.596,18.2815,76,0,
105.78,4.43512,0.529481,0.596,18.2815,76,0,
105.78,4.43542,0.532533,0.596,18.2815,76,0,
105.78,4.43939,0.529481,0.596,18.2815,76,0,
105.78,4.44,0.529481,0.596,18.2815,76,0,
105.78,4.44,0.529481,0.596,18.2815,76,0,
105.78,4.44,0.532533,0.596,18.2815,76,0,
105.78,4.44061,0.531007,0.596,18.2815,76,0,
105.78,4.44489,0.531007,0.596,18.2815,76,0,
105.78,4.44489,0.532533,0.596,18.2815,76,0,
105.781,4.44489,0.531007,0.596,18.2815,76,0,
105.781,4.44519,0.531007,0.596,18.2815,76,0,
105.781,4.44824,0.529481,0.596,18.2815,76,0,
105.781,4.45007,0.529481,0.596,18.2815,76,0,
105.781,4.44977,0.532533,0.596,18.2815,76,0,
105.781,4.45007,0.532533,0.596,18.2815,76,0,
105.781,4.45435,0.534059,0.596,18.2815,76,0,
105.781,4.45465,0.529481,0.596,18.2815,76,0,
105.781,4.45435,0.531007,0.596,18.2815,76,0,
105.781,4.45831,0.529481,0.596,18.2815,76,0,
105.781,4.45953,0.532533,0.596,18.2815,76,0,
105.781,4.45953,0.535584,0.596,18.2815,76,0,
105.781,4.46014,0.531007,0.596,18.2815,76,0,
105.781,4.46411,0.531007,0.596,18.2815,76,0,
105.781,4.46442,0.529481,0.596,18.2815,76,0,
105.781,4.46503,0.534059,0.596,18.2815,76,0,
105.781,4.4693,0.531007,0.596,18.2815,76,0,
105.781,4.46869,0.531007,0.596,18.2815,76,0,
105.781,4.47052,0.534059,0.596,18.2815,76,0,
105.781,4.47418,0.531007,0.596,18.2815,76,0,
105.781,4.47449,0.529481,0.596,18.2815,76,0,
105.781,4.4754,0.534059,0.596,18.2815,76,0,
105.781,4.47968,0.532533,0.596,18.2815,76,0,
105.781,4.47906,0.532533,0.596,18.2815,76,0,
105.781,4.48425,0.527955,0.596,18.2815,76,0,
105.781,4.48425,0.529481,0.596,18.2815,76,0,
105.781,4.48395,0.534059,0.596,18.2815,76,0,
105.781,4.49005,0.531007,0.596,18.2815,76,0,
105.781,4.48944,0.532533,0.596,18.2815,76,0,
105.781,4.49371,0.534059,0.596,18.2815,76,0,
105.781,4.49493,0.527955,0.596,18.2815,76,0,
105.782,4.49432,0.532533,0.596,18.2815,76,0,
105.782,4.49921,0.531007,0.596,18.2815,76,0,
105.782,4.49951,0.529481,0.596,18.2815,76,0,
105.782,4.50439,0.534059,0.596,18.2815,76,0,
105.782,4.50378,0.529481,0.596,18.2815,76,0,
105.782,4.50562,0.529481,0.596,18.2815,76,0,
105.782,4.50867,0.532533,0.596,18.2815,76,0,
105.782,4.50867,0.529481,0.596,18.2815,76,0,
105.782,4.51294,0.531007,0.596,18.2815,76,0,
105.782,4.51324,0.527955,0.596,18.2815,76,0,
105.782,4.51782,0.532533,0.596,18.2815,76,0,
105.782,4.51782,0.531007,0.596,18.2815,76,0,
105.782,4.52148,0.529481,0.596,18.2815,76,0,
105.782,4.52301,0.529481,0.596,18.2815,76,0,
105.782,4.52637,0.531007,0.596,18.2815,76,0,
105.782,4.52789,0.532533,0.596,18.2815,76,0,
105.782,4.52911,0.529481,0.596,18.2815,76,0,
105.782,4.53308,0.527955,0.596,18.2815,76,0,
105.782,4.5343,0.532533,0.596,18.2815,76,0,
105.782,4.53735,0.53711,0.596,18.2815,76,0,
105.782,4.53888,0.529481,0.596,18.2815,76,0,
105.782,4.54285,0.531007,0.596,18.2815,76,0,
105.782,4.54376,0.527955,0.596,18.2815,76,0,
105.782,4.54773,0.531007,0.596,18.2815,76,0,
105.782,4.54926,0.532533,0.596,18.2815,76,0,
105.782,4.55292,0.529481,0.596,18.2815,76,0,
105.782,4.55383,0.531007,0.596,18.2815,76,0,
105.782,4.55719,0.532533,0.596,18.2815,76,0,
105.782,4.55841,0.531007,0.596,18.2815,76,0,
105.782,4.56207,0.531007,0.596,18.2815,76,0,
105.783,4.56329,0.531007,0.596,18.2815,76,0,
105.783,4.56665,0.531007,0.596,18.2815,76,0,
105.783,4.57062,0.526429,0.596,18.2815,76,0,
105.783,4.57275,0.529481,0.596,18.2815,76,0,
105.783,4.57611,0.532533,0.596,18.2815,76,0,
105.783,4.57672,0.527955,0.596,18.2815,76,0,
105.783,4.58069,0.529481,0,18.2815,76,0,
105.783,4.58191,0.529481,0,18.2815,76,0,
105.783,4.58649,0.527955,0,18.2815,76,0,
105.783,4.58679,0.529481,0,18.2815,76,0,
105.783,4.59106,0.529481,0,18.2815,76,0,
105.783,4.59198,0.527955,0,18.2815,76,0,
105.783,4.59595,0.531007,0,18.2815,76,0,
105.783,4.59808,0.531007,0,18.2815,76,0,
105.783,4.60114,0.531007,0,18.2815,76,0,
105.783,4.60297,0.531007,0,18.2815,76,0,
105.783,4.60632,0.531007,0,18.2815,76,0,
105.783,4.61029,0.529481,0,18.2815,76,0,
105.783,4.6106,0.531007,0,18.2815,76,0,
105.783,4.61578,0.531007,0,18.2815,76,0,
105.783,4.61609,0.531007,0,18.2815,76,0,
105.783,4.62128,0.531007,0,18.2815,76,0,
105.783,4.62128,0.531007,0,18.2815,77,0,
105.783,4.62585,0.531007,0,18.2815,77,0,
105.783,4.62799,0.529481,0,18.2815,77,0,
105.783,4.63074,0.527955,0,18.2815,77,0,
105.783,4.63501,0.527955,0,18.2815,77,0,
105.783,4.63593,0.531007,0,18.2815,77,0,
105.783,4.63989,0.532533,0,18.2815,77,0,
105.784,4.64081,0.529481,0,18.2815,77,0,
105.784,4.646,0.531007,0,18.2815,77,0,
105.784,4.64569,0.527955,0,18.2815,77,0,
105.784,4.65027,0.532533,0,18.2815,77,0,
105.784,4.6524,0.529481,0,18.2815,77,0,
105.784,4.65576,0.531007,0,18.2815,77,0,
105.784,4.65729,0.532533,0,18.2815,77,0,
105.784,4.66064,0.527955,0,18.2815,77,0,
105.784,4.6637,0.532533,0,18.2815,77,0,
105.784,4.66522,0.529481,0,18.2815,77,0,
105.784,4.6698,0.532533,0,18.2815,77,0,
105.784,4.6701,0.531007,0,18.2815,77,0,
105.784,4.67529,0.527955,0,18.2815,77,0,
105.784,4.67682,0.529481,0,18.2815,77,0,
105.784,4.68018,0.531007,0,18.2815,77,0,
105.784,4.6817,0.529481,0,18.2815,77,0,
105.784,4.68506,0.531007,0,18.2815,77,0,
105.784,4.68903,0.529481,0,18.2815,77,0,
105.784,4.68964,0.531007,0,18.2815,77,0,
105.784,4.69482,0.531007,0,18.2815,77,0,
105.784,4.69452,0.529481,0,18.2815,77,0,
105.784,4.6994,0.529481,0,18.2815,77,0,
105.784,4.70062,0.529481,0,18.2815,77,0,
105.784,4.70398,0.529481,0,18.2815,77,0,
105.784,4.70612,0.529481,0,18.2815,77,0,
105.784,4.70978,0.529481,0,18.2815,77,0,
105.784,4.71344,0.529481,0,18.2815,77,0,
105.784,4.71436,0.527955,0,18.2815,77,0,
105.784,4.71893,0.531007,0,18.2815,77,0,
105.784,4.71954,0.534059,0,18.2815,77,0,
105.784,4.72412,0.531007,0,18.2815,77,0,
105.785,4.72473,0.531007,0,18.2815,77,0,
105.785,4.7287,0.529481,0,18.2815,77,0,
105.785,4.73022,0.532533,0,18.2815,77,0,
105.785,4.73389,0.527955,0,18.2815,77,0,
105.785,4.73785,0.531007,0,18.2815,77,0,
105.785,4.73846,0.529481,0,18.2815,77,0,
105.785,4.74274,0.529481,0,18.2815,77,0,
105.785,4.74396,0.527955,0,18.2815,77,0,
105.785,4.74823,0.527955,0,18.2815,77,0,
105.785,4.74792,0.529481,0,18.2815,77,0,
105.785,4.75342,0.531007,0,18.2815,77,0,
105.785,4.75372,0.532533,0,18.2815,77,0,
105.785,4.7583,0.531007,0,18.2815,77,0,
105.785,4.7583,0.535584,0,18.2815,77,0,
105.785,4.76288,0.531007,0,18.2815,77,0,
105.785,4.76501,0.531007,0,18.2815,77,0,
105.785,4.76807,0.532533,0,18.2815,77,0,
105.785,4.7702,0.529481,0,18.2815,77,0,
105.785,4.77295,0.527955,0,18.2815,77,0,
105.785,4.77692,0.527955,0,18.2815,77,0,
105.785,4.77875,0.531007,0,18.2815,77,0,
105.785,4.7818,0.529481,0,18.2815,77,0,
105.785,4.78271,0.531007,0,18.2815,77,0,
105.785,4.78729,0.527955,0,18.2815,77,0,
105.785,4.78729,0.531007,0,18.2815,77,0,
105.785,4.79218,0.529481,0,18.2815,77,0,
105.785,4.79309,0.532533,0,18.2815,77,0,
105.785,4.79706,0.532533,0,18.2815,77,0,
105.785,4.79858,0.529481,0,18.2815,77,0,
105.785,4.80286,0.529481,0,18.2815,77,0,
105.786,4.80255,0.527955,0,18.2815,77,0,
105.786,4.80713,0.531007,0,18.2815,77,0,
105.786,4.80804,0.531007,0,18.2815,77,0,
105.786,4.81293,0.524903,0,18.2815,77,0,
105.786,4.81201,0.532533,0,18.2815,77,0,
105.786,4.81689,0.531007,0,18.2815,77,0,
105.786,4.81781,0.529481,0,18.2815,77,0,
105.786,4.82208,0.529481,0,18.2815,77,0,
105.786,4.82239,0.531007,0,18.2815,77,0,
105.786,4.82727,0.529481,0,18.2815,77,0,
105.786,4.82727,0.531007,0,18.2815,77,0,
105.786,4.83246,0.527955,0,18.2815,77,0,
105.786,4.83276,0.529481,0,18.2815,77,0,
105.786,4.83734,0.529481,0,18.2815,77,0,
105.786,4.83734,0.532533,0,18.2815,77,0,
105.786,4.84222,0.527955,0,18.2815,77,0,
105.786,4.84131,0.529481,0,18.2815,77,0,
105.786,4.8465,0.527955,0,18.2815,77,0,
105.786,4.84711,0.532533,0,18.2815,77,0,
105.786,4.85168,0.529481,0,18.2815,77,0,
105.786,4.85199,0.529481,0,18.2815,77,0,
105.786,4.85626,0.527955,0,18.2815,77,0,
105.786,4.85748,0.532533,0,18.2815,77,0,
105.786,4.86145,0.527955,0,18.2815,77,0,
105.786,4.86176,0.529481,0,18.2815,77,0,
105.786,4.86664,0.529481,0,18.2815,77,0,
105.786,4.86633,0.531007,0,18.2815,77,0,
105.786,4.87152,0.529481,0,18.2815,77,0,
105.786,4.87091,0.529481,0,18.2815,77,0,
105.787,4.8764,0.532533,0,18.2815,77,0,
105.787,4.87579,0.529481,0,18.2815,77,0,
105.787,4.87976,0.529481,0,18.2815,77,0,
105.787,4.88098,0.527955,0,18.2815,77,0,
105.787,4.88495,0.529481,0,18.2815,77,0,
105.787,4.88525,0.529481,0,18.2815,77,0,
105.787,4.88739,0.529481,0,18.2815,77,0,
105.787,4.89014,0.529481,0,18.2815,77,0,
105.787,4.89166,0.531007,0,18.2815,77,0,
105.787,4.89532,0.531007,0,18.2815,77,0,
105.787,4.89563,0.532533,0,18.2815,77,0,
105.787,4.8996,0.529481,0,18.2815,77,0,
105.787,4.8996,0.531007,0,18.2815,77,0,
105.787,4.90479,0.529481,0,18.2815,77,0,
105.787,4.90509,0.529481,0,18.2815,77,0,
105.787,4.90967,0.531007,0,18.2815,77,0,
105.787,4.90967,0.531007,0,18.2815,77,0,
105.787,4.91211,0.529481,0,18.2815,77,0,
105.787,4.91486,0.532533,0,18.2815,77,0,
105.787,4.91516,0.529481,0,18.2815,77,0,
105.787,4.92035,0.532533,0,18.2815,77,0,
105.787,4.92004,0.531007,0,18.2815,77,0,
105.787,4.92523,0.527955,0,18.2815,77,0,
105.787,4.92493,0.534059,0,18.2815,77,0,
105.787,4.92859,0.531007,0,18.2815,77,0,
105.787,4.9295,0.529481,0,18.2815,77,0,
105.787,4.93073,0.529481,0,18.2815,77,0,
105.787,4.935,0.532533,0,18.2815,77,0,
105.787,4.93469,0.529481,0,18.2815,77,0,
105.787,4.93927,0.531007,0,18.2815,77,0,
105.787,4.93958,0.527955,0,18.2815,77,0,
105.788,4.94354,0.532533,0,18.2815,77,0,
105.788,4.94507,0.529481,0,18.2815,77,0,
105.788,4.94476,0.527955,0,18.2815,77,0,
105.788,4.94965,0.529481,0,18.2815,77,0,
105.788,4.94934,0.532533,0,18.2815,77,0,
105.788,4.953,0.527955,0,18.2815,77,0,
105.788,4.95422,0.534059,0,18.2815,77,0,
105.788,4.95422,0.532533,0,18.2815,77,0,
105.788,4.95972,0.534059,0,18.2815,77,0,
105.788,4.95911,0.527955,0,18.2815,77,0,
105.788,4.96338,0.534059,0,18.2815,77,0,
105.788,4.96399,0.532533,0,18.2815,77,0,
105.788,4.96429,0.531007,0,18.2815,77,0,
105.788,4.96948,0.532533,0,18.2815,77,0,
105.788,4.96887,0.527955,0,18.2815,77,0,
105.788,4.9704,0.531007,0,18.2815,77,0,
105.788,4.97406,0.531007,0,18.2815,77,0,
105.788,4.97375,0.531007,0,18.2815,77,0,
105.788,4.97864,0.529481,0,18.2815,77,0,
105.788,4.97925,0.531007,0,18.2815,77,0,
105.788,4.97894,0.527955,0,18.2815,77,0,
105.788,4.98383,0.527955,0,18.2815,77,0,
105.788,4.98413,0.531007,0,18.2815,77,0,
105.788,4.98535,0.529481,0,18.2815,77,0,
105.788,4.98901,0.531007,0,18.2815,77,0,
105.788,4.9884,0.531007,0,18.2815,77,0,
105.788,4.99268,0.532533,0,18.2815,77,0,
105.788,4.9942,0.529481,0,18.2815,77,0,
105.788,4.99359,0.532533,0,18.2815,77,0,
105.788,4.99786,0.527955,0,18.2815,77,0,
105.789,4.99847,0.529481,0,18.2815,77,0,
105.789,4.99847,0.529481,0,18.2815,77,0,
105.789,5.00305,0.531007,0,18.2815,77,0,
105.789,5.00336,0.529481,0,18.2815,77,0,
105.789,5.00305,0.531007,0,18.2815,77,0,
105.789,5.00824,0.529481,0,18.2815,77,0,
105.789,5.00885,0.531007,0,18.2815,77,0,
105.789,5.00824,0.529481,0,18.2815,77,0,
105.789,5.01251,0.531007,0,18.2815,77,0,
105.789,5.01343,0.527955,0,18.2815,77,0,
105.789,5.01282,0.532533,0,18.2815,77,0,
105.789,5.0174,0.529481,0,18.2815,77,0,
105.789,5.01831,0.527955,0,18.2815,77,0,
105.789,5.01801,0.527955,0,18.2815,77,0,
105.789,5.01923,0.534059,0,18.2815,77,0,
105.789,5.02319,0.527955,0,18.2815,77,0,
105.789,5.02319,0.529481,0,18.2815,77,0,
105.789,5.02319,0.531007,0,18.2815,77,0,
105.789,5.02747,0.531007,0,18.2815,77,0,
105.789,5.02777,0.527955,0,18.2815,77,0,
105.789,5.02808,0.534059,0,18.2815,77,0,
105.789,5.03174,0.529481,0,18.2815,77,0,
105.789,5.03265,0.532533,0,18.2815,77,0,
105.789,5.03265,0.532533,0,18.2815,77,0,
105.789,5.03448,0.531007,0,18.2815,77,0,
105.789,5.03754,0.531007,0,18.2815,77,0,
105.789,5.03723,0.532533,0,18.2815,77,0,
105.789,5.03784,0.529481,0,18.2815,77,0,
105.789,5.0415,0.532533,0,18.2815,77,0,
105.79,5.04242,0.527955,0,18.2815,77,0,
105.79,5.04242,0.527955,0,18.2815,77,0,
105.79,5.04242,0.527955,0,18.2815,77,0,
105.79,5.047,0.529481,0,18.2815,77,0,
105.79,5.04761,0.527955,0,18.2815,77,0,
105.79,5.047,0.531007,0,18.2815,77,0,
105.79,5.04791,0.527955,0,18.2815,77,0,
105.79,5.05219,0.532533,0,18.2815,77,0,
105.79,5.05188,0.532533,0,18.2815,77,0,
105.79,5.05188,0.527955,0,18.2815,77,0,
105.79,5.05188,0.532533,0,18.2815,77,0,
105.79,5.05798,0.527955,0,18.2815,77,0,
105.79,5.05768,0.527955,0,18.2815,77,0,
105.79,5.05707,0.527955,0,18.2815,77,0,
105.79,5.05737,0.527955,0,18.2815,77,0,
105.79,5.06195,0.534059,0,18.2815,77,0,
105.79,5.06195,0.532533,0,18.2815,77,0,
105.79,5.06226,0.531007,0,18.2815,77,0,
105.79,5.06226,0.531007,0,18.2815,77,0,
105.79,5.06378,0.527955,0,18.2815,77,0,
105.79,5.06714,0.529481,0,18.2815,77,0,
105.79,5.06744,0.531007,0,18.2815,77,0,
105.79,5.06714,0.532533,0,18.2815,77,0,
105.79,5.06714,0.529481,0,18.2815,77,0,
105.79,5.07202,0.529481,0,18.2815,77,0,
105.79,5.07233,0.527955,0,18.2815,77,0,
105.79,5.07202,0.529481,0,18.2815,77,0,
105.79,5.07172,0.529481,0,18.2815,77,0,
105.79,5.07263,0.532533,0,18.2815,77,0,
105.79,5.0769,0.532533,0,18.2815,77,0,
105.79,5.0766,0.532533,0,18.2815,77,0,
105.791,5.0769,0.534059,0,18.2815,77,0,
105.791,5.0769,0.534059,0,18.2815,77,0,
105.791,5.07782,0.529481,0,18.2815,77,0,
105.791,5.07996,0.531007,0,18.2815,77,0,
105.791,5.08118,0.531007,0,18.2815,77,0,
105.791,5.08148,0.529481,0,18.2815,77,0,
105.791,5.08118,0.529481,0,18.2815,77,0,
105.791,5.08118,0.531007,0,18.2815,77,0,
105.791,5.08209,0.531007,0,18.2815,77,0,
105.791,5.08636,0.527955,0,18.2815,77,0,
105.791,5.08606,0.529481,0,18.2815,77,0,
105.791,5.08636,0.532533,0,18.2815,77,0,
105.791,5.08667,0.531007,0,18.2815,77,0,
105.791,5.08575,0.532533,0,18.2815,77,0,
105.791,5.08606,0.529481,0,18.2815,77,0,
105.791,5.09064,0.532533,0,18.2815,77,0,
105.791,5.09094,0.532533,0,18.2815,77,0,
105.791,5.09094,0.531007,0,18.2815,77,0,
105.791,5.09033,0.532533,0,18.2815,77,0,
105.791,5.09125,0.531007,0,18.2815,77,0,
105.791,5.09186,0.531007,0,18.2815,77,0,
105.791,5.09125,0.531007,0,18.2815,77,0,
105.791,5.09613,0.526429,0,18.2815,77,0,
105.791,5.09583,0.531007,0,18.2815,77,0,
105.791,5.09613,0.531007,0,18.2815,77,0,
105.791,5.09613,0.529481,0,18.2815,77,0,
105.791,5.09613,0.531007,0,18.2815,77,0,
105.791,5.09613,0.532533,0,18.2815,77,0,
105.791,5.09583,0.529481,0,18.2815,77,0,
105.791,5.09796,0.531007,0,18.2815,77,0,
105.792,5.10132,0.527955,0,18.2815,77,0,
105.792,5.10071,0.531007,0,18.2815,77,0,
105.792,5.10071,0.532533,0,18.2815,77,0,
105.792,5.10071,0.532533,0,18.2815,77,0,
105.792,5.10101,0.529481,0,18.2815,77,0,
105.792,5.10132,0.531007,0,18.2815,77,0,
105.792,5.10071,0.529481,0,18.2815,77,0,
105.792,5.10132,0.526429,0,18.2815,77,0,
105.792,5.10254,0.529481,0,18.2815,77,0,
105.792,5.10681,0.531007,0,18.2815,77,0,
105.792,5.10529,0.532533,0,18.2815,77,0,
105.792,5.1059,0.531007,0,18.2815,77,0,
105.792,5.1062,0.526429,0,18.2815,77,0,
105.792,5.1062,0.531007,0,18.2815,77,0,
105.792,5.10559,0.529481,0,18.2815,77,0,
105.792,5.10651,0.526429,0,18.2815,77,0,
105.792,5.1059,0.529481,0,18.2815,77,0,
105.792,5.1059,0.529481,0,18.2815,77,0,
105.792,5.10651,0.527955,0,18.2815,77,0,
105.792,5.1062,0.531007,0,18.2815,77,0,
105.792,5.11108,0.532533,0,18.2815,77,0,
105.792,5.11078,0.532533,0,18.2815,77,0,
105.792,5.1123,0.531007,0,18.2815,77,0,
105.792,5.11139,0.531007,0,18.2815,77,0,
105.792,5.11108,0.532533,0,18.2815,77,0,
105.792,5.11017,0.531007,0,18.2815,77,0,
105.792,5.11078,0.531007,0,18.2815,77,0,
105.792,5.11078,0.532533,0,18.2815,77,0,
105.792,5.11139,0.531007,0,18.2815,77,0,
105.793,5.11139,0.531007,0,18.2815,77,0,
105.793,5.11047,0.529481,0,18.2815,77,0,
105.793,5.11047,0.526429,0,18.2815,77,0,
105.793,5.11108,0.529481,2.298,18.2815,77,0,
105.793,5.11078,0.534059,2.298,18.2815,77,0,
105.793,5.11078,0.531007,2.298,18.2815,77,0,
105.793,5.11139,0.529481,2.298,18.2815,77,0,
105.793,5.11597,0.532533,2.298,18.2815,77,0,
105.793,5.11597,0.531007,2.298,18.2815,77,0,
105.793,5.11597,0.534059,2.298,18.2815,77,0,
105.793,5.11566,0.531007,2.298,18.2815,77,0,
105.793,5.11566,0.527955,2.298,18.2815,77,0,
105.793,5.11566,0.532533,2.298,18.2815,77,0,
105.793,5.11627,0.532533,2.298,18.2815,77,0,
105.793,5.11536,0.531007,2.298,18.2815,77,0,
105.793,5.11536,0.531007,2.298,18.2815,77,0,
105.793,5.11597,0.529481,2.298,18.2815,77,0,
105.793,5.11627,0.531007,2.298,18.2815,77,0,
105.793,5.11566,0.529481,2.298,18.2815,77,0,
105.793,5.11566,0.529481,2.298,18.2815,77,0,
105.793,5.11566,0.529481,2.298,18.2815,77,0,
105.793,5.11627,0.527955,2.298,18.2815,77,0,
105.793,5.11627,0.529481,2.298,18.2815,77,0,
105.793,5.11627,0.531007,2.298,18.2815,77,0,
105.793,5.11627,0.531007,2.298,18.2815,77,0,
105.793,5.11597,0.529481,2.298,18.2815,77,0,
105.793,5.11597,0.529481,2.298,18.2815,77,0,
105.793,5.11536,0.529481,2.298,18.2815,77,0,
105.793,5.11597,0.529481,2.298,18.2815,77,0,
105.793,5.11566,0.534059,2.298,18.2815,77,0,
105.793,5.11597,0.532533,2.298,18.2815,77,0,
105.794,5.11566,0.531007,2.298,18.2815,77,0,
105.794,5.11566,0.534059,2.298,18.2815,77,0,
105.794,5.11566,0.531007,2.298,18.2815,77,0,
105.794,5.11566,0.529481,2.298,18.2815,77,0,
105.794,5.11566,0.531007,2.298,18.2815,77,0,
105.794,5.11505,0.534059,2.298,18.2815,77,0,
105.794,5.11566,0.531007,2.298,18.2815,77,0,
105.794,5.11505,0.531007,2.298,18.2815,77,0,
105.794,5.11566,0.534059,2.298,18.2815,77,0,
105.794,5.11566,0.534059,2.298,18.2815,77,0,
105.794,5.11566,0.527955,2.298,18.2815,77,0,
105.794,5.11566,0.526429,2.298,18.2815,77,0,
105.794,5.11536,0.529481,2.298,18.2815,77,0,
105.794,5.11597,0.532533,2.298,18.2815,77,0,
105.794,5.11566,0.529481,2.298,18.2815,77,0,
105.794,5.11566,0.527955,2.298,18.2815,77,0,
105.794,5.11627,0.532533,2.298,18.2815,77,0,
105.794,5.11627,0.527955,2.298,18.2815,77,0,
105.794,5.11597,0.531007,2.298,18.2815,77,0,
105.794,5.11566,0.529481,2.298,18.2815,77,0,
105.794,5.11658,0.529481,2.298,18.2815,77,0,
105.794,5.11658,0.529481,2.298,18.2815,77,0,
105.794,5.11597,0.529481,2.298,18.2815,77,0,
105.794,5.11658,0.534059,2.298,18.2815,77,0,
105.794,5.11658,0.531007,2.298,18.2815,77,0,
105.794,5.11658,0.529481,2.298,18.2815,77,0,
105.794,5.11658,0.529481,2.298,18.2815,77,0,
105.794,5.112,0.531007,2.298,18.2815,77,0,
105.794,5.112,0.531007,2.298,18.2815,77,0,
105.794,5.112,0.534059,2.298,18.2815,77,0,
105.795,5.11108,0.535584,2.298,18.2815,77,0,
105.795,5.1123,0.529481,2.298,18.2815,77,0,
105.795,5.11169,0.527955,2.298,18.2815,77,0,
105.795,5.11139,0.527955,2.298,18.2815,77,0,
105.795,5.11139,0.531007,2.298,18.2815,77,0,
105.795,5.112,0.529481,2.298,18.2815,77,0,
105.795,5.11078,0.529481,2.298,18.2815,77,0,
105.795,5.11078,0.529481,2.298,18.2815,77,0,
105.795,5.11108,0.529481,2.298,18.2815,77,0,
105.795,5.11078,0.531007,2.298,18.2815,77,0,
105.795,5.11078,0.532533,2.298,18.2815,77,0,
105.795,5.11017,0.527955,2.298,18.2815,77,0,
105.795,5.11078,0.529481,2.298,18.2815,77,0,
105.795,5.11078,0.529481,2.298,18.2815,77,0,
105.795,5.10651,0.529481,2.298,18.2815,77,0,
105.795,5.10559,0.527955,2.298,18.2815,77,0,
105.795,5.1062,0.531007,2.298,18.2815,77,0,
105.795,5.10559,0.531007,2.298,18.2815,77,0,
105.795,5.1062,0.526429,2.298,18.2815,77,0,
105.795,5.10559,0.529481,2.298,18.2815,77,0,
105.795,5.10559,0.531007,2.298,18.2815,77,0,
105.795,5.1059,0.527955,2.298,18.2815,77,0,
105.795,5.10529,0.534059,2.298,18.2815,77,0,
105.795,5.10559,0.527955,2.298,18.2815,77,0,
105.795,5.1059,0.529481,2.298,18.2815,77,0,
105.795,5.1062,0.532533,2.298,18.2815,77,0,
105.795,5.10101,0.529481,2.298,18.2815,77,0,
105.795,5.10162,0.529481,2.298,18.2815,77,0,
105.795,5.10101,0.529481,2.298,18.2815,77,0,
105.796,5.10101,0.532533,2.298,18.2815,77,0,
105.796,5.10132,0.531007,2.298,18.2815,77,0,
105.796,5.10162,0.531007,2.298,18.2815,77,0,
105.796,5.10132,0.527955,2.298,18.2815,77,0,
105.796,5.10101,0.531007,2.298,18.2815,77,0,
105.796,5.10071,0.531007,2.298,18.2815,77,0,
105.796,5.09613,0.531007,2.298,18.2815,77,0,
105.796,5.09613,0.529481,2.298,18.2815,77,0,
105.796,5.09613,0.531007,2.298,18.2815,77,0,
105.796,5.09583,0.527955,2.298,18.2815,77,0,
105.796,5.09644,0.531007,2.298,18.2815,77,0,
105.796,5.09521,0.534059,2.298,18.2815,77,0,
105.796,5.09613,0.529481,2.298,18.2815,77,0,
105.796,5.09521,0.532533,2.298,18.2815,77,0,
105.796,5.0946,0.531007,2.298,18.2815,77,0,
105.796,5.09155,0.531007,2.298,18.2815,77,0,
105.796,5.09125,0.529481,2.298,18.2815,77,0,
105.796,5.08942,0.532533,2.298,18.2815,77,0,
105.796,5.09064,0.529481,2.298,18.2815,77,0,
105.796,5.09125,0.529481,2.298,18.2815,77,0,
105.796,5.09094,0.531007,2.298,18.2815,77,0,
105.796,5.09216,0.532533,2.298,18.2815,77,0,
105.796,5.08636,0.534059,2.298,18.2815,77,0,
105.796,5.08667,0.532533,2.298,18.2815,77,0,
105.796,5.08667,0.529481,2.298,18.2815,77,0,
105.796,5.08667,0.531007,2.298,18.2815,77,0,
105.796,5.08698,0.527955,2.298,18.2815,77,0,
105.796,5.08698,0.529481,2.298,18.2815,77,0,
105.796,5.08606,0.529481,2.298,18.2815,77,0,
105.796,5.0827,0.531007,2.298,18.2815,77,0,
105.796,5.08118,0.531007,2.298,18.2815,77,0,
105.797,5.08179,0.531007,2.298,18.2815,77,0,
105.797,5.08148,0.527955,2.298,18.2815,77,0,
105.797,5.08148,0.529481,2.298,18.2815,77,0,
105.797,5.08087,0.531007,2.298,18.2815,77,0,
105.797,5.08118,0.529481,2.298,18.2815,77,0,
105.797,5.07812,0.531007,2.298,18.2815,77,0,
105.797,5.0769,0.527955,2.298,18.2815,77,0,
105.797,5.0766,0.526429,2.298,18.2815,77,0,
105.797,5.07721,0.529481,2.298,18.2815,77,0,
105.797,5.0766,0.532533,2.298,18.2815,77,0,
105.797,5.07721,0.529481,2.298,18.2815,77,0,
105.797,5.0766,0.532533,2.298,18.2815,77,0,
105.797,5.07233,0.531007,2.298,18.2815,77,0,
105.797,5.07233,0.529481,2.298,18.2815,77,0,
105.797,5.07202,0.532533,2.298,18.2815,77,0,
105.797,5.07202,0.531007,2.298,18.2815,77,0,
105.797,5.07202,0.532533,2.298,18.2815,77,0,
105.797,5.07202,0.531007,2.298,18.2815,77,0,
105.797,5.06836,0.532533,2.298,18.2815,77,0,
105.797,5.06744,0.532533,2.298,18.2815,77,0,
105.797,5.06714,0.529481,2.298,18.2815,77,0,
105.797,5.06744,0.529481,2.298,18.2815,77,0,
105.797,5.06744,0.531007,2.298,18.2815,77,0,
105.797,5.06714,0.529481,2.298,18.2815,77,0,
105.797,5.06378,0.531007,2.298,18.2815,77,0,
105.797,5.06195,0.529481,2.298,18.2815,77,0,
105.797,5.06256,0.531007,2.298,18.2815,77,0,
105.797,5.06195,0.529481,2.298,18.2815,77,0,
105.797,5.06226,0.532533,2.298,18.2815,77,0,
105.797,5.06317,0.532533,2.298,18.2815,77,0,
105.798,5.05798,0.534059,2.298,18.2815,77,0,
105.798,5.05707,0.529481,2.298,18.2815,77,0,
105.798,5.05737,0.527955,2.298,18.2815,77,0,
105.798,5.05707,0.532533,2.298,18.2815,77,0,
105.798,5.05707,0.529481,2.298,18.2815,77,0,
105.798,5.05707,0.531007,2.298,18.2815,77,0,
105.798,5.0531,0.529481,2.298,18.2815,77,0,
105.798,5.0531,0.529481,2.298,18.2815,77,0,
105.798,5.0528,0.534059,2.298,18.2815,77,0,
105.798,5.05249,0.532533,2.298,18.2815,77,0,
105.798,5.05219,0.529481,2.298,18.2815,77,0,
105.798,5.05219,0.532533,2.298,18.2815,77,0,
105.798,5.04822,0.529481,2.298,18.2815,77,0,
105.798,5.04791,0.532533,2.298,18.2815,77,0,
105.798,5.0473,0.529481,2.298,18.2815,77,0,
105.798,5.04669,0.531007,2.298,18.2815,77,0,
105.798,5.04791,0.527955,2.298,18.2815,77,0,
105.798,5.04639,0.532533,2.298,18.2815,77,0,
105.798,5.04211,0.529481,2.298,18.2815,77,0,
105.798,5.04272,0.531007,2.298,18.2815,77,0,
105.798,5.04272,0.532533,2.298,18.2815,77,0,
105.798,5.04272,0.531007,2.298,18.2815,77,0,
105.798,5.04242,0.529481,2.298,18.2815,77,0,
105.798,5.03906,0.531007,2.298,18.2815,77,0,
105.798,5.03723,0.531007,2.298,18.2815,77,0,
105.798,5.03784,0.531007,2.298,18.2815,77,0,
105.798,5.03784,0.532533,2.298,18.2815,77,0,
105.798,5.03784,0.529481,2.298,18.2815,77,0,
105.798,5.03754,0.532533,2.298,18.2815,77,0,
105.799,5.03296,0.531007,2.298,18.2815,77,0,
105.799,5.03326,0.531007,2.298,18.2815,77,0,
105.799,5.03326,0.529481,2.298,18.2815,77,0,
105.799,5.03296,0.527955,2.298,18.2815,77,0,
105.799,5.03326,0.529481,2.298,18.2815,77,0,
105.799,5.0293,0.529481,2.298,18.2815,77,0,
105.799,5.02808,0.531007,2.298,18.2815,77,0,
105.799,5.02777,0.526429,2.298,18.2815,77,0,
105.799,5.02777,0.532533,2.298,18.2815,77,0,
105.799,5.02808,0.526429,2.298,18.2815,77,0,
105.799,5.02686,0.531007,2.298,18.2815,77,0,
105.799,5.0235,0.531007,2.298,18.2815,77,0,
105.799,5.02289,0.529481,2.298,18.2815,77,0,
105.799,5.0238,0.532533,2.298,18.2815,77,0,
105.799,5.0238,0.531007,2.298,18.2815,77,0,
105.799,5.02319,0.532533,2.298,18.2815,77,0,
105.799,5.01831,0.529481,2.298,18.2815,77,0,
105.799,5.01862,0.529481,2.298,18.2815,77,0,
105.799,5.01831,0.532533,2.298,18.2815,77,0,
105.799,5.01831,0.529481,2.298,18.2815,77,0,
105.799,5.01801,0.529481,2.298,18.2815,77,0,
105.799,5.01343,0.531007,2.298,18.2815,77,0,
105.799,5.01404,0.534059,2.298,18.2815,77,0,
105.799,5.01343,0.529481,2.298,18.2815,77,0,
105.799,5.01373,0.529481,2.298,18.2815,77,0,
105.799,5.01343,0.529481,2.298,18.2815,77,0,
105.799,5.00854,0.529481,2.298,18.2815,77,0,
105.799,5.00854,0.532533,2.298,18.2815,77,0,
105.799,5.00854,0.529481,2.298,18.2815,77,0,
105.799,5.00793,0.531007,2.298,18.2815,77,0,
105.799,5.00854,0.529481,2.298,18.2815,77,0,
105.8,5.00397,0.527955,2.298,18.2815,77,0,
105.8,5.00305,0.532533,2.298,18.2815,77,0,
105.8,5.00336,0.524903,2.298,18.2815,77,0,
105.8,5.00336,0.527955,2.298,18.2815,77,0,
105.8,5.00214,0.529481,2.298,18.2815,77,0,
105.8,4.99878,0.531007,2.298,18.2815,77,0,
105.8,4.99847,0.527955,2.298,18.2815,77,0,
105.8,4.99878,0.531007,2.298,18.2815,77,0,
105.8,4.99847,0.529481,2.298,18.2815,77,0,
105.8,4.9939,0.529481,2.298,18.2815,77,0,
105.8,4.9939,0.532533,2.298,18.2815,77,0,
105.8,4.99451,0.532533,2.298,18.2815,77,0,
105.8,4.99329,0.529481,2.298,18.2815,77,0,
105.8,4.99359,0.529481,2.298,18.2815,77,0,
105.8,4.98871,0.531007,2.298,18.2815,77,0,
105.8,4.98871,0.532533,2.298,18.2815,77,0,
105.8,4.9884,0.529481,2.298,18.2815,77,0,
105.8,4.9884,0.531007,2.298,18.2815,77,0,
105.8,4.98474,0.529481,2.298,18.2815,77,0,
105.8,4.98413,0.532533,2.298,18.2815,77,0,
105.8,4.98383,0.529481,2.298,18.2815,77,0,
105.8,4.98322,0.529481,2.298,18.2815,77,0,
105.8,4.9823,0.529481,2.298,18.2815,77,0,
105.8,4.97955,0.531007,2.298,18.2815,77,0,
105.8,4.97864,0.531007,2.298,18.2815,77,0,
105.8,4.97864,0.529481,2.298,18.2815,77,0,
105.8,4.97925,0.531007,2.298,18.2815,77,0,
105.8,4.97467,0.527955,2.298,18.2815,77,0,
105.8,4.97406,0.527955,2.298,18.2815,77,0,
105.8,4.97375,0.532533,2.298,18.2815,77,0,
105.801,4.97406,0.531007,2.298,18.2815,77,0,
105.801,4.9707,0.529481,2.298,18.2815,77,0,
105.801,4.96918,0.529481,2.298,18.2815,77,0,
105.801,4.96948,0.526429,2.298,18.2815,77,0,
105.801,4.96887,0.527955,2.298,18.2815,77,0,
105.801,4.96918,0.535584,2.298,18.2815,77,0,
105.801,4.96429,0.527955,2.298,18.2815,77,0,
105.801,4.96429,0.531007,2.298,18.2815,77,0,
105.801,4.96429,0.527955,2.298,18.2815,77,0,
105.801,4.96399,0.527955,2.298,18.2815,77,0,
105.801,4.95941,0.529481,2.298,18.2815,77,0,
105.801,4.95911,0.531007,2.298,18.2815,77,0,
105.801,4.95941,0.532533,2.298,18.2815,77,0,
105.801,4.9588,0.527955,2.298,18.2815,77,0,
105.801,4.95453,0.532533,2.298,18.2815,77,0,
105.801,4.95422,0.526429,2.298,18.2815,77,0,
105.801,4.95453,0.527955,2.298,18.2815,77,0,
105.801,4.95422,0.532533,2.298,18.2815,77,0,
105.801,4.95056,0.532533,2.298,18.2815,77,0,
105.801,4.94934,0.529481,2.298,18.2815,77,0,
105.801,4.94965,0.531007,2.298,18.2815,77,0,
105.801,4.94965,0.529481,2.298,18.2815,77,0,
105.801,4.94537,0.527955,2.298,18.2815,77,0,
105.801,4.94446,0.529481,2.298,18.2815,77,0,
105.801,4.94446,0.531007,2.298,18.2815,77,0,
105.801,4.94476,0.529481,2.298,18.2815,77,0,
105.801,4.93927,0.527955,2.298,18.2815,77,0,
105.801,4.93958,0.532533,2.298,18.2815,77,0,
105.801,4.93958,0.532533,2.298,18.2815,77,0,
105.802,4.93988,0.529481,2.298,18.2815,77,0,
105.802,4.935,0.531007,2.298,18.2815,77,0,
105.802,4.93408,0.529481,2.298,18.2815,77,0,
105.802,4.93378,0.531007,2.298,18.2815,77,0,
105.802,4.935,0.527955,2.298,18.2815,77,0,
105.802,4.92981,0.531007,2.298,18.2815,77,0,
105.802,4.92981,0.529481,2.298,18.2815,77,0,
105.802,4.93011,0.532533,2.298,18.2815,77,0,
105.802,4.92523,0.531007,2.298,18.2815,77,0,
105.802,4.92523,0.531007,2.298,18.2815,77,0,
105.802,4.92554,0.529481,2.298,18.2815,77,0,
105.802,4.92462,0.531007,2.298,18.2815,77,0,
105.802,4.92065,0.529481,2.298,18.2815,77,0,
105.802,4.92035,0.527955,2.298,18.2815,77,0,
105.802,4.92004,0.534059,2.298,18.2815,77,0,
105.802,4.91882,0.531007,2.298,18.2815,77,0,
105.802,4.91516,0.529481,2.298,18.2815,77,0,
105.802,4.91547,0.535584,2.298,18.2815,77,0,
105.802,4.91486,0.529481,2.298,18.2815,77,0,
105.802,4.91028,0.532533,2.298,18.2815,77,0,
105.802,4.91028,0.531007,2.298,18.2815,77,0,
105.802,4.91028,0.532533,2.298,18.2815,77,0,
105.802,4.90906,0.532533,2.298,18.2815,77,0,
105.802,4.9057,0.527955,2.298,18.2815,77,0,
105.802,4.90509,0.532533,2.298,18.2815,77,0,
105.802,4.90509,0.529481,2.298,18.2815,77,0,
105.802,4.90112,0.529481,2.298,18.2815,77,0,
105.802,4.8999,0.529481,2.298,18.2815,77,0,
105.802,4.90051,0.531007,2.298,18.2815,77,0,
105.802,4.89929,0.527955,2.298,18.2815,77,0,
105.802,4.89532,0.529481,2.298,18.2815,77,0,
105.803,4.89594,0.532533,2.298,18.2815,77,0,
105.803,4.89471,0.532533,2.298,18.2815,77,0,
105.803,4.89075,0.531007,2.298,18.2815,77,0,
105.803,4.89044,0.532533,2.298,18.2815,77,0,
105.803,4.89014,0.532533,2.298,18.2815,77,0,
105.803,4.88556,0.531007,2.298,18.2815,77,0,
105.803,4.88586,0.532533,2.298,18.2815,77,0,
105.803,4.88586,0.529481,2.298,18.2815,77,0,
105.803,4.8822,0.529481,2.298,18.2815,77,0,
105.803,4.88037,0.531007,2.298,18.2815,77,0,
105.803,4.88037,0.532533,2.298,18.2815,77,0,
105.803,4.87885,0.527955,2.298,18.2815,77,0,
105.803,4.8761,0.529481,2.298,18.2815,77,0,
105.803,4.87579,0.527955,2.298,18.2815,77,0,
105.803,4.87579,0.529481,2.298,18.2815,77,0,
105.803,4.87152,0.531007,2.298,18.2815,77,0,
105.803,4.87091,0.531007,2.298,18.2815,77,0,
105.803,4.87122,0.527955,2.298,18.2815,77,0,
105.803,4.86603,0.529481,2.298,18.2815,77,0,
105.803,4.86633,0.527955,2.298,18.2815,77,0,
105.803,4.86633,0.532533,2.298,18.2815,77,0,
105.803,4.86237,0.524903,2.298,18.2815,77,0,
105.803,4.86176,0.531007,2.298,18.2815,77,0,
105.803,4.86115,0.529481,2.298,18.2815,77,0,
105.803,4.85718,0.532533,2.298,18.2815,77,0,
105.803,4.85718,0.529481,2.298,18.2815,77,0,
105.803,4.85657,0.534059,2.298,18.2815,77,0,
105.803,4.85504,0.527955,2.298,18.2815,77,0,
105.803,4.85107,0.529481,2.298,18.2815,77,0,
105.803,4.85107,0.532533,2.298,18.2815,77,0,
105.804,4.84985,0.529481,2.298,18.2815,77,0,
105.804,4.84619,0.531007,2.298,18.2815,77,0,
105.804,4.84711,0.532533,2.298,18.2815,77,0,
105.804,4.8465,0.529481,2.298,18.2815,77,0,
105.804,4.84161,0.531007,2.298,18.2815,77,0,
105.804,4.84222,0.532533,2.298,18.2815,77,0,
105.804,4.84131,0.534059,2.298,18.2815,77,0,
105.804,4.83704,0.531007,2.298,18.2815,77,0,
105.804,4.83612,0.529481,2.298,18.2815,77,0,
105.804,4.83673,0.529481,2.298,18.2815,77,0,
105.804,4.83154,0.529481,2.298,18.2815,77,0,
105.804,4.83185,0.529481,2.298,18.2815,77,0,
105.804,4.83154,0.529481,2.298,18.2815,77,0,
105.804,4.82758,0.529481,2.298,18.2815,77,0,
105.804,4.82666,0.531007,2.298,18.2815,77,0,
105.804,4.82727,0.531007,2.298,18.2815,77,0,
105.804,4.82239,0.534059,2.298,18.2815,77,0,
105.804,4.82208,0.529481,2.298,18.2815,77,0,
105.804,4.82239,0.531007,2.298,18.2815,77,0,
105.804,4.8175,0.527955,2.298,18.2815,77,0,
105.804,4.8175,0.531007,2.298,18.2815,77,0,
105.804,4.81781,0.527955,2.298,18.2815,77,0,
105.804,4.81262,0.527955,2.298,18.2815,77,0,
105.804,4.81262,0.526429,2.298,18.2815,77,0,
105.804,4.8114,0.531007,2.298,18.2815,77,0,
105.804,4.80743,0.529481,2.298,18.2815,77,0,
105.804,4.80713,0.529481,2.298,18.2815,77,0,
105.804,4.80774,0.529481,2.298,18.2815,77,0,
105.804,4.80255,0.529481,2.298,18.2815,77,0,
105.805,4.80255,0.529481,2.298,18.2815,77,0,
105.805,4.80255,0.529481,2.298,18.2815,77,0,
105.805,4.79767,0.529481,2.298,18.2815,77,0,
105.805,4.79736,0.529481,2.298,18.2815,77,0,
105.805,4.79797,0.529481,2.298,18.2815,77,0,
105.805,4.79309,0.531007,2.298,18.2815,77,0,
105.805,4.79248,0.531007,2.298,18.2815,77,0,
105.805,4.79279,0.529481,2.298,18.2815,77,0,
105.805,4.78821,0.529481,2.298,18.2815,77,0,
105.805,4.78821,0.532533,2.298,18.2815,77,0,
105.805,4.7879,0.531007,2.298,18.2815,77,0,
105.805,4.78271,0.529481,2.298,18.2815,77,0,
105.805,4.78271,0.534059,2.298,18.2815,77,0,
105.805,4.78302,0.531007,2.298,18.2815,77,0,
105.805,4.77844,0.532533,2.298,18.2815,77,0,
105.805,4.77722,0.529481,2.298,18.2815,77,0,
105.805,4.77814,0.527955,2.298,18.2815,77,0,
105.805,4.77325,0.531007,2.298,18.2815,77,0,
105.805,4.77264,0.532533,2.298,18.2815,77,0,
105.805,4.77325,0.531007,2.298,18.2815,77,0,
105.805,4.76807,0.529481,2.298,18.2815,77,0,
105.805,4.76837,0.531007,2.298,18.2815,77,0,
105.805,4.76654,0.529481,2.298,18.2815,77,0,
105.805,4.76318,0.529481,2.298,18.2815,77,0,
105.805,4.76318,0.529481,2.298,18.2815,77,0,
105.805,4.76135,0.531007,2.298,18.2815,77,0,
105.805,4.758,0.532533,2.298,18.2815,77,0,
105.805,4.75861,0.531007,2.298,18.2815,77,0,
105.805,4.75464,0.531007,2.298,18.2815,77,0,
105.805,4.75342,0.531007,2.298,18.2815,77,0,
105.805,4.75342,0.531007,2.298,18.2815,77,0,
105.806,4.74976,0.531007,2.298,18.2815,77,0,
105.806,4.74854,0.529481,2.298,18.2815,77,0,
105.806,4.74792,0.527955,2.298,18.2815,77,0,
105.806,4.74365,0.529481,2.298,18.2815,77,0,
105.806,4.74396,0.531007,2.298,18.2815,77,0,
105.806,4.74426,0.532533,2.298,18.2815,77,0,
105.806,4.73846,0.529481,2.298,18.2815,77,0,
105.806,4.73877,0.532533,2.298,18.2815,77,0,
105.806,4.73846,0.526429,2.298,18.2815,77,0,
105.806,4.73419,0.527955,2.298,18.2815,77,0,
105.806,4.73389,0.532533,2.298,18.2815,77,0,
105.806,4.73236,0.531007,2.298,18.2815,77,0,
105.806,4.729,0.529481,2.298,18.2815,77,0,
105.806,4.729,0.529481,2.298,18.2815,77,0,
105.806,4.72504,0.529481,2.298,18.2815,77,0,
105.806,4.72473,0.531007,2.298,18.2815,77,0,
105.806,4.72382,0.532533,2.298,18.2815,77,0,
105.806,4.72015,0.527955,2.298,18.2815,77,0,
105.806,4.71924,0.532533,2.298,18.2815,77,0,
105.806,4.71893,0.532533,2.298,18.2815,77,0,
105.806,4.71466,0.531007,2.298,18.2815,77,0,
105.806,4.71405,0.531007,2.298,18.2815,77,0,
105.806,4.71497,0.529481,2.298,18.2815,77,0,
105.806,4.70947,0.527955,2.298,18.2815,77,0,
105.806,4.70978,0.531007,2.298,18.2815,77,0,
105.806,4.71008,0.531007,2.298,18.2815,77,0,
105.806,4.7052,0.527955,2.298,18.2815,77,0,
105.806,4.70428,0.529481,2.298,18.2815,77,0,
105.806,4.70306,0.531007,2.298,18.2815,77,0,
105.806,4.70001,0.529481,2.298,18.2815,77,0,
105.807,4.6994,0.529481,2.298,18.2815,77,0,
105.807,4.69574,0.526429,2.298,18.2815,77,0,
105.807,4.69452,0.529481,2.298,18.2815,77,0,
105.807,4.69482,0.531007,2.298,18.2815,77,0,
105.807,4.69055,0.529481,2.298,18.2815,77,0,
105.807,4.68994,0.534059,2.298,18.2815,77,0,
105.807,4.68994,0.526429,2.298,18.2815,77,0,
105.807,4.68567,0.531007,2.298,18.2815,77,0,
105.807,4.68414,0.529481,2.298,18.2815,77,0,
105.807,4.68506,0.531007,2.298,18.2815,77,0,
105.807,4.67957,0.534059,2.298,18.2815,77,0,
105.807,4.67957,0.532533,2.298,18.2815,77,0,
105.807,4.67804,0.527955,2.298,18.2815,77,0,
105.807,4.67438,0.531007,2.298,18.2815,77,0,
105.807,4.67468,0.531007,2.298,18.2815,77,0,
105.807,4.67102,0.531007,2.298,18.2815,77,0,
105.807,4.6698,0.532533,2.298,18.2815,77,0,
105.807,4.67041,0.529481,2.298,18.2815,77,0,
105.807,4.66553,0.527955,2.298,18.2815,77,0,
105.807,4.66461,0.527955,2.298,18.2815,77,0,
105.807,4.66522,0.531007,2.298,18.2815,77,0,
105.807,4.66064,0.531007,2.298,18.2815,77,0,
105.807,4.66034,0.531007,2.298,18.2815,77,0,
105.807,4.66034,0.535584,2.298,18.2815,77,0,
105.807,4.65515,0.535584,2.298,18.2815,77,0,
105.807,4.65546,0.532533,2.298,18.2815,77,0,
105.807,4.65363,0.527955,2.298,18.2815,77,0,
105.807,4.65149,0.532533,2.298,18.2815,77,0,
105.807,4.65057,0.531007,2.298,18.2815,77,0,
105.808,4.64661,0.532533,2.298,18.2815,77,0,
105.808,4.646,0.531007,2.298,18.2815,77,0,
105.808,4.64569,0.532533,2.298,18.2815,77,0,
105.808,4.64111,0.529481,2.298,18.2815,77,0,
105.808,4.64172,0.527955,2.298,18.2815,77,0,
105.808,4.64111,0.532533,2.298,18.2815,77,0,
105.808,4.63715,0.529481,2.298,18.2815,77,0,
105.808,4.63684,0.532533,2.298,18.2815,77,0,
105.808,4.63501,0.529481,2.298,18.2815,77,0,
105.808,4.63257,0.532533,2.298,18.2815,77,0,
105.808,4.63226,0.532533,2.298,18.2815,77,0,
105.808,4.62738,0.531007,2.298,18.2815,77,0,
105.808,4.62677,0.532533,2.298,18.2815,77,0,
105.808,4.62708,0.532533,2.298,18.2815,77,0,
105.808,4.62158,0.526429,2.298,18.2815,77,0,
105.808,4.62097,0.531007,2.298,18.2815,77,0,
105.808,4.62067,0.531007,2.298,18.2815,77,0,
105.808,4.61639,0.531007,2.298,18.2815,77,0,
105.808,4.61578,0.527955,2.298,18.2815,77,0,
105.808,4.61395,0.529481,2.298,18.2815,77,0,
105.808,4.6106,0.529481,2.298,18.2815,77,0,
105.808,4.61151,0.527955,2.298,18.2815,77,0,
105.808,4.60693,0.529481,2.298,18.2815,77,0,
105.808,4.60632,0.527955,2.298,18.2815,77,0,
105.808,4.60663,0.532533,2.298,18.2815,77,0,
105.808,4.60266,0.531007,2.298,18.2815,77,0,
105.808,4.60144,0.529481,2.298,18.2815,77,0,
105.808,4.60052,0.531007,2.298,18.2815,77,0,
105.808,4.59625,0.531007,2.298,18.2815,77,0,
105.808,4.59656,0.527955,2.298,18.2815,77,0,
105.808,4.59686,0.531007,2.298,18.2815,77,0,
105.809,4.59137,0.529481,2.298,18.2815,77,0,
105.809,4.59198,0.532533,2.298,18.2815,77,0,
105.809,4.58984,0.529481,2.298,18.2815,77,0,
105.809,4.5871,0.529481,2.298,18.2815,77,0,
105.809,4.58679,0.531007,2.298,18.2815,77,0,
105.809,4.58557,0.527955,2.298,18.2815,77,0,
105.809,4.58252,0.529481,2.298,18.2815,77,0,
105.809,4.5813,0.532533,2.298,18.2815,77,0,
105.809,4.57794,0.529481,2.298,18.2815,77,0,
105.809,4.57672,0.532533,2.298,18.2815,77,0,
105.809,4.57703,0.532533,2.298,18.2815,77,0,
105.809,4.57214,0.529481,2.298,18.2815,77,0,
105.809,4.57245,0.532533,2.298,18.2815,77,0,
105.809,4.57184,0.531007,2.298,18.2815,77,0,
105.809,4.56726,0.531007,2.298,18.2815,77,0,
105.809,4.56665,0.529481,2.298,18.2815,77,0,
105.809,4.56726,0.532533,2.298,18.2815,77,0,
105.809,4.56238,0.531007,2.298,18.2815,77,0,
105.809,4.56207,0.529481,2.298,18.2815,77,0,
105.809,4.56238,0.529481,2.298,18.2815,77,0,
105.809,4.5575,0.532533,2.298,18.2815,77,0,
105.809,4.5575,0.531007,2.298,18.2815,77,0,
105.809,4.55627,0.527955,2.298,18.2815,77,0,
105.809,4.55231,0.532533,2.298,18.2815,77,0,
105.809,4.55261,0.527955,2.298,18.2815,77,0,
105.809,4.55048,0.529481,2.298,18.2815,77,0,
105.809,4.54742,0.534059,2.298,18.2815,77,0,
105.809,4.54773,0.531007,2.298,18.2815,77,0,
105.809,4.54651,0.531007,2.298,18.2815,77,0,
105.809,4.54285,0.527955,2.298,18.2815,77,0,
105.81,4.54285,0.529481,2.298,18.2815,77,0,
105.81,4.54163,0.527955,2.298,18.2815,77,0,
105.81,4.53827,0.531007,2.298,18.2815,77,0,
105.81,4.53766,0.529481,2.298,18.2815,77,0,
105.81,4.53583,0.532533,2.298,18.2815,77,0,
105.81,4.53308,0.529481,2.298,18.2815,77,0,
105.81,4.53339,0.531007,2.298,18.2815,77,0,
105.81,4.53186,0.526429,2.298,18.2815,77,0,
105.81,4.5282,0.532533,2.298,18.2815,77,0,
105.81,4.52881,0.529481,2.298,18.2815,77,0,
105.81,4.52698,0.531007,2.298,18.2815,77,0,
105.81,4.52271,0.529481,2.298,18.2815,77,0,
105.81,4.52332,0.531007,2.298,18.2815,77,0,
105.81,4.52209,0.529481,2.298,18.2815,77,0,
105.81,4.51813,0.529481,2.298,18.2815,77,0,
105.81,4.51813,0.531007,2.298,18.2815,77,0,
105.81,4.51691,0.532533,2.298,18.2815,77,0,
105.81,4.51355,0.529481,2.298,18.2815,77,0,
105.81,4.51294,0.529481,2.298,18.2815,77,0,
105.81,4.51324,0.529481,2.298,18.2815,77,0,
105.81,4.50897,0.534059,2.298,18.2815,77,0,
105.81,4.50867,0.531007,2.298,18.2815,77,0,
105.81,4.50836,0.531007,2.298,18.2815,77,0,
105.81,4.50348,0.529481,2.298,18.2815,77,0,
105.81,4.50348,0.526429,2.298,18.2815,77,0,
105.81,4.50439,0.531007,2.298,18.2815,77,0,
105.81,4.49829,0.527955,2.298,18.2815,77,0,
105.81,4.4989,0.531007,2.298,18.2815,77,0,
105.81,4.4986,0.531007,2.298,18.2815,77,0,
105.811,4.49371,0.531007,2.298,18.2815,77,0,
105.811,4.49341,0.531007,2.298,18.2815,77,0,
105.811,4.49341,0.526429,2.298,18.2815,77,0,
105.811,4.48944,0.531007,2.298,18.2815,77,0,
105.811,4.48914,0.531007,2.298,18.2815,77,0,
105.811,4.48914,0.529481,2.298,18.2815,77,0,
105.811,4.487,0.531007,2.298,18.2815,77,0,
105.811,4.48395,0.532533,2.298,18.2815,77,0,
105.811,4.48425,0.534059,2.298,18.2815,77,0,
105.811,4.48456,0.531007,2.298,18.2815,77,0,
105.811,4.47906,0.527955,2.298,18.2815,77,0,
105.811,4.47937,0.529481,2.298,18.2815,77,0,
105.811,4.47906,0.532533,2.298,18.2815,77,0,
105.811,4.47479,0.531007,2.298,18.2815,77,0,
105.811,4.47388,0.531007,2.298,18.2815,77,0,
105.811,4.47449,0.531007,2.298,18.2815,77,0,
105.811,4.47021,0.531007,2.298,18.2815,77,0,
105.811,4.4693,0.532533,2.298,18.2815,77,0,
105.811,4.4696,0.532533,2.298,18.2815,77,0,
105.811,4.46991,0.529481,2.298,18.2815,77,0,
105.811,4.46472,0.531007,2.298,18.2815,77,0,
105.811,4.46381,0.529481,2.298,18.2815,77,0,
105.811,4.46411,0.531007,2.298,18.2815,77,0,
105.811,4.45984,0.529481,2.298,18.2815,77,0,
105.811,4.45923,0.531007,2.298,18.2815,77,0,
105.811,4.45923,0.532533,2.298,18.2815,77,0,
105.811,4.45892,0.531007,2.298,18.2815,77,0,
105.811,4.45465,0.527955,2.298,18.2815,77,0,
105.811,4.45465,0.529481,2.298,18.2815,77,0,
105.811,4.45465,0.529481,2.298,18.2815,77,0,
105.811,4.45312,0.531007,2.298,18.2815,77,0,
105.812,4.44946,0.526429,2.298,18.2815,77,0,
105.812,4.45038,0.531007,2.298,18.2815,77,0,
105.812,4.44916,0.532533,2.298,18.2815,77,0,
105.812,4.44641,0.531007,2.298,18.2815,77,0,
105.812,4.44489,0.526429,2.298,18.2815,77,0,
105.812,4.44489,0.529481,2.298,18.2815,77,0,
105.812,4.44489,0.532533,2.298,18.2815,77,0,
105.812,4.44061,0.531007,2.298,18.2815,77,0,
105.812,4.44031,0.532533,2.298,18.2815,77,0,
105.812,4.44031,0.529481,2.298,18.2815,77,0,
105.812,4.44,0.527955,2.298,18.2815,77,0,
105.812,4.43481,0.531007,2.298,18.2815,77,0,
105.812,4.43481,0.531007,2.298,18.2815,77,0,
105.812,4.43481,0.529481,2.298,18.2815,77,0,
105.812,4.43481,0.529481,2.298,18.2815,77,0,
105.812,4.43054,0.532533,2.298,18.2815,77,0,
105.812,4.43024,0.531007,2.298,18.2815,77,0,
105.812,4.43024,0.527955,2.298,18.2815,77,0,
105.812,4.42993,0.531007,2.298,18.2815,77,0,
105.812,4.42627,0.531007,2.298,18.2815,77,0,
105.812,4.42535,0.531007,2.298,18.2815,77,0,
105.812,4.42566,0.532533,2.298,18.2815,77,0,
105.812,4.42596,0.529481,2.298,18.2815,77,0,
105.812,4.42352,0.532533,2.298,18.2815,77,0,
105.812,4.42108,0.529481,2.298,18.2815,77,0,
105.812,4.42078,0.527955,2.298,18.2815,77,0,
105.812,4.42017,0.531007,2.298,18.2815,77,0,
105.812,4.42047,0.527955,2.298,18.2815,77,0,
105.812,4.4165,0.529481,2.298,18.2815,77,0,
105.812,4.41498,0.529481,2.298,18.2815,77,0,
105.813,4.41559,0.529481,2.298,18.2815,77,0,
105.813,4.41559,0.531007,2.298,18.2815,77,0,
105.813,4.41589,0.531007,2.298,18.2815,77,0,
105.813,4.41071,0.527955,2.298,18.2815,77,0,
105.813,4.4101,0.529481,2.298,18.2815,77,0,
105.813,4.40979,0.529481,2.298,18.2815,77,0,
105.813,4.4104,0.529481,2.298,18.2815,77,0,
105.813,4.4104,0.531007,2.298,18.2815,77,0,
105.813,4.40582,0.531007,2.298,18.2815,77,0,
105.813,4.40582,0.529481,2.298,18.2815,77,0,
105.813,4.40582,0.529481,2.298,18.2815,77,0,
105.813,4.40582,0.531007,2.298,18.2815,77,0,
105.813,4.40613,0.529481,2.298,18.2815,77,0,
105.813,4.40399,0.527955,2.298,18.2815,77,0,
105.813,4.40063,0.534059,2.298,18.2815,77,0,
105.813,4.40094,0.529481,2.298,18.2815,77,0,
105.813,4.40063,0.531007,2.298,18.2815,77,0,
105.813,4.39972,0.531007,2.298,18.2815,77,0,
105.813,4.40063,0.531007,2.298,18.2815,77,0,
105.813,4.39636,0.529481,2.298,18.2815,77,0,
105.813,4.39575,0.531007,2.298,18.2815,77,0,
105.813,4.39575,0.531007,2.298,18.2815,77,0,
105.813,4.39575,0.531007,2.298,18.2815,77,0,
105.813,4.39545,0.531007,2.298,18.2815,77,0,
105.813,4.39575,0.527955,2.298,18.2815,77,0,
105.813,4.39606,0.529481,2.298,18.2815,77,0,
105.813,4.39026,0.529481,2.298,18.2815,77,0,
105.813,4.39026,0.531007,2.298,18.2815,77,0,
105.813,4.39056,0.532533,2.298,18.2815,77,0,
105.814,4.39087,0.529481,2.298,18.2815,77,0,
105.814,4.39056,0.531007,2.298,18.2815,77,0,
105.814,4.39026,0.531007,2.298,18.2815,77,0,
105.814,4.39087,0.532533,2.298,18.2815,77,0,
105.814,4.38599,0.531007,2.298,18.2815,77,0,
105.814,4.38568,0.531007,2.298,18.2815,77,0,
105.814,4.38599,0.527955,2.298,18.2815,77,0,
105.814,4.38599,0.529481,2.298,18.2815,77,0,
105.814,4.38568,0.531007,2.298,18.2815,77,0,
105.814,4.38599,0.532533,2.298,18.2815,77,0,
105.814,4.38568,0.534059,2.298,18.2815,77,0,
105.814,4.38385,0.529481,2.298,18.2815,77,0,
105.814,4.38141,0.531007,2.298,18.2815,77,0,
105.814,4.38141,0.527955,2.298,18.2815,77,0,
105.814,4.3808,0.527955,2.298,18.2815,77,0,
105.814,4.3808,0.529481,2.298,18.2815,77,0,
105.814,4.3808,0.529481,2.298,18.2815,77,0,
105.814,4.3811,0.531007,2.298,18.2815,77,0,
105.814,4.3811,0.529481,2.298,18.2815,77,0,
105.814,4.38141,0.531007,2.298,18.2815,77,0,
105.814,4.37927,0.531007,2.298,18.2815,77,0,
105.814,4.37592,0.527955,2.298,18.2815,77,0,
105.814,4.37561,0.529481,2.298,18.2815,77,0,
105.814,4.37653,0.529481,2.298,18.2815,77,0,
105.814,4.37622,0.531007,2.298,18.2815,77,0,
105.814,4.37622,0.531007,2.298,18.2815,77,0,
105.814,4.37622,0.529481,2.298,18.2815,77,0,
105.814,4.37592,0.531007,2.298,18.2815,77,0,
105.814,4.37653,0.531007,2.298,18.2815,77,0,
105.814,4.37622,0.531007,2.298,18.2815,77,0,
105.814,4.37622,0.532533,2.298,18.2815,77,0,
105.815,4.37256,0.529481,2.298,18.2815,77,0,
105.815,4.37103,0.532533,2.298,18.2815,77,0,
105.815,4.37134,0.531007,2.298,18.2815,77,0,
105.815,4.37134,0.531007,2.298,18.2815,77,0,
105.815,4.37134,0.534059,2.298,18.2815,77,0,
105.815,4.37134,0.531007,2.298,18.2815,77,0,
105.815,4.37134,0.529481,2.298,18.2815,77,0,
105.815,4.37134,0.532533,2.298,18.2815,77,0,
105.815,4.37103,0.527955,2.298,18.2815,77,0,
105.815,4.37134,0.531007,2.298,18.2815,77,0,
105.815,4.37103,0.531007,2.298,18.2815,77,0,
105.815,4.37073,0.532533,2.298,18.2815,77,0,
105.815,4.37134,0.531007,2.298,18.2815,77,0,
105.815,4.37195,0.532533,2.298,18.2815,77,0,
105.815,4.37012,0.531007,2.298,18.2815,77,0,
105.815,4.36707,0.531007,2.298,18.2815,77,0,
105.815,4.36676,0.532533,2.298,18.2815,77,0,
105.815,4.36615,0.531007,2.298,18.2815,77,0,
105.815,4.36646,0.527955,2.298,18.2815,77,0,
105.815,4.36615,0.529481,2.298,18.2815,77,0,
105.815,4.36676,0.529481,2.298,18.2815,77,0,
105.815,4.36646,0.527955,2.298,18.2815,77,0,
105.815,4.36615,0.526429,2.298,18.2815,77,0,
105.815,4.36615,0.527955,2.298,18.2815,77,0,
105.815,4.36676,0.529481,2.298,18.2815,77,0,
105.815,4.36676,0.531007,2.298,18.2815,77,0,
105.815,4.36615,0.529481,2.298,18.2815,77,0,
105.815,4.36646,0.531007,2.298,18.2815,77,0,
105.815,4.36646,0.529481,2.298,18.2815,77,0,
105.816,4.36615,0.529481,2.298,18.2815,77,0,
105.816,4.36615,0.529481,2.298,18.2815,77,0,
105.816,4.36676,0.532533,2.298,18.2815,77,0,
105.816,4.36584,0.527955,2.298,18.2815,77,0,
105.816,4.36615,0.529481,2.298,18.2815,77,0,
105.816,4.36676,0.534059,2.298,18.2815,77,0,
105.816,4.36584,0.529481,2.298,18.2815,77,0,
105.816,4.36615,0.529481,2.298,18.2815,77,0,
105.816,4.36523,0.527955,2.298,18.2815,77,0,
105.816,4.36157,0.527955,2.298,18.2815,77,0,
105.816,4.36157,0.531007,2.298,18.2815,77,0,
105.816,4.36096,0.532533,2.298,18.2815,77,0,
105.816,4.36127,0.531007,2.298,18.2815,77,0,
105.816,4.36096,0.529481,2.298,18.2815,77,0,
105.816,4.36127,0.529481,2.298,18.2815,77,0,
105.816,4.36188,0.532533,2.298,18.2815,77,0,
105.816,4.36066,0.531007,2.298,18.2815,77,0,
105.816,4.36157,0.527955,2.298,18.2815,77,0,
105.816,4.36157,0.529481,2.298,18.2815,77,0,
105.816,4.36157,0.531007,2.298,18.2815,77,0,
105.816,4.36127,0.532533,2.298,18.2815,77,0,
105.816,4.36096,0.527955,2.298,18.2815,77,0,
105.816,4.36127,0.531007,2.298,18.2815,77,0,
105.816,4.36096,0.531007,2.298,18.2815,77,0,
105.816,4.36218,0.527955,2.298,18.2815,77,0,
105.816,4.36188,0.532533,2.298,18.2815,77,0,
105.816,4.36096,0.529481,2.298,18.2815,77,0,
105.816,4.36188,0.531007,2.298,18.2815,77,0,
105.816,4.36157,0.529481,2.298,18.2815,77,0,
105.816,4.36127,0.534059,2.298,18.2815,77,0,
105.817,4.36096,0.529481,2.298,18.2815,77,0,
105.817,4.36157,0.532533,2.298,18.2815,77,0,
105.817,4.36127,0.531007,2.298,18.2815,77,0,
105.817,4.36127,0.531007,2.298,18.2815,77,0,
105.817,4.36157,0.529481,2.298,18.2815,77,0,
105.817,4.36127,0.531007,2.298,18.2815,77,0,
105.817,4.36157,0.531007,2.298,18.2815,77,0,
105.817,4.36157,0.532533,2.298,18.2815,77,0,
105.817,4.36127,0.524903,2.298,18.2815,77,0,
105.817,4.36096,0.529481,2.298,18.2815,77,0,
105.817,4.36127,0.527955,2.298,18.2815,77,0,
105.817,4.36188,0.532533,2.298,18.2815,77,0,
105.817,4.36096,0.529481,2.298,18.2815,77,0,
105.817,4.36157,0.526429,2.298,18.2815,77,0,
105.817,4.36157,0.527955,2.298,18.2815,77,0,
105.817,4.36127,0.531007,2.298,18.2815,77,0,
105.817,4.36188,0.529481,2.298,18.2815,77,0,
105.817,4.36157,0.529481,2.298,18.2815,77,0,
105.817,4.36157,0.529481,2.298,18.2815,77,0,
105.817,4.36157,0.531007,2.298,18.2815,77,0,
105.817,4.36096,0.527955,2.298,18.2815,77,0,
105.817,4.36157,0.531007,2.298,18.2815,77,0,
105.817,4.36157,0.529481,2.298,18.2815,77,0,
105.817,4.36127,0.529481,2.298,18.2815,77,0,
105.817,4.36127,0.529481,2.298,18.2815,77,0,
105.817,4.36157,0.531007,2.298,18.2815,77,0,
105.817,4.36157,0.529481,2.298,18.2815,77,0,
105.817,4.36096,0.532533,2.298,18.2815,77,0,
105.817,4.36127,0.529481,2.298,18.2815,77,0,
105.817,4.36127,0.527955,2.298,18.2815,77,0,
105.817,4.36127,0.529481,2.298,18.2815,77,0,
105.818,4.36096,0.531007,2.298,18.2815,77,0,
105.818,4.36157,0.529481,2.298,18.2815,77,0,
105.818,4.36127,0.529481,2.298,18.2815,77,0,
105.818,4.36096,0.529481,2.298,18.2815,77,0,
105.818,4.36157,0.532533,2.298,18.2815,77,0,
105.818,4.36157,0.534059,2.298,18.2815,77,0,
105.818,4.36127,0.527955,2.298,18.2815,77,0,
105.818,4.36157,0.531007,2.298,18.2815,77,0,
105.818,4.36157,0.531007,2.298,18.2815,77,0,
105.818,4.36157,0.532533,2.298,18.2815,77,0,
105.818,4.36157,0.531007,2.298,18.2815,77,0,
105.818,4.36127,0.534059,2.298,18.2815,77,0,
105.818,4.36157,0.531007,2.298,18.2815,77,0,
105.818,4.36127,0.532533,2.298,18.2815,77,0,
105.818,4.36127,0.532533,2.298,18.2815,77,0,
105.818,4.36157,0.529481,2.298,18.2815,77,0,
105.818,4.36157,0.532533,2.298,18.2815,77,0,
105.818,4.36584,0.529481,2.298,18.2815,77,0,
105.818,4.36737,0.527955,2.298,18.2815,77,0,
105.818,4.36676,0.531007,2.298,18.2815,77,0,
105.818,4.36554,0.531007,2.298,18.2815,77,0,
105.818,4.36615,0.531007,2.298,18.2815,77,0,
105.818,4.36646,0.532533,2.298,18.2815,77,0,
105.818,4.36676,0.531007,2.298,18.2815,77,0,
105.818,4.36646,0.532533,2.298,18.2815,77,0,
105.818,4.36646,0.531007,2.298,18.2815,77,0,
105.818,4.36676,0.531007,2.298,18.2815,77,0,
105.818,4.36646,0.531007,2.298,18.2815,77,0,
105.818,4.36646,0.532533,2.298,18.2815,77,0,
105.819,4.36615,0.529481,2.298,18.2815,77,0,
105.819,4.36646,0.531007,2.298,18.2815,77,0,
105.819,4.36676,0.531007,2.298,18.2815,77,0,
105.819,4.36676,0.529481,2.298,18.2815,77,0,
105.819,4.36676,0.531007,2.298,18.2815,77,0,
105.819,4.36737,0.531007,2.298,18.2815,77,0,
105.819,4.36554,0.529481,2.298,18.2815,77,0,
105.819,4.36646,0.531007,2.298,18.2815,77,0,
105.819,4.36676,0.529481,2.298,18.2815,77,0,
105.819,4.36676,0.527955,2.298,18.2815,77,0,
105.819,4.36676,0.532533,2.298,18.2815,77,0,
105.819,4.36676,0.529481,2.298,18.2815,77,0,
105.819,4.36646,0.531007,2.298,18.2815,77,0,
105.819,4.36646,0.534059,2.298,18.2815,77,0,
105.819,4.36615,0.531007,2.298,18.2815,77,0,
105.819,4.36676,0.534059,2.298,18.2815,77,0,
105.819,4.36646,0.531007,2.298,18.2815,77,0,
105.819,4.36615,0.532533,2.298,18.2815,77,0,
105.819,4.36676,0.529481,2.298,18.2815,77,0,
105.819,4.36676,0.532533,2.298,18.2815,77,0,
105.819,4.36615,0.529481,2.298,18.2815,77,0,
105.819,4.36676,0.531007,2.298,18.2815,77,0,
105.819,4.36707,0.529481,2.298,18.2815,77,0,
105.819,4.36615,0.527955,2.298,18.2815,77,0,
105.819,4.36646,0.531007,2.298,18.2815,77,0,
105.819,4.36584,0.532533,2.298,18.2815,77,0,
105.819,4.36676,0.529481,2.298,18.2815,77,0,
105.819,4.36676,0.529481,2.298,18.2815,77,0,
105.819,4.36615,0.531007,2.298,18.2815,77,0,
105.819,4.36676,0.531007,2.298,18.2815,77,0,
105.82,4.36615,0.534059,2.298,18.2815,77,0,
105.82,4.37042,0.531007,2.298,18.2815,77,0,
105.82,4.37103,0.531007,2.298,18.2815,77,0,
105.82,4.37103,0.532533,2.298,18.2815,77,0,
105.82,4.37225,0.532533,2.298,18.2815,77,0,
105.82,4.37134,0.531007,2.298,18.2815,77,0,
105.82,4.37134,0.531007,2.298,18.2815,77,0,
105.82,4.37164,0.531007,2.298,18.2815,77,0,
105.82,4.37164,0.529481,2.298,18.2815,77,0,
105.82,4.37164,0.529481,2.298,18.2815,77,0,
105.82,4.37134,0.534059,2.298,18.2815,77,0,
105.82,4.37103,0.529481,2.298,18.2815,77,0,
105.82,4.37103,0.527955,2.298,18.2815,77,0,
105.82,4.37103,0.532533,2.298,18.2815,77,0,
105.82,4.37134,0.527955,2.298,18.2815,77,0,
105.82,4.37134,0.532533,2.298,18.2815,77,0,
105.82,4.37164,0.532533,2.298,18.2815,77,0,
105.82,4.37134,0.526429,2.298,18.2815,77,0,
105.82,4.37195,0.532533,2.298,18.2815,77,0,
105.82,4.37103,0.532533,2.298,18.2815,77,0,
105.82,4.37134,0.531007,2.298,18.2815,77,0,
105.82,4.37134,0.532533,2.298,18.2815,77,0,
105.82,4.37164,0.529481,2.298,18.2815,77,0,
105.82,4.37195,0.527955,2.298,18.2815,77,0,
105.82,4.37164,0.529481,2.298,18.2815,77,0,
105.82,4.37134,0.534059,2.298,18.2815,77,0,
105.82,4.37164,0.532533,2.298,18.2815,77,0,
105.82,4.37164,0.534059,2.298,18.2815,77,0,
105.82,4.37164,0.532533,2.298,18.2815,77,0,
105.82,4.37164,0.531007,2.298,18.2815,77,0,
105.82,4.37164,0.529481,2.298,18.2815,77,0,
105.821,4.37195,0.532533,2.298,18.2815,77,0,
105.821,4.37195,0.531007,2.298,18.2815,77,0,
105.821,4.37134,0.531007,2.298,18.2815,77,0,
105.821,4.37164,0.529481,2.298,18.2815,77,0,
105.821,4.37103,0.531007,2.298,18.2815,77,0,
105.821,4.37164,0.529481,2.298,18.2815,77,0,
105.821,4.37103,0.531007,2.298,18.2815,77,0,
105.821,4.37134,0.532533,2.298,18.2815,77,0,
105.821,4.37164,0.531007,2.298,18.2815,77,0,
105.821,4.37286,0.529481,2.298,18.2815,77,0,
105.821,4.37592,0.531007,2.298,18.2815,77,0,
105.821,4.37592,0.531007,2.298,18.2815,77,0,
105.821,4.37622,0.532533,2.298,18.2815,77,0,
105.821,4.37561,0.526429,2.298,18.2815,77,0,
105.821,4.37622,0.529481,2.298,18.2815,77,0,
105.821,4.37653,0.529481,0,18.2815,77,0,
105.821,4.37622,0.531007,0,18.2815,77,0,
105.821,4.37561,0.532533,0,18.2815,77,0,
105.821,4.37653,0.531007,0,18.2815,77,0,
105.821,4.37531,0.532533,0,18.2815,77,0,
105.821,4.37622,0.531007,0,18.2815,77,0,
105.821,4.37622,0.531007,0,18.2815,77,0,
105.821,4.37622,0.531007,0,18.2815,77,0,
105.821,4.37653,0.531007,0,18.2815,77,0,
105.821,4.37622,0.531007,0,18.2815,77,0,
105.821,4.37561,0.532533,0,18.2815,77,0,
105.821,4.37592,0.527955,0,18.2815,77,0,
105.821,4.37653,0.531007,0,18.2815,77,0,
105.821,4.37592,0.531007,0,18.2815,77,0,
105.822,4.37561,0.529481,0,18.2815,77,0,
105.822,4.37622,0.535584,0,18.2815,77,0,
105.822,4.37592,0.529481,0,18.2815,77,0,
105.822,4.37714,0.527955,0,18.2815,77,0,
105.822,4.37622,0.531007,0,18.2815,77,0,
105.822,4.37622,0.529481,0,18.2815,77,0,
105.822,4.37653,0.531007,0,18.2815,77,0,
105.822,4.37622,0.529481,0,18.2815,77,0,
105.822,4.37622,0.531007,0,18.2815,77,0,
105.822,4.37836,0.529481,0,18.2815,77,0,
105.822,4.38202,0.531007,0,18.2815,77,0,
105.822,4.38171,0.532533,0,18.2815,77,0,
105.822,4.38171,0.529481,0,18.2815,77,0,
105.822,4.3811,0.527955,0,18.2815,77,0,
105.822,4.38171,0.532533,0,18.2815,77,0,
105.822,4.38232,0.532533,0,18.2815,77,0,
105.822,4.38263,0.531007,0,18.2815,77,0,
105.822,4.38171,0.531007,0,18.2815,77,0,
105.822,4.38232,0.531007,0,18.2815,77,0,
105.822,4.38232,0.531007,0,18.2815,77,0,
105.822,4.38171,0.531007,0,18.2815,77,0,
105.822,4.3808,0.529481,0,18.2815,77,0,
105.822,4.3811,0.531007,0,18.2815,77,0,
105.822,4.38049,0.531007,0,18.2815,77,0,
105.822,4.3811,0.529481,0,18.2815,77,0,
105.822,4.3808,0.529481,0,18.2815,77,0,
105.822,4.37988,0.535584,0,18.2815,77,0,
105.822,4.3811,0.532533,0,18.2815,77,0,
105.822,4.38049,0.526429,0,18.2815,77,0,
105.822,4.3808,0.527955,0,18.2815,77,0,
105.823,4.3811,0.534059,0,18.2815,77,0,
105.823,4.38507,0.531007,0,18.2815,77,0,
105.823,4.38568,0.529481,0,18.2815,77,0,
105.823,4.3866,0.531007,0,18.2815,77,0,
105.823,4.38568,0.529481,0,18.2815,77,0,
105.823,4.38568,0.531007,0,18.2815,77,0,
105.823,4.38599,0.531007,0,18.2815,77,0,
105.823,4.38629,0.529481,0,18.2815,77,0,
105.823,4.38629,0.531007,0,18.2815,77,0,
105.823,4.3866,0.527955,0,18.2815,77,0,
105.823,4.38538,0.531007,0,18.2815,77,0,
105.823,4.38599,0.529481,0,18.2815,77,0,
105.823,4.38599,0.529481,0,18.2815,77,0,
105.823,4.38568,0.532533,0,18.2815,77,0,
105.823,4.38629,0.527955,0,18.2815,77,0,
105.823,4.38568,0.532533,0,18.2815,77,0,
105.823,4.38629,0.531007,0,18.2815,77,0,
105.823,4.38538,0.531007,0,18.2815,77,0,
105.823,4.38538,0.529481,0,18.2815,77,0,
105.823,4.39087,0.532533,0,18.2815,77,0,
105.823,4.39026,0.529481,0,18.2815,77,0,
105.823,4.39087,0.534059,0,18.2815,77,0,
105.823,4.39056,0.529481,0,18.2815,77,0,
105.823,4.39056,0.532533,0,18.2815,77,0,
105.823,4.39087,0.531007,0,18.2815,77,0,
105.823,4.39056,0.529481,0,18.2815,77,0,
105.823,4.39056,0.529481,0,18.2815,77,0,
105.823,4.39056,0.532533,0,18.2815,77,0,
105.823,4.39056,0.531007,0,18.2815,77,0,
105.823,4.39056,0.531007,0,18.2815,77,0,
105.823,4.39087,0.529481,0,18.2815,77,0,
105.824,4.39117,0.529481,0,18.2815,77,0,
105.824,4.39087,0.531007,0,18.2815,77,0,
105.824,4.39117,0.532533,0,18.2815,77,0,
105.824,4.39575,0.531007,0,18.2815,77,0,
105.824,4.39575,0.532533,0,18.2815,77,0,
105.824,4.39606,0.532533,0,18.2815,77,0,
105.824,4.39545,0.529481,0,18.2815,77,0,
105.824,4.39636,0.531007,0,18.2815,77,0,
105.824,4.39575,0.532533,0,18.2815,77,0,
105.824,4.39545,0.529481,0,18.2815,77,0,
105.824,4.39636,0.531007,0,18.2815,77,0,
105.824,4.39545,0.532533,0,18.2815,77,0,
105.824,4.39575,0.527955,0,18.2815,77,0,
105.824,4.39575,0.527955,0,18.2815,77,0,
105.824,4.39606,0.535584,0,18.2815,77,0,
105.824,4.39606,0.531007,0,18.2815,77,0,
105.824,4.39575,0.527955,0,18.2815,77,0,
105.824,4.39514,0.534059,0,18.2815,77,0,
105.824,4.40002,0.529481,0,18.2815,77,0,
105.824,4.40033,0.532533,0,18.2815,77,0,
105.824,4.40002,0.532533,0,18.2815,77,0,
105.824,4.40033,0.532533,0,18.2815,77,0,
105.824,4.40033,0.535584,0,18.2815,77,0,
105.824,4.40125,0.532533,0,18.2815,77,0,
105.824,4.40063,0.527955,0,18.2815,77,0,
105.824,4.40033,0.532533,0,18.2815,77,0,
105.824,4.40063,0.527955,0,18.2815,77,0,
105.824,4.40063,0.534059,0,18.2815,77,0,
105.824,4.40063,0.532533,0,18.2815,77,0,
105.825,4.40063,0.529481,0,18.2815,77,0,
105.825,4.40094,0.529481,0,18.2815,77,0,
105.825,4.40094,0.531007,0,18.2815,77,0,
105.825,4.40002,0.531007,0,18.2815,77,0,
105.825,4.40521,0.529481,0,18.2815,77,0,
105.825,4.40613,0.531007,0,18.2815,77,0,
105.825,4.40552,0.532533,0,18.2815,77,0,
105.825,4.40643,0.529481,0,18.2815,77,0,
105.825,4.40613,0.531007,0,18.2815,77,0,
105.825,4.40582,0.531007,0,18.2815,77,0,
105.825,4.40582,0.532533,0,18.2815,77,0,
105.825,4.40552,0.532533,0,18.2815,77,0,
105.825,4.40552,0.534059,0,18.2815,77,0,
105.825,4.40582,0.529481,0,18.2815,77,0,
105.825,4.40582,0.534059,0,18.2815,77,0,
105.825,4.40521,0.529481,0,18.2815,77,0,
105.825,4.40491,0.532533,0,18.2815,77,0,
105.825,4.40521,0.531007,0,18.2815,77,0,
105.825,4.40521,0.527955,0,18.2815,77,0,
105.825,4.4104,0.529481,0,18.2815,77,0,
105.825,4.4104,0.529481,0,18.2815,77,0,
105.825,4.41101,0.531007,0,18.2815,77,0,
105.825,4.41101,0.529481,0,18.2815,77,0,
105.825,4.4104,0.531007,0,18.2815,77,0,
105.825,4.4104,0.526429,0,18.2815,77,0,
105.825,4.4104,0.532533,0,18.2815,77,0,
105.825,4.41071,0.531007,0,18.2815,77,0,
105.825,4.4104,0.532533,0,18.2815,77,0,
105.825,4.41101,0.531007,0,18.2815,77,0,
105.825,4.41071,0.532533,0,18.2815,77,0,
105.826,4.4101,0.529481,0,18.2815,77,0,
105.826,4.41101,0.527955,0,18.2815,77,0,
105.826,4.41071,0.532533,0,18.2815,77,0,
105.826,4.4101,0.531007,0,18.2815,77,0,
105.826,4.41589,0.527955,0,18.2815,77,0,
105.826,4.41528,0.531007,0,18.2815,77,0,
105.826,4.41589,0.532533,0,18.2815,77,0,
105.826,4.41559,0.529481,0,18.2815,77,0,
105.826,4.4165,0.527955,0,18.2815,77,0,
105.826,4.41559,0.532533,0,18.2815,77,0,
105.826,4.41589,0.534059,0,18.2815,77,0,
105.826,4.41559,0.531007,0,18.2815,77,0,
105.826,4.41498,0.531007,0,18.2815,77,0,
105.826,4.41589,0.531007,0,18.2815,77,0,
105.826,4.41528,0.529481,0,18.2815,77,0,
105.826,4.4162,0.529481,0,18.2815,77,0,
105.826,4.41559,0.531007,0,18.2815,77,0,
105.826,4.41559,0.529481,0,18.2815,77,0,
105.826,4.41742,0.529481,0,18.2815,77,0,
105.826,4.42047,0.529481,0,18.2815,77,0,
105.826,4.42108,0.529481,0,18.2815,77,0,
105.826,4.42047,0.531007,0,18.2815,77,0,
105.826,4.42047,0.532533,0,18.2815,77,0,
105.826,4.42047,0.534059,0,18.2815,77,0,
105.826,4.42047,0.531007,0,18.2815,77,0,
105.826,4.42078,0.529481,0,18.2815,77,0,
105.826,4.42017,0.531007,0,18.2815,77,0,
105.826,4.42047,0.531007,0,18.2815,77,0,
105.826,4.42047,0.532533,0,18.2815,77,0,
105.826,4.42017,0.529481,0,18.2815,77,0,
105.826,4.42017,0.531007,0,18.2815,77,0,
105.827,4.42078,0.532533,0,18.2815,77,0,
105.827,4.41986,0.527955,0,18.2815,77,0,
105.827,4.42505,0.531007,0,18.2815,77,0,
105.827,4.42535,0.527955,0,18.2815,77,0,
105.827,4.42596,0.529481,0,18.2815,77,0,
105.827,4.42596,0.527955,0,18.2815,77,0,
105.827,4.42535,0.531007,0,18.2815,77,0,
105.827,4.42535,0.534059,0,18.2815,77,0,
105.827,4.42566,0.529481,0,18.2815,77,0,
105.827,4.42505,0.527955,0,18.2815,77,0,
105.827,4.42535,0.531007,0,18.2815,77,0,
105.827,4.42505,0.529481,0,18.2815,77,0,
105.827,4.42596,0.529481,0,18.2815,77,0,
105.827,4.42535,0.532533,0,18.2815,77,0,
105.827,4.42474,0.531007,0,18.2815,77,0,
105.827,4.42474,0.527955,0,18.2815,77,0,
105.827,4.42902,0.529481,0,18.2815,77,0,
105.827,4.42993,0.532533,0,18.2815,77,0,
105.827,4.42993,0.532533,0,18.2815,77,0,
105.827,4.42963,0.529481,0,18.2815,77,0,
105.827,4.43054,0.534059,0,18.2815,77,0,
105.827,4.42963,0.531007,0,18.2815,77,0,
105.827,4.42993,0.529481,0,18.2815,77,0,
105.827,4.42993,0.531007,0,18.2815,77,0,
105.827,4.43024,0.532533,0,18.2815,77,0,
105.827,4.42993,0.532533,0,18.2815,77,0,
105.827,4.43054,0.529481,0,18.2815,77,0,
105.827,4.42993,0.531007,0,18.2815,77,0,
105.827,4.42993,0.531007,0,18.2815,77,0,
105.828,4.43115,0.529481,0,18.2815,77,0,
105.828,4.43481,0.529481,0,18.2815,77,0,
105.828,4.43451,0.529481,0,18.2815,77,0,
105.828,4.43451,0.531007,0,18.2815,77,0,
105.828,4.43512,0.532533,0,18.2815,77,0,
105.828,4.4342,0.534059,0,18.2815,77,0,
105.828,4.43451,0.531007,0,18.2815,77,0,
105.828,4.4342,0.531007,0,18.2815,77,0,
105.828,4.43481,0.529481,0,18.2815,77,0,
105.828,4.43481,0.531007,0,18.2815,77,0,
105.828,4.43512,0.529481,0,18.2815,77,0,
105.828,4.43451,0.529481,0,18.2815,77,0,
105.828,4.43481,0.529481,0,18.2815,77,0,
105.828,4.44031,0.532533,0,18.2815,77,0,
105.828,4.4397,0.534059,0,18.2815,77,0,
105.828,4.43939,0.534059,0,18.2815,77,0,
105.828,4.4397,0.529481,0,18.2815,77,0,
105.828,4.43939,0.531007,0,18.2815,77,0,
105.828,4.4397,0.527955,0,18.2815,77,0,
105.828,4.44,0.532533,0,18.2815,77,0,
105.828,4.43939,0.526429,0,18.2815,77,0,
105.828,4.44031,0.534059,0,18.2815,77,0,
105.828,4.44031,0.531007,0,18.2815,77,0,
105.828,4.44031,0.532533,0,18.2815,77,0,
105.828,4.44458,0.529481,0,18.2815,77,0,
105.828,4.44427,0.532533,0,18.2815,77,0,
105.828,4.44427,0.532533,0,18.2815,77,0,
105.828,4.44458,0.532533,0,18.2815,77,0,
105.828,4.44458,0.529481,0,18.2815,77,0,
105.828,4.44489,0.532533,0,18.2815,77,0,
105.829,4.44458,0.531007,0,18.2815,77,0,
105.829,4.44519,0.529481,0,18.2815,77,0,
105.829,4.44458,0.531007,0,18.2815,77,0,
105.829,4.44489,0.527955,0,18.2815,77,0,
105.829,4.44855,0.531007,0,18.2815,77,0,
105.829,4.45007,0.529481,0,18.2815,77,0,
105.829,4.44946,0.531007,0,18.2815,77,0,
105.829,4.44977,0.532533,0,18.2815,77,0,
105.829,4.45007,0.531007,0,18.2815,77,0,
105.829,4.44977,0.526429,0,18.2815,77,0,
105.829,4.44885,0.532533,0,18.2815,77,0,
105.829,4.45007,0.531007,0,18.2815,77,0,
105.829,4.44977,0.527955,0,18.2815,77,0,
105.829,4.44977,0.531007,0,18.2815,77,0,
105.829,4.45465,0.529481,0,18.2815,77,0,
105.829,4.45496,0.531007,0,18.2815,77,0,
105.829,4.45404,0.529481,0,18.2815,77,0,
105.829,4.45465,0.531007,0,18.2815,77,0,
105.829,4.45435,0.529481,0,18.2815,77,0,
105.829,4.45435,0.531007,0,18.2815,77,0,
105.829,4.45465,0.531007,0,18.2815,77,0,
105.829,4.45404,0.531007,0,18.2815,77,0,
105.829,4.45435,0.534059,0,18.2815,77,0,
105.829,4.45892,0.529481,0,18.2815,77,0,
105.829,4.45862,0.529481,0,18.2815,77,0,
105.829,4.45923,0.527955,0,18.2815,77,0,
105.829,4.45953,0.527955,0,18.2815,77,0,
105.829,4.45862,0.532533,0,18.2815,77,0,
105.829,4.45953,0.532533,0,18.2815,77,0,
105.829,4.45892,0.529481,0,18.2815,77,0,
105.829,4.45953,0.532533,0,18.2815,77,0,
105.83,4.45923,0.532533,0,18.2815,77,0,
105.83,4.46442,0.529481,0,18.2815,77,0,
105.83,4.46381,0.529481,0,18.2815,77,0,
105.83,4.46411,0.531007,0,18.2815,77,0,
105.83,4.46442,0.527955,0,18.2815,77,0,
105.83,4.46381,0.532533,0,18.2815,77,0,
105.83,4.46503,0.534059,0,18.2815,77,0,
105.83,4.46503,0.532533,0,18.2815,77,0,
105.83,4.46472,0.531007,0,18.2815,77,0,
105.83,4.46808,0.529481,0,18.2815,77,0,
105.83,4.46899,0.532533,0,18.2815,77,0,
105.83,4.46899,0.532533,0,18.2815,77,0,
105.83,4.46899,0.529481,0,18.2815,77,0,
105.83,4.46838,0.531007,0,18.2815,77,0,
105.83,4.46899,0.531007,0,18.2815,77,0,
105.83,4.46899,0.529481,0,18.2815,77,0,
105.83,4.46899,0.527955,0,18.2815,77,0,
105.83,4.47052,0.529481,0,18.2815,77,0,
105.83,4.4751,0.531007,0,18.2815,77,0,
105.83,4.47296,0.532533,0,18.2815,77,0,
105.83,4.47388,0.531007,0,18.2815,77,0,
105.83,4.47357,0.527955,0,18.2815,77,0,
105.83,4.47388,0.532533,0,18.2815,77,0,
105.83,4.47449,0.529481,0,18.2815,77,0,
105.83,4.47449,0.529481,0,18.2815,77,0,
105.83,4.47754,0.531007,0,18.2815,77,0,
105.83,4.47876,0.532533,0,18.2815,77,0,
105.83,4.47876,0.527955,0,18.2815,77,0,
105.83,4.47906,0.529481,0,18.2815,77,0,
105.831,4.47906,0.529481,0,18.2815,77,0,
105.831,4.47937,0.532533,0,18.2815,77,0,
105.831,4.47876,0.532533,0,18.2815,77,0,
105.831,4.47906,0.532533,0,18.2815,77,0,
105.831,4.48395,0.531007,0,18.2815,77,0,
105.831,4.48395,0.529481,0,18.2815,77,0,
105.831,4.48395,0.529481,0,18.2815,77,0,
105.831,4.48486,0.531007,0,18.2815,77,0,
105.831,4.48425,0.529481,0,18.2815,77,0,
105.831,4.48425,0.531007,0,18.2815,77,0,
105.831,4.48395,0.535584,0,18.2815,77,0,
105.831,4.48822,0.529481,0,18.2815,77,0,
105.831,4.48853,0.531007,0,18.2815,77,0,
105.831,4.48883,0.531007,0,18.2815,77,0,
105.831,4.48883,0.531007,0,18.2815,77,0,
105.831,4.48883,0.527955,0,18.2815,77,0,
105.831,4.48853,0.531007,0,18.2815,77,0,
105.831,4.48883,0.526429,0,18.2815,77,0,
105.831,4.4928,0.526429,0,18.2815,77,0,
105.831,4.49402,0.532533,0,18.2815,77,0,
105.831,4.4931,0.529481,0,18.2815,77,0,
105.831,4.49371,0.531007,0,18.2815,77,0,
105.831,4.49402,0.527955,0,18.2815,77,0,
105.831,4.49402,0.529481,0,18.2815,77,0,
105.831,4.49402,0.529481,0,18.2815,77,0,
105.831,4.4986,0.529481,0,18.2815,77,0,
105.831,4.4986,0.532533,0,18.2815,77,0,
105.831,4.4989,0.529481,0,18.2815,77,0,
105.831,4.4989,0.531007,0,18.2815,77,0,
105.831,4.49799,0.529481,0,18.2815,77,0,
105.832,4.4989,0.534059,0,18.2815,77,0,
105.832,4.50073,0.531007,0,18.2815,77,0,
105.832,4.50378,0.532533,0,18.2815,77,0,
105.832,4.50378,0.532533,0,18.2815,77,0,
105.832,4.50378,0.531007,0,18.2815,77,0,
105.832,4.50317,0.531007,0,18.2815,77,0,
105.832,4.50378,0.529481,0,18.2815,77,0,
105.832,4.50317,0.531007,0,18.2815,77,0,
105.832,4.50836,0.531007,0,18.2815,77,0,
105.832,4.50836,0.531007,0,18.2815,77,0,
105.832,4.50897,0.531007,0,18.2815,77,0,
105.832,4.50867,0.529481,0,18.2815,77,0,
105.832,4.50928,0.529481,0,18.2815,77,0,
105.832,4.50836,0.529481,0,18.2815,77,0,
105.832,4.51355,0.529481,0,18.2815,77,0,
105.832,4.51324,0.529481,0,18.2815,77,0,
105.832,4.51355,0.531007,0,18.2815,77,0,
105.832,4.51324,0.532533,0,18.2815,77,0,
105.832,4.51294,0.531007,0,18.2815,77,0,
105.832,4.51691,0.529481,0,18.2815,77,0,
105.832,4.51874,0.532533,0,18.2815,77,0,
105.832,4.51843,0.534059,0,18.2815,77,0,
105.832,4.51843,0.531007,0,18.2815,77,0,
105.832,4.51874,0.529481,0,18.2815,77,0,
105.832,4.51813,0.531007,0,18.2815,77,0,
105.832,4.52332,0.529481,0,18.2815,77,0,
105.832,4.52301,0.529481,0,18.2815,77,0,
105.832,4.52332,0.532533,0,18.2815,77,0,
105.832,4.52362,0.531007,0,18.2815,77,0,
105.832,4.52301,0.532533,0,18.2815,77,0,
105.832,4.52667,0.532533,0,18.2815,77,0,
105.833,4.5282,0.531007,0,18.2815,77,0,
105.833,4.5282,0.529481,0,18.2815,77,0,
105.833,4.52759,0.527955,0,18.2815,77,0,
105.833,4.5282,0.529481,0,18.2815,77,0,
105.833,4.53156,0.529481,0,18.2815,77,0,
105.833,4.53278,0.531007,0,18.2815,77,0,
105.833,4.53339,0.531007,0,18.2815,77,0,
105.833,4.53278,0.531007,0,18.2815,77,0,
105.833,4.53278,0.532533,0,18.2815,77,0,
105.833,4.53644,0.529481,0,18.2815,77,0,
105.833,4.53766,0.532533,0,18.2815,77,0,
105.833,4.53796,0.529481,0,18.2815,77,0,
105.833,4.53766,0.529481,0,18.2815,77,0,
105.833,4.53796,0.532533,0,18.2815,77,0,
105.833,4.54132,0.527955,0,18.2815,77,0,
105.833,4.54285,0.531007,0,18.2815,77,0,
105.833,4.54315,0.532533,0,18.2815,77,0,
105.833,4.54285,0.532533,0,18.2815,77,0,
105.833,4.54285,0.527955,0,18.2815,77,0,
105.833,4.54773,0.532533,0,18.2815,77,0,
105.833,4.54773,0.532533,0,18.2815,77,0,
105.833,4.54773,0.532533,0,18.2815,77,0,
105.833,4.54742,0.529481,0,18.2815,77,0,
105.833,4.552,0.529481,0,18.2815,77,0,
105.833,4.552,0.532533,0,18.2815,77,0,
105.833,4.55292,0.529481,0,18.2815,77,0,
105.833,4.55292,0.529481,0,18.2815,77,0,
105.833,4.55292,0.531007,0,18.2815,77,0,
105.833,4.55719,0.531007,0,18.2815,77,0,
105.834,4.5575,0.532533,0,18.2815,77,0,
105.834,4.55719,0.532533,0,18.2815,77,0,
105.834,4.5575,0.531007,0,18.2815,77,0,
105.834,4.56207,0.532533,0,18.2815,77,0,
105.834,4.56207,0.529481,0,18.2815,77,0,
105.834,4.56268,0.531007,0,18.2815,77,0,
105.834,4.56268,0.531007,0,18.2815,77,0,
105.834,4.56665,0.532533,0,18.2815,77,0,
105.834,4.56787,0.532533,0,18.2815,77,0,
105.834,4.56696,0.527955,0,18.2815,77,0,
105.834,4.56787,0.532533,0,18.2815,77,0,
105.834,4.57123,0.526429,0,18.2815,77,0,
105.834,4.57184,0.529481,0,18.2815,77,0,
105.834,4.57245,0.529481,0,18.2815,77,0,
105.834,4.57214,0.531007,0,18.2815,77,0,
105.834,4.57672,0.527955,0,18.2815,77,0,
105.834,4.57764,0.532533,0,18.2815,77,0,
105.834,4.57733,0.531007,0,18.2815,77,0,
105.834,4.57672,0.531007,0,18.2815,77,0,
105.834,4.58069,0.529481,0,18.2815,77,0,
105.834,4.58191,0.531007,0,18.2815,77,0,
105.834,4.58191,0.532533,0,18.2815,77,0,
105.834,4.58191,0.532533,0,18.2815,77,0,
105.834,4.58649,0.532533,0,18.2815,77,0,
105.834,4.5871,0.529481,0,18.2815,77,0,
105.834,4.58649,0.529481,0,18.2815,77,0,
105.834,4.5871,0.531007,0,18.2815,77,0,
105.834,4.59198,0.532533,0,18.2815,77,0,
105.834,4.59229,0.531007,0,18.2815,77,0,
105.834,4.59229,0.531007,0,18.2815,77,0,
105.835,4.59381,0.531007,0,18.2815,77,0,
105.835,4.59717,0.529481,0,18.2815,77,0,
105.835,4.59686,0.527955,0,18.2815,77,0,
105.835,4.59717,0.529481,0,18.2815,77,0,
105.835,4.60052,0.529481,0,18.2815,77,0,
105.835,4.60144,0.531007,0,18.2815,77,0,
105.835,4.60175,0.532533,0,18.2815,77,0,
105.835,4.60205,0.532533,0,18.2815,77,0,
105.835,4.60663,0.531007,0,18.2815,77,0,
105.835,4.60693,0.529481,0,18.2815,77,0,
105.835,4.60602,0.532533,0,18.2815,77,0,
105.835,4.60724,0.527955,0,18.2815,77,0,
105.835,4.6109,0.531007,0,18.2815,77,0,
105.835,4.61212,0.532533,0,18.2815,77,0,
105.835,4.61121,0.534059,0,18.2815,77,0,
105.835,4.61578,0.531007,0,18.2815,77,0,
105.835,4.61639,0.529481,0,18.2815,77,0,
105.835,4.617,0.529481,0,18.2815,77,0,
105.835,4.61639,0.529481,0,18.2815,77,0,
105.835,4.62097,0.529481,0,18.2815,77,0,
105.835,4.62158,0.526429,0,18.2815,77,0,
105.835,4.62128,0.532533,0,18.2815,77,0,
105.835,4.6228,0.534059,0,18.2815,77,0,
105.835,4.62585,0.532533,0,18.2815,77,0,
105.835,4.62585,0.534059,0,18.2815,77,0,
105.835,4.62616,0.532533,0,18.2815,77,0,
105.835,4.63074,0.531007,0,18.2815,77,0,
105.835,4.63135,0.531007,0,18.2815,77,0,
105.835,4.63165,0.532533,0,18.2815,77,0,
105.835,4.63318,0.527955,0,18.2815,77,0,
105.835,4.63623,0.527955,0,18.2815,77,0,
105.836,4.63593,0.531007,0,18.2815,77,0,
105.836,4.63593,0.529481,0,18.2815,77,0,
105.836,4.63959,0.529481,0,18.2815,77,0,
105.836,4.64111,0.532533,0,18.2815,77,0,
105.836,4.6405,0.526429,0,18.2815,77,0,
105.836,4.64142,0.532533,0,18.2815,77,0,
105.836,4.64569,0.527955,0,18.2815,77,0,
105.836,4.64539,0.527955,0,18.2815,77,0,
105.836,4.64569,0.529481,0,18.2815,77,0,
105.836,4.64996,0.531007,0,18.2815,77,0,
105.836,4.64996,0.531007,0,18.2815,77,0,
105.836,4.65057,0.532533,0,18.2815,77,0,
105.836,4.65057,0.535584,0,18.2815,77,0,
105.836,4.65576,0.531007,0,18.2815,77,0,
105.836,4.65546,0.531007,0,18.2815,77,0,
105.836,4.65576,0.529481,0,18.2815,77,0,
105.836,4.65912,0.527955,0,18.2815,77,0,
105.836,4.66034,0.531007,0,18.2815,77,0,
105.836,4.66064,0.532533,0,18.2815,77,0,
105.836,4.66034,0.529481,0,18.2815,77,0,
105.836,4.66553,0.532533,0,18.2815,77,0,
105.836,4.66522,0.531007,0,18.2815,77,0,
105.836,4.66522,0.531007,0,18.2815,77,0,
105.836,4.66644,0.532533,0,18.2815,77,0,
105.836,4.6701,0.529481,0,18.2815,77,0,
105.836,4.6698,0.531007,0,18.2815,77,0,
105.836,4.67041,0.534059,0,18.2815,77,0,
105.836,4.67529,0.534059,0,18.2815,77,0,
105.836,4.67529,0.529481,0,18.2815,77,0,
105.837,4.67499,0.531007,0,18.2815,77,0,
105.837,4.67529,0.532533,0,18.2815,77,0,
105.837,4.68048,0.531007,0,18.2815,77,0,
105.837,4.68109,0.532533,0,18.2815,77,0,
105.837,4.68018,0.531007,0,18.2815,77,0,
105.837,4.68506,0.532533,0,18.2815,77,0,
105.837,4.68536,0.532533,0,18.2815,77,0,
105.837,4.68506,0.531007,0,18.2815,77,0,
105.837,4.68628,0.527955,0,18.2815,77,0,
105.837,4.69055,0.529481,0,18.2815,77,0,
105.837,4.69025,0.529481,0,18.2815,77,0,
105.837,4.69086,0.531007,0,18.2815,77,0,
105.837,4.68994,0.527955,0,18.2815,77,0,
105.837,4.69452,0.529481,0,18.2815,77,0,
105.837,4.69482,0.531007,0,18.2815,77,0,
105.837,4.69482,0.532533,0,18.2815,77,0,
105.837,4.69635,0.532533,0,18.2815,77,0,
105.837,4.6994,0.534059,0,18.2815,77,0,
105.837,4.69849,0.529481,0,18.2815,77,0,
105.837,4.6994,0.527955,0,18.2815,77,0,
105.837,4.70306,0.529481,0,18.2815,77,0,
105.837,4.70398,0.531007,0,18.2815,77,0,
105.837,4.70398,0.532533,0,18.2815,77,0,
105.837,4.70398,0.532533,0,18.2815,77,0,
105.837,4.70886,0.531007,0,18.2815,77,0,
105.837,4.70856,0.529481,0,18.2815,77,0,
105.837,4.70947,0.532533,0,18.2815,77,0,
105.837,4.70947,0.529481,0,18.2815,77,0,
105.837,4.71405,0.529481,0,18.2815,77,0,
105.837,4.71375,0.529481,0,18.2815,77,0,
105.838,4.71466,0.527955,0,18.2815,77,0,
105.838,4.71466,0.531007,0,18.2815,77,0,
105.838,4.71924,0.529481,0,18.2815,77,0,
105.838,4.71893,0.526429,0,18.2815,77,0,
105.838,4.71924,0.529481,0,18.2815,77,0,
105.838,4.71893,0.531007,0,18.2815,77,0,
105.838,4.72382,0.531007,0,18.2815,77,0,
105.838,4.72382,0.527955,0,18.2815,77,0,
105.838,4.72382,0.529481,0,18.2815,77,0,
105.838,4.72382,0.531007,0,18.2815,77,0,
105.838,4.729,0.531007,0,18.2815,77,0,
105.838,4.7287,0.529481,0,18.2815,77,0,
105.838,4.729,0.532533,0,18.2815,77,0,
105.838,4.729,0.534059,0,18.2815,77,0,
105.838,4.73358,0.532533,0,18.2815,77,0,
105.838,4.73389,0.529481,0,18.2815,77,0,
105.838,4.73389,0.532533,0,18.2815,77,0,
105.838,4.73389,0.532533,0,18.2815,77,0,
105.838,4.73785,0.531007,0,18.2815,77,0,
105.838,4.73816,0.535584,0,18.2815,77,0,
105.838,4.73785,0.529481,0,18.2815,77,0,
105.838,4.73877,0.531007,0,18.2815,77,0,
105.838,4.73969,0.529481,0,10.9489,77,0,
105.838,4.74396,0.534059,0,10.9489,77,0,
105.838,4.74365,0.531007,0,10.9489,77,0,
105.838,4.74335,0.531007,0,10.9489,77,0,
105.838,4.74365,0.531007,0,10.9489,77,0,
105.838,4.74792,0.529481,0,10.9489,77,0,
105.838,4.74792,0.527955,0,10.9489,77,0,
105.838,4.74854,0.531007,0,10.9489,77,0,
105.838,4.74884,0.529481,0,10.9489,77,0,
105.839,4.75189,0.531007,0,10.9489,77,0,
105.839,4.75372,0.532533,0,10.9489,77,0,
105.839,4.75342,0.531007,0,10.9489,77,0,
105.839,4.75311,0.531007,0,10.9489,77,0,
105.839,4.75342,0.529481,0,10.9489,77,0,
105.839,4.75891,0.527955,0,10.9489,77,0,
105.839,4.75861,0.531007,0,10.9489,77,0,
105.839,4.7583,0.527955,0,10.9489,77,0,
105.839,4.75891,0.531007,0,10.9489,77,0,
105.839,4.75952,0.529481,0,10.9489,77,0,
105.839,4.76318,0.531007,0,10.9489,77,0,
105.839,4.76318,0.529481,0,10.9489,77,0,
105.839,4.76349,0.529481,0,10.9489,77,0,
105.839,4.76288,0.531007,0,10.9489,77,0,
105.839,4.76685,0.529481,0,10.9489,77,0,
105.839,4.76807,0.532533,0,10.9489,77,0,
105.839,4.76776,0.527955,0,10.9489,77,0,
105.839,4.76807,0.529481,0,10.9489,77,0,
105.839,4.76868,0.532533,0,10.9489,77,0,
105.839,4.77295,0.529481,0,10.9489,77,0,
105.839,4.77295,0.532533,0,10.9489,77,0,
105.839,4.77295,0.531007,0,10.9489,77,0,
105.839,4.77295,0.531007,0,10.9489,77,0,
105.839,4.77264,0.532533,0,10.9489,77,0,
105.839,4.77783,0.532533,0,10.9489,77,0,
105.839,4.77814,0.529481,0,10.9489,77,0,
105.839,4.77783,0.532533,0,10.9489,77,0,
105.839,4.77722,0.529481,0,10.9489,77,0,
105.839,4.77814,0.531007,0,10.9489,77,0,
105.84,4.78271,0.529481,0,10.9489,77,0,
105.84,4.78302,0.532533,0,10.9489,77,0,
105.84,4.78271,0.529481,0,10.9489,77,0,
105.84,4.78302,0.527955,0,10.9489,77,0,
105.84,4.78302,0.527955,0,10.9489,77,0,
105.84,4.78699,0.529481,0,10.9489,77,0,
105.84,4.7876,0.532533,0,10.9489,77,0,
105.84,4.78821,0.531007,0,10.9489,77,0,
105.84,4.78729,0.527955,0,10.9489,77,0,
105.84,4.78821,0.531007,0,10.9489,77,0,
105.84,4.78943,0.531007,0,10.9489,77,0,
105.84,4.7937,0.527955,0,10.9489,77,0,
105.84,4.79279,0.531007,0,10.9489,77,0,
105.84,4.79279,0.529481,0,10.9489,77,0,
105.84,4.79279,0.531007,0,10.9489,77,0,
105.84,4.79279,0.529481,0,10.9489,77,0,
105.84,4.79736,0.527955,0,10.9489,77,0,
105.84,4.79736,0.531007,0,10.9489,77,0,
105.84,4.79797,0.532533,0,10.9489,77,0,
105.84,4.79797,0.531007,0,10.9489,77,0,
105.84,4.79828,0.529481,0,10.9489,77,0,
105.84,4.79828,0.529481,0,10.9489,77,0,
105.84,4.80286,0.527955,0,10.9489,77,0,
105.84,4.80255,0.531007,0,10.9489,77,0,
105.84,4.80286,0.529481,0,10.9489,77,0,
105.84,4.80225,0.529481,0,10.9489,77,0,
105.84,4.80255,0.529481,0,10.9489,77,0,
105.84,4.80286,0.531007,0,10.9489,77,0,
105.84,4.80804,0.529481,0,10.9489,77,0,
105.84,4.80743,0.529481,0,10.9489,77,0,
105.841,4.80774,0.532533,0,10.9489,77,0,
105.841,4.80743,0.532533,0,10.9489,77,0,
105.841,4.80774,0.532533,0,10.9489,77,0,
105.841,4.80743,0.534059,0,10.9489,77,0,
105.841,4.8114,0.529481,0,10.9489,77,0,
105.841,4.81232,0.529481,0,10.9489,77,0,
105.841,4.81293,0.532533,0,10.9489,77,0,
105.841,4.81232,0.529481,0,10.9489,77,0,
105.841,4.81293,0.529481,0,10.9489,77,0,
105.841,4.81323,0.531007,0,10.9489,77,0,
105.841,4.81232,0.529481,0,10.9489,77,0,
105.841,4.8175,0.529481,0,10.9489,77,0,
105.841,4.8175,0.532533,0,10.9489,77,0,
105.841,4.81812,0.534059,0,10.9489,77,0,
105.841,4.81781,0.532533,0,10.9489,77,0,
105.841,4.8175,0.531007,0,10.9489,77,0,
105.841,4.81812,0.529481,0,10.9489,77,0,
105.841,4.81689,0.532533,0,10.9489,77,0,
105.841,4.82147,0.531007,0,10.9489,77,0,
105.841,4.82269,0.534059,0,10.9489,77,0,
105.841,4.82269,0.529481,0,10.9489,77,0,
105.841,4.82239,0.534059,0,10.9489,77,0,
105.841,4.82239,0.534059,0,10.9489,77,0,
105.841,4.82208,0.532533,0,10.9489,77,0,
105.841,4.82269,0.529481,0,10.9489,77,0,
105.841,4.82269,0.531007,0,10.9489,77,0,
105.841,4.82605,0.529481,0,10.9489,77,0,
105.841,4.82727,0.531007,0,10.9489,77,0,
105.841,4.82635,0.529481,0,10.9489,77,0,
105.841,4.82788,0.531007,0,10.9489,77,0,
105.841,4.82727,0.534059,0,10.9489,77,0,
105.842,4.82697,0.535584,0,10.9489,77,0,
105.842,4.82727,0.529481,0,10.9489,77,0,
105.842,4.82758,0.529481,0,10.9489,77,0,
105.842,4.82697,0.527955,0,10.9489,77,0,
105.842,4.83124,0.529481,0,10.9489,77,0,
105.842,4.83124,0.531007,0,10.9489,77,0,
105.842,4.83154,0.527955,0,10.9489,77,0,
105.842,4.83154,0.531007,0,10.9489,77,0,
105.842,4.83215,0.527955,0,10.9489,77,0,
105.842,4.83185,0.532533,0,10.9489,77,0,
105.842,4.83093,0.534059,0,10.9489,77,0,
105.842,4.83185,0.534059,0,10.9489,77,0,
105.842,4.83154,0.527955,0,10.9489,77,0,
105.842,4.83215,0.527955,0,10.9489,77,0,
105.842,4.83185,0.532533,0,10.9489,77,0,
105.842,4.83246,0.532533,0,10.9489,77,0,
105.842,4.83673,0.531007,0,10.9489,77,0,
105.842,4.83612,0.531007,0,10.9489,77,0,
105.842,4.83612,0.532533,0,10.9489,77,0,
105.842,4.83673,0.529481,0,10.9489,77,0,
105.842,4.83704,0.531007,0,10.9489,77,0,
105.842,4.83734,0.527955,0,10.9489,77,0,
105.842,4.83612,0.527955,0,10.9489,77,0,
105.842,4.83643,0.529481,0,10.9489,77,0,
105.842,4.83704,0.531007,0,10.9489,77,0,
105.842,4.83643,0.532533,0,10.9489,77,0,
105.842,4.83704,0.529481,0,10.9489,77,0,
105.842,4.83765,0.531007,0,10.9489,77,0,
105.842,4.83673,0.529481,3.182,10.9489,77,0,
105.843,4.83734,0.527955,3.182,10.9489,77,0,
105.843,4.83582,0.531007,3.182,10.9489,77,0,
105.843,4.83734,0.527955,3.182,10.9489,77,0,
105.843,4.83734,0.532533,3.182,10.9489,77,0,
105.843,4.83704,0.529481,3.182,10.9489,77,0,
105.843,4.83612,0.531007,3.182,10.9489,77,0,
105.843,4.83704,0.532533,3.182,10.9489,77,0,
105.843,4.83643,0.531007,3.182,10.9489,77,0,
105.843,4.83673,0.531007,3.182,10.9489,77,0,
105.843,4.83673,0.529481,3.182,10.9489,77,0,
105.843,4.83673,0.529481,3.182,10.9489,77,0,
105.843,4.83643,0.532533,3.182,10.9489,77,0,
105.843,4.83673,0.531007,3.182,10.9489,77,0,
105.843,4.83582,0.531007,3.182,10.9489,77,0,
105.843,4.83704,0.531007,3.182,10.9489,77,0,
105.843,4.83612,0.527955,3.182,10.9489,77,0,
105.843,4.83704,0.526429,3.182,10.9489,77,0,
105.843,4.83734,0.531007,3.182,10.9489,77,0,
105.843,4.83734,0.531007,3.182,10.9489,77,0,
105.843,4.83704,0.531007,3.182,10.9489,77,0,
105.843,4.83643,0.532533,3.182,10.9489,77,0,
105.843,4.83673,0.529481,3.182,10.9489,77,0,
105.843,4.83704,0.532533,3.182,10.9489,77,0,
105.843,4.83643,0.531007,3.182,10.9489,77,0,
105.843,4.83673,0.529481,3.182,10.9489,77,0,
105.843,4.83673,0.531007,3.182,10.9489,77,0,
105.843,4.83734,0.527955,3.182,10.9489,77,0,
105.843,4.83704,0.527955,3.182,10.9489,77,0,
105.843,4.83612,0.531007,3.182,10.9489,77,0,
105.843,4.83673,0.531007,3.182,10.9489,77,0,
105.844,4.83673,0.529481,3.182,10.9489,77,0,
105.844,4.83673,0.529481,3.182,10.9489,77,0,
105.844,4.83673,0.532533,3.182,10.9489,77,0,
105.844,4.83673,0.529481,3.182,10.9489,77,0,
105.844,4.83704,0.529481,3.182,10.9489,77,0,
105.844,4.83765,0.534059,3.182,10.9489,77,0,
105.844,4.83154,0.531007,3.182,10.9489,77,0,
105.844,4.83185,0.532533,3.182,10.9489,77,0,
105.844,4.83185,0.527955,3.182,10.9489,77,0,
105.844,4.83124,0.529481,3.182,10.9489,77,0,
105.844,4.83215,0.531007,3.182,10.9489,77,0,
105.844,4.83124,0.534059,3.182,10.9489,77,0,
105.844,4.83124,0.531007,3.182,10.9489,77,0,
105.844,4.83154,0.531007,3.182,10.9489,77,0,
105.844,4.83185,0.529481,3.182,10.9489,77,0,
105.844,4.83154,0.529481,3.182,10.9489,77,0,
105.844,4.83185,0.531007,3.182,10.9489,77,0,
105.844,4.83185,0.531007,3.182,10.9489,77,0,
105.844,4.83215,0.531007,3.182,10.9489,77,0,
105.844,4.82849,0.531007,3.182,10.9489,77,0,
105.844,4.82697,0.534059,3.182,10.9489,77,0,
105.844,4.82727,0.534059,3.182,10.9489,77,0,
105.844,4.82666,0.532533,3.182,10.9489,77,0,
105.844,4.82727,0.531007,3.182,10.9489,77,0,
105.844,4.82727,0.531007,3.182,10.9489,77,0,
105.844,4.82727,0.532533,3.182,10.9489,77,0,
105.844,4.82697,0.532533,3.182,10.9489,77,0,
105.844,4.82697,0.534059,3.182,10.9489,77,0,
105.844,4.82697,0.531007,3.182,10.9489,77,0,
105.844,4.82666,0.527955,3.182,10.9489,77,0,
105.844,4.82239,0.529481,3.182,10.9489,77,0,
105.845,4.82208,0.529481,3.182,10.9489,77,0,
105.845,4.82239,0.529481,3.182,10.9489,77,0,
105.845,4.82208,0.529481,3.182,10.9489,77,0,
105.845,4.82208,0.526429,3.182,10.9489,77,0,
105.845,4.82178,0.531007,3.182,10.9489,77,0,
105.845,4.823,0.529481,3.182,10.9489,77,0,
105.845,4.82208,0.527955,3.182,10.9489,77,0,
105.845,4.82269,0.531007,3.182,10.9489,77,0,
105.845,4.82178,0.531007,3.182,10.9489,77,0,
105.845,4.8172,0.531007,3.182,10.9489,77,0,
105.845,4.8175,0.527955,3.182,10.9489,77,0,
105.845,4.8175,0.529481,3.182,10.9489,77,0,
105.845,4.81689,0.531007,3.182,10.9489,77,0,
105.845,4.81689,0.531007,3.182,10.9489,77,0,
105.845,4.8175,0.532533,3.182,10.9489,77,0,
105.845,4.81689,0.529481,3.182,10.9489,77,0,
105.845,4.81781,0.532533,3.182,10.9489,77,0,
105.845,4.81537,0.529481,3.182,10.9489,77,0,
105.845,4.81201,0.531007,3.182,10.9489,77,0,
105.845,4.81201,0.527955,3.182,10.9489,77,0,
105.845,4.81232,0.532533,3.182,10.9489,77,0,
105.845,4.81171,0.532533,3.182,10.9489,77,0,
105.845,4.81232,0.526429,3.182,10.9489,77,0,
105.845,4.81232,0.531007,3.182,10.9489,77,0,
105.845,4.81171,0.534059,3.182,10.9489,77,0,
105.845,4.81262,0.527955,3.182,10.9489,77,0,
105.845,4.80865,0.529481,3.182,10.9489,77,0,
105.845,4.80713,0.529481,3.182,10.9489,77,0,
105.845,4.80774,0.532533,3.182,10.9489,77,0,
105.846,4.80713,0.531007,3.182,10.9489,77,0,
105.846,4.80743,0.531007,3.182,10.9489,77,0,
105.846,4.80804,0.531007,3.182,10.9489,77,0,
105.846,4.80774,0.532533,3.182,10.9489,77,0,
105.846,4.80743,0.531007,3.182,10.9489,77,0,
105.846,4.8056,0.534059,3.182,10.9489,77,0,
105.846,4.80286,0.531007,3.182,10.9489,77,0,
105.846,4.80286,0.529481,3.182,10.9489,77,0,
105.846,4.80225,0.531007,3.182,10.9489,77,0,
105.846,4.80255,0.534059,3.182,10.9489,77,0,
105.846,4.80255,0.529481,3.182,10.9489,77,0,
105.846,4.80225,0.529481,3.182,10.9489,77,0,
105.846,4.80286,0.529481,3.182,10.9489,77,0,
105.846,4.80103,0.532533,3.182,10.9489,77,0,
105.846,4.79797,0.531007,3.182,10.9489,77,0,
105.846,4.79736,0.531007,3.182,10.9489,77,0,
105.846,4.79797,0.531007,3.182,10.9489,77,0,
105.846,4.79767,0.531007,3.182,10.9489,77,0,
105.846,4.79706,0.532533,3.182,10.9489,77,0,
105.846,4.79767,0.534059,3.182,10.9489,77,0,
105.846,4.79797,0.531007,3.182,10.9489,77,0,
105.846,4.79401,0.531007,3.182,10.9489,77,0,
105.846,4.79279,0.531007,3.182,10.9489,77,0,
105.846,4.79309,0.532533,3.182,10.9489,77,0,
105.846,4.79279,0.531007,3.182,10.9489,77,0,
105.846,4.79279,0.529481,3.182,10.9489,77,0,
105.846,4.79218,0.529481,3.182,10.9489,77,0,
105.846,4.79218,0.527955,3.182,10.9489,77,0,
105.846,4.79279,0.529481,3.182,10.9489,77,0,
105.846,4.78821,0.529481,3.182,10.9489,77,0,
105.847,4.7879,0.532533,3.182,10.9489,77,0,
105.847,4.78851,0.529481,3.182,10.9489,77,0,
105.847,4.78882,0.531007,3.182,10.9489,77,0,
105.847,4.7876,0.534059,3.182,10.9489,77,0,
105.847,4.7879,0.531007,3.182,10.9489,77,0,
105.847,4.78821,0.532533,3.182,10.9489,77,0,
105.847,4.78394,0.531007,3.182,10.9489,77,0,
105.847,4.78302,0.531007,3.182,10.9489,77,0,
105.847,4.7821,0.531007,3.182,10.9489,77,0,
105.847,4.78333,0.532533,3.182,10.9489,77,0,
105.847,4.7821,0.529481,3.182,10.9489,77,0,
105.847,4.78333,0.532533,3.182,10.9489,77,0,
105.847,4.7818,0.531007,3.182,10.9489,77,0,
105.847,4.77936,0.531007,3.182,10.9489,77,0,
105.847,4.77753,0.527955,3.182,10.9489,77,0,
105.847,4.77783,0.532533,3.182,10.9489,77,0,
105.847,4.77844,0.531007,3.182,10.9489,77,0,
105.847,4.77844,0.531007,3.182,10.9489,77,0,
105.847,4.77783,0.529481,3.182,10.9489,77,0,
105.847,4.77783,0.529481,3.182,10.9489,77,0,
105.847,4.77356,0.531007,3.182,10.9489,77,0,
105.847,4.77325,0.532533,3.182,10.9489,77,0,
105.847,4.77295,0.532533,3.182,10.9489,77,0,
105.847,4.77325,0.532533,3.182,10.9489,77,0,
105.847,4.77295,0.529481,3.182,10.9489,77,0,
105.847,4.77325,0.531007,3.182,10.9489,77,0,
105.847,4.77264,0.532533,3.182,10.9489,77,0,
105.847,4.76776,0.534059,3.182,10.9489,77,0,
105.847,4.76746,0.531007,3.182,10.9489,77,0,
105.847,4.76776,0.529481,3.182,10.9489,77,0,
105.847,4.76807,0.534059,3.182,10.9489,77,0,
105.848,4.76868,0.527955,3.182,10.9489,77,0,
105.848,4.76776,0.531007,3.182,10.9489,77,0,
105.848,4.76654,0.529481,3.182,10.9489,77,0,
105.848,4.76349,0.531007,3.182,10.9489,77,0,
105.848,4.76288,0.529481,3.182,10.9489,77,0,
105.848,4.76318,0.529481,3.182,10.9489,77,0,
105.848,4.76349,0.531007,3.182,10.9489,77,0,
105.848,4.76288,0.531007,3.182,10.9489,77,0,
105.848,4.76135,0.535584,3.182,10.9489,77,0,
105.848,4.758,0.531007,3.182,10.9489,77,0,
105.848,4.7583,0.529481,3.182,10.9489,77,0,
105.848,4.75891,0.532533,3.182,10.9489,77,0,
105.848,4.758,0.532533,3.182,10.9489,77,0,
105.848,4.75861,0.534059,3.182,10.9489,77,0,
105.848,4.75708,0.534059,3.182,10.9489,77,0,
105.848,4.75372,0.532533,3.182,10.9489,77,0,
105.848,4.75403,0.527955,3.182,10.9489,77,0,
105.848,4.75342,0.531007,3.182,10.9489,77,0,
105.848,4.75281,0.532533,3.182,10.9489,77,0,
105.848,4.75281,0.531007,3.182,10.9489,77,0,
105.848,4.74976,0.529481,3.182,10.9489,77,0,
105.848,4.74854,0.529481,3.182,10.9489,77,0,
105.848,4.74884,0.527955,3.182,10.9489,77,0,
105.848,4.74884,0.526429,3.182,10.9489,77,0,
105.848,4.74884,0.531007,3.182,10.9489,77,0,
105.848,4.74854,0.532533,3.182,10.9489,77,0,
105.848,4.74426,0.531007,3.182,10.9489,77,0,
105.848,4.74335,0.531007,3.182,10.9489,77,0,
105.848,4.74365,0.531007,3.182,10.9489,77,0,
105.849,4.74335,0.532533,3.182,10.9489,77,0,
105.849,4.74426,0.529481,3.182,10.9489,77,0,
105.849,4.74274,0.531007,3.182,10.9489,77,0,
105.849,4.73877,0.527955,3.182,10.9489,77,0,
105.849,4.73846,0.527955,3.182,10.9489,77,0,
105.849,4.73938,0.531007,3.182,10.9489,77,0,
105.849,4.73907,0.527955,3.182,10.9489,77,0,
105.849,4.73846,0.529481,3.182,10.9489,77,0,
105.849,4.73328,0.524903,3.182,10.9489,77,0,
105.849,4.73358,0.531007,3.182,10.9489,77,0,
105.849,4.73419,0.527955,3.182,10.9489,77,0,
105.849,4.73358,0.527955,3.182,10.9489,77,0,
105.849,4.73419,0.527955,3.182,10.9489,77,0,
105.849,4.729,0.534059,3.182,10.9489,77,0,
105.849,4.7287,0.531007,3.182,10.9489,77,0,
105.849,4.72931,0.534059,3.182,10.9489,77,0,
105.849,4.7287,0.532533,3.182,10.9489,77,0,
105.849,4.72687,0.529481,3.182,10.9489,77,0,
105.849,4.72412,0.531007,3.182,10.9489,77,0,
105.849,4.72443,0.529481,3.182,10.9489,77,0,
105.849,4.72382,0.531007,3.182,10.9489,77,0,
105.849,4.72443,0.531007,3.182,10.9489,77,0,
105.849,4.72046,0.531007,3.182,10.9489,77,0,
105.849,4.71924,0.535584,3.182,10.9489,77,0,
105.849,4.71893,0.531007,3.182,10.9489,77,0,
105.849,4.71893,0.529481,3.182,10.9489,77,0,
105.849,4.71863,0.531007,3.182,10.9489,77,0,
105.849,4.71436,0.531007,3.182,10.9489,77,0,
105.849,4.71436,0.529481,3.182,10.9489,77,0,
105.849,4.71466,0.532533,3.182,10.9489,77,0,
105.85,4.71405,0.531007,3.182,10.9489,77,0,
105.85,4.71283,0.531007,3.182,10.9489,77,0,
105.85,4.70886,0.531007,3.182,10.9489,77,0,
105.85,4.70978,0.531007,3.182,10.9489,77,0,
105.85,4.70978,0.531007,3.182,10.9489,77,0,
105.85,4.71008,0.531007,3.182,10.9489,77,0,
105.85,4.7049,0.531007,3.182,10.9489,77,0,
105.85,4.7049,0.531007,3.182,10.9489,77,0,
105.85,4.7049,0.527955,3.182,10.9489,77,0,
105.85,4.7049,0.532533,3.182,10.9489,77,0,
105.85,4.70093,0.531007,3.182,10.9489,77,0,
105.85,4.70032,0.531007,3.182,10.9489,77,0,
105.85,4.69971,0.531007,3.182,10.9489,77,0,
105.85,4.6994,0.529481,3.182,10.9489,77,0,
105.85,4.69818,0.529481,3.182,10.9489,77,0,
105.85,4.69482,0.529481,3.182,10.9489,77,0,
105.85,4.69391,0.534059,3.182,10.9489,77,0,
105.85,4.69482,0.531007,3.182,10.9489,77,0,
105.85,4.69452,0.531007,3.182,10.9489,77,0,
105.85,4.68994,0.529481,3.182,10.9489,77,0,
105.85,4.68964,0.527955,3.182,10.9489,77,0,
105.85,4.68994,0.531007,3.182,10.9489,77,0,
105.85,4.68964,0.529481,3.182,10.9489,77,0,
105.85,4.68506,0.534059,3.182,10.9489,77,0,
105.85,4.68597,0.527955,3.182,10.9489,77,0,
105.85,4.68445,0.531007,3.182,10.9489,77,0,
105.85,4.68506,0.531007,3.182,10.9489,77,0,
105.85,4.68018,0.531007,3.182,10.9489,77,0,
105.85,4.68048,0.527955,3.182,10.9489,77,0,
105.85,4.67957,0.529481,3.182,10.9489,77,0,
105.85,4.68018,0.531007,3.182,10.9489,77,0,
105.851,4.6756,0.529481,3.182,10.9489,77,0,
105.851,4.67468,0.534059,3.182,10.9489,77,0,
105.851,4.6756,0.532533,3.182,10.9489,77,0,
105.851,4.67377,0.531007,3.182,10.9489,77,0,
105.851,4.67072,0.532533,3.182,10.9489,77,0,
105.851,4.67041,0.529481,3.182,10.9489,77,0,
105.851,4.6701,0.529481,3.182,10.9489,77,0,
105.851,4.66888,0.529481,3.182,10.9489,77,0,
105.851,4.66553,0.532533,3.182,10.9489,77,0,
105.851,4.66522,0.529481,3.182,10.9489,77,0,
105.851,4.66614,0.529481,3.182,10.9489,77,0,
105.851,4.66125,0.529481,3.182,10.9489,77,0,
105.851,4.66064,0.531007,3.182,10.9489,77,0,
105.851,4.66095,0.529481,3.182,10.9489,77,0,
105.851,4.66034,0.534059,3.182,10.9489,77,0,
105.851,4.65576,0.531007,3.182,10.9489,77,0,
105.851,4.65576,0.529481,3.182,10.9489,77,0,
105.851,4.65576,0.529481,3.182,10.9489,77,0,
105.851,4.65393,0.529481,3.182,10.9489,77,0,
105.851,4.65057,0.532533,3.182,10.9489,77,0,
105.851,4.65088,0.532533,3.182,10.9489,77,0,
105.851,4.65057,0.531007,3.182,10.9489,77,0,
105.851,4.6463,0.529481,3.182,10.9489,77,0,
105.851,4.646,0.532533,3.182,10.9489,77,0,
105.851,4.64539,0.532533,3.182,10.9489,77,0,
105.851,4.64508,0.527955,3.182,10.9489,77,0,
105.851,4.64081,0.534059,3.182,10.9489,77,0,
105.851,4.64081,0.531007,3.182,10.9489,77,0,
105.851,4.64111,0.532533,3.182,10.9489,77,0,
105.852,4.63959,0.527955,3.182,10.9489,77,0,
105.852,4.63593,0.535584,3.182,10.9489,77,0,
105.852,4.63501,0.529481,3.182,10.9489,77,0,
105.852,4.63593,0.532533,3.182,10.9489,77,0,
105.852,4.63165,0.534059,3.182,10.9489,77,0,
105.852,4.63074,0.529481,3.182,10.9489,77,0,
105.852,4.63074,0.529481,3.182,10.9489,77,0,
105.852,4.63043,0.532533,3.182,10.9489,77,0,
105.852,4.62585,0.531007,3.182,10.9489,77,0,
105.852,4.62585,0.534059,3.182,10.9489,77,0,
105.852,4.62585,0.531007,3.182,10.9489,77,0,
105.852,4.62219,0.534059,3.182,10.9489,77,0,
105.852,4.62097,0.532533,3.182,10.9489,77,0,
105.852,4.62158,0.527955,3.182,10.9489,77,0,
105.852,4.62158,0.531007,3.182,10.9489,77,0,
105.852,4.617,0.532533,3.182,10.9489,77,0,
105.852,4.6167,0.531007,3.182,10.9489,77,0,
105.852,4.61639,0.531007,3.182,10.9489,77,0,
105.852,4.61212,0.531007,3.182,10.9489,77,0,
105.852,4.61182,0.534059,3.182,10.9489,77,0,
105.852,4.61212,0.531007,3.182,10.9489,77,0,
105.852,4.61212,0.531007,3.182,10.9489,77,0,
105.852,4.60815,0.529481,3.182,10.9489,77,0,
105.852,4.60693,0.529481,3.182,10.9489,77,0,
105.852,4.60693,0.527955,3.182,10.9489,77,0,
105.852,4.60541,0.531007,3.182,10.9489,77,0,
105.852,4.60236,0.531007,3.182,10.9489,77,0,
105.852,4.60175,0.527955,3.182,10.9489,77,0,
105.852,4.60205,0.529481,3.182,10.9489,77,0,
105.852,4.59717,0.531007,3.182,10.9489,77,0,
105.853,4.59656,0.529481,3.182,10.9489,77,0,
105.853,4.59625,0.534059,3.182,10.9489,77,0,
105.853,4.59503,0.531007,3.182,10.9489,77,0,
105.853,4.59167,0.529481,3.182,10.9489,77,0,
105.853,4.59076,0.529481,3.182,10.9489,77,0,
105.853,4.59198,0.531007,3.182,10.9489,77,0,
105.853,4.58618,0.531007,3.182,10.9489,77,0,
105.853,4.58679,0.531007,3.182,10.9489,77,0,
105.853,4.58618,0.529481,3.182,10.9489,77,0,
105.853,4.58496,0.532533,3.182,10.9489,77,0,
105.853,4.58191,0.534059,3.182,10.9489,77,0,
105.853,4.58252,0.532533,3.182,10.9489,77,0,
105.853,4.58191,0.532533,3.182,10.9489,77,0,
105.853,4.57703,0.532533,3.182,10.9489,77,0,
105.853,4.57703,0.529481,3.182,10.9489,77,0,
105.853,4.57672,0.531007,3.182,10.9489,77,0,
105.853,4.5755,0.531007,3.182,10.9489,77,0,
105.853,4.57153,0.534059,3.182,10.9489,77,0,
105.853,4.57214,0.529481,3.182,10.9489,77,0,
105.853,4.57184,0.526429,3.182,10.9489,77,0,
105.853,4.56787,0.532533,3.182,10.9489,77,0,
105.853,4.56665,0.534059,3.182,10.9489,77,0,
105.853,4.56757,0.534059,3.182,10.9489,77,0,
105.853,4.56543,0.527955,3.182,10.9489,77,0,
105.853,4.56177,0.529481,3.182,10.9489,77,0,
105.853,4.56207,0.529481,3.182,10.9489,77,0,
105.853,4.56238,0.532533,3.182,10.9489,77,0,
105.853,4.5578,0.531007,3.182,10.9489,77,0,
105.853,4.55658,0.531007,3.182,10.9489,77,0,
105.853,4.5575,0.531007,3.182,10.9489,77,0,
105.853,4.5575,0.529481,3.182,10.9489,77,0,
105.854,4.55261,0.527955,3.182,10.9489,77,0,
105.854,4.5517,0.531007,3.182,10.9489,77,0,
105.854,4.55261,0.531007,3.182,10.9489,77,0,
