2200-SECPT.acq
2 msec/sample
6 channels
RSP, X, RSPEC-R
Volts
EDA, Y, PPGED-R
microsiemens
ECG R-R
Seconds
Respiration Rate
BPM
C7 - EDR
Peaks
C14 - Control
Volts
min,CH1,CH14,CH40,CH42,CH47,CH54,
,92687,92687,92687,92687,92687,92687,
74.1276,5.03479,7.70874,0,17.0551,225,5,
74.1277,5.03479,7.70416,0,17.0551,225,5,
74.1277,5.03418,7.70722,0,17.0551,225,5,
74.1277,5.0351,7.71027,0,17.0551,225,5,
74.1278,5.03937,7.70416,0,17.0551,225,5,
74.1278,5.03937,7.70874,0,17.0551,225,5,
74.1278,5.03876,7.70569,0,17.0551,225,5,
74.1279,5.03937,7.70569,0,17.0551,225,5,
74.1279,5.03998,7.70874,0,17.0551,225,5,
74.1279,5.04364,7.70722,0,17.0551,225,5,
74.128,5.04395,7.70874,0,17.0551,225,5,
74.128,5.04364,7.70569,0,17.0551,225,5,
74.128,5.04333,7.70722,0,17.0551,225,5,
74.1281,5.0473,7.70722,0,17.0551,225,5,
74.1281,5.04913,7.70722,0,17.0551,225,5,
74.1281,5.04822,7.70569,0,17.0551,225,5,
74.1282,5.04913,7.71027,0,17.0551,225,5,
74.1282,5.04852,7.70722,0,17.0551,225,5,
74.1282,5.0531,7.70722,0,17.0551,225,5,
74.1283,5.05341,7.70874,0,17.0551,225,5,
74.1283,5.05371,7.70569,0,17.0551,225,5,
74.1283,5.05432,7.70722,0,17.0551,225,5,
74.1284,5.05371,7.70569,0,17.0551,225,5,
74.1284,5.05859,7.70874,0,17.0551,225,5,
74.1284,5.05859,7.70722,0,17.0551,225,5,
74.1285,5.0589,7.70722,0,17.0551,225,5,
74.1285,5.05829,7.71179,0,17.0551,225,5,
74.1285,5.06317,7.70569,0,17.0551,225,5,
74.1286,5.06378,7.70722,0,17.0551,225,5,
74.1286,5.06317,7.70569,0,17.0551,225,5,
74.1286,5.06287,7.70569,0,17.0551,225,5,
74.1287,5.06653,7.70722,0,17.0551,225,5,
74.1287,5.06836,7.70874,0,17.0551,225,5,
74.1287,5.06836,7.70874,0,17.0551,225,5,
74.1288,5.06836,7.70722,0,17.0551,225,5,
74.1288,5.06805,7.70874,0,17.0551,225,5,
74.1288,5.07355,7.70722,0,17.0551,225,5,
74.1289,5.07324,7.70874,0,17.0551,225,5,
74.1289,5.07355,7.71027,0,17.0551,225,5,
74.1289,5.07385,7.71027,0,17.0551,225,5,
74.129,5.0766,7.70569,0,17.0551,225,5,
74.129,5.07843,7.70722,0,17.0551,225,5,
74.129,5.07812,7.70569,0,17.0551,225,5,
74.1291,5.07874,7.70722,0,17.0551,225,5,
74.1291,5.07812,7.70874,0,17.0551,225,5,
74.1291,5.08301,7.70722,0,17.0551,225,5,
74.1292,5.0824,7.71179,0,17.0551,225,5,
74.1292,5.0824,7.70874,0,17.0551,225,5,
74.1292,5.08301,7.70722,0,17.0551,225,5,
74.1293,5.08759,7.70722,0,17.0551,225,5,
74.1293,5.08698,7.70722,0,17.0551,225,5,
74.1293,5.0882,7.70722,0,17.0551,225,5,
74.1294,5.08728,7.70874,0,17.0551,225,5,
74.1294,5.09186,7.70874,0,17.0551,225,5,
74.1294,5.09216,7.70569,0,17.0551,225,5,
74.1295,5.09277,7.70874,0,17.0551,225,5,
74.1295,5.09247,7.70722,0,17.0551,225,5,
74.1295,5.09705,7.70569,0,17.0551,225,5,
74.1296,5.09766,7.70569,0,17.0551,225,5,
74.1296,5.09796,7.70416,0,17.0551,225,5,
74.1296,5.09766,7.70111,0,17.0551,225,5,
74.1297,5.10223,7.71027,0,17.0551,225,5,
74.1297,5.10315,7.71027,0,17.0551,225,5,
74.1297,5.10284,7.70416,0,17.0551,225,5,
74.1298,5.10315,7.70722,0,17.0551,225,5,
74.1298,5.10742,7.70722,0,17.0551,225,5,
74.1298,5.10742,7.70722,0,17.0551,225,5,
74.1299,5.10803,7.71027,0,17.0551,225,5,
74.1299,5.10834,7.70874,0,17.0551,225,5,
74.1299,5.1123,7.70722,0,17.0551,225,5,
74.13,5.11261,7.70722,0,17.0551,225,5,
74.13,5.11261,7.70569,0,17.0551,225,5,
74.13,5.11627,7.70722,0,17.0551,225,5,
74.1301,5.11658,7.70722,0,17.0551,225,5,
74.1301,5.11749,7.70569,0,17.0551,225,5,
74.1301,5.11749,7.70874,0,17.0551,225,5,
74.1302,5.12207,7.70874,0,17.0551,225,5,
74.1302,5.12146,7.70874,0,17.0551,225,5,
74.1302,5.12146,7.70722,0,17.0551,225,5,
74.1303,5.12604,7.70569,0,17.0551,225,5,
74.1303,5.12695,7.70569,0,17.0551,225,5,
74.1303,5.12756,7.70722,0,17.0551,225,5,
74.1304,5.13184,7.71027,0,17.0551,225,5,
74.1304,5.13214,7.70874,0,17.0551,225,5,
74.1304,5.13184,7.70569,0,17.0551,225,5,
74.1305,5.13641,7.70416,0,17.0551,225,5,
74.1305,5.13702,7.70722,0,17.0551,225,5,
74.1305,5.14038,7.70722,0,17.0551,225,5,
74.1306,5.14191,7.70874,0,17.0551,225,5,
74.1306,5.1413,7.70569,0,17.0551,225,5,
74.1306,5.14557,7.70722,0,17.0551,225,5,
74.1307,5.14648,7.70722,0,17.0551,225,5,
74.1307,5.14679,7.70569,0,17.0551,225,5,
74.1307,5.15167,7.71637,0,17.0551,225,5,
74.1308,5.15106,7.7179,0,17.0551,225,5,
74.1308,5.15594,7.71942,0,17.0551,225,5,
74.1308,5.15625,7.71942,0,17.0551,225,5,
74.1309,5.15991,7.71942,0,17.0551,225,5,
74.1309,5.16083,7.71942,0,17.0551,225,5,
74.1309,5.16174,7.7179,0,17.0551,225,5,
74.131,5.16602,7.7179,0,17.0551,225,5,
74.131,5.16632,7.71942,0,17.0551,225,5,
74.131,5.17059,7.7179,0,17.0551,225,5,
74.1311,5.17059,7.7179,0,17.0551,225,5,
74.1311,5.17548,7.71942,0,17.0551,225,5,
74.1311,5.17517,7.71942,0,17.0551,225,5,
74.1312,5.17975,7.71637,0,17.0551,225,5,
74.1312,5.18066,7.7179,0,17.0551,225,5,
74.1312,5.18524,7.7179,0,17.0551,225,5,
74.1313,5.18585,7.72095,0,17.0551,225,5,
74.1313,5.19043,7.7179,0,17.0551,225,5,
74.1313,5.19043,7.7179,0,17.0551,225,5,
74.1314,5.19501,7.72095,0,17.0551,225,5,
74.1314,5.19501,7.72095,0,17.0551,225,5,
74.1314,5.20081,7.72095,0,17.0551,225,5,
74.1315,5.2005,7.71637,0,17.0551,225,5,
74.1315,5.20477,7.72095,0,17.0551,225,5,
74.1315,5.20844,7.71942,0,17.0551,225,5,
74.1316,5.21027,7.7179,0,17.0551,225,5,
74.1316,5.21515,7.71942,0,17.0551,225,5,
74.1316,5.21545,7.7179,0,17.0551,225,5,
74.1317,5.22003,7.71637,0,17.0551,225,5,
74.1317,5.21973,7.72247,0,17.0551,225,5,
74.1317,5.22491,7.71332,0,17.0551,225,5,
74.1318,5.22827,7.72095,0,17.0551,225,5,
74.1318,5.22949,7.71942,0,17.0551,225,5,
74.1318,5.2356,7.72247,0,17.0551,225,5,
74.1319,5.23529,7.71942,0,17.0551,225,5,
74.1319,5.23987,7.71942,0,17.0551,225,5,
74.1319,5.24414,7.7179,0,17.0551,225,5,
74.132,5.24506,7.72095,0,17.0551,225,5,
74.132,5.24933,7.7179,0,17.0551,225,5,
74.132,5.25177,7.72095,0,17.0551,225,5,
74.1321,5.25513,7.7179,0,17.0551,225,5,
74.1321,5.2597,7.72095,0,17.0551,225,5,
74.1321,5.26276,7.71942,0,17.0551,225,5,
74.1322,5.26398,7.71942,0,17.0551,225,5,
74.1322,5.26886,7.72247,0,17.0551,225,5,
74.1322,5.27344,7.72553,0,17.0551,225,5,
74.1323,5.27496,7.7179,0,17.0551,225,5,
74.1323,5.27893,7.72095,0,17.0551,225,5,
74.1323,5.28412,7.72095,0,17.0551,225,5,
74.1324,5.28717,7.7179,0,17.0551,225,5,
74.1324,5.289,7.72095,0,17.0551,225,5,
74.1324,5.29358,7.72095,0,17.0551,225,5,
74.1325,5.29633,7.72247,0,17.0551,225,5,
74.1325,5.29938,7.7179,0,17.0551,225,5,
74.1325,5.30334,7.72095,0,17.0551,225,5,
74.1326,5.30823,7.7179,0,17.0551,225,5,
74.1326,5.31219,7.72095,0,17.0551,225,5,
74.1326,5.31403,7.71942,0,17.0551,225,5,
74.1327,5.31738,7.72095,0,17.0551,225,5,
74.1327,5.32318,7.71942,0,17.0551,225,5,
74.1327,5.32806,7.71942,0,17.0551,225,5,
74.1328,5.32867,7.72095,0,17.0551,225,5,
74.1328,5.33264,7.7179,0,17.0551,225,5,
74.1328,5.33722,7.7179,0,17.0551,225,5,
74.1329,5.3418,7.71942,0,17.0551,225,5,
74.1329,5.34546,7.72095,0,17.0551,225,5,
74.1329,5.3479,7.7179,0,17.0551,225,5,
74.133,5.35217,7.71637,0,17.0551,225,5,
74.133,5.35797,7.72095,0,17.0551,225,5,
74.133,5.36224,7.72095,0,17.0551,225,5,
74.1331,5.36713,7.7179,0,17.0551,225,5,
74.1331,5.37109,7.71942,0,17.0551,225,5,
74.1331,5.37262,7.72247,0,17.0551,225,5,
74.1332,5.37628,7.7179,0,17.0551,225,5,
74.1332,5.38208,7.72095,0,17.0551,225,5,
74.1332,5.38574,7.72247,0,17.0551,225,5,
74.1333,5.39032,7.72095,0,17.0551,225,5,
74.1333,5.39551,7.7179,0,17.0551,225,5,
74.1333,5.39703,7.72095,0,17.0551,225,5,
74.1334,5.40192,7.71637,0,17.0551,225,5,
74.1334,5.40619,7.72095,0,17.0551,225,5,
74.1334,5.41138,7.71942,0,17.0551,225,5,
74.1335,5.41595,7.72095,0,17.0551,225,5,
74.1335,5.41901,7.72095,0,17.0551,225,5,
74.1335,5.42175,7.71942,0,17.0551,225,5,
74.1336,5.42633,7.72247,0,17.0551,225,5,
74.1336,5.43091,7.71942,0,17.0551,225,5,
74.1336,5.43579,7.72095,0,17.0551,225,5,
74.1337,5.44067,7.7179,0,17.0551,225,5,
74.1337,5.44464,7.72095,0,17.0551,225,5,
74.1337,5.44983,7.72247,0,17.0551,225,5,
74.1338,5.45441,7.7179,0,17.0551,225,5,
74.1338,5.45593,7.71942,0,17.0551,225,5,
74.1338,5.46021,7.71942,0,17.0551,225,5,
74.1339,5.46539,7.71942,0,17.0551,225,5,
74.1339,5.47058,7.7179,0,17.0551,225,5,
74.1339,5.47546,7.71942,0,17.0551,225,5,
74.134,5.47974,7.7179,0,17.0551,225,5,
74.134,5.48309,7.71942,0,17.0551,225,5,
74.134,5.48767,7.71942,0,17.0551,225,5,
74.1341,5.49042,7.71942,0,17.0551,225,5,
74.1341,5.4953,7.72247,0,17.0551,225,5,
74.1341,5.49835,7.71637,0,17.0551,225,5,
74.1342,5.50415,7.71637,0,17.0551,225,5,
74.1342,5.50873,7.71942,0,17.0551,225,5,
74.1342,5.51422,7.71942,0,17.0551,225,5,
74.1343,5.51758,7.71942,0,17.0551,225,5,
74.1343,5.52216,7.72247,0,17.0551,225,5,
74.1343,5.5246,7.7179,0,17.0551,225,5,
74.1344,5.52826,7.71942,0,17.0551,225,5,
74.1344,5.53345,7.71484,0,17.0551,225,5,
74.1344,5.53802,7.72095,0,17.0551,225,5,
74.1345,5.54321,7.71942,0,17.0551,225,5,
74.1345,5.54749,7.72095,0,17.0551,225,5,
74.1345,5.55145,7.72095,0,17.0551,225,5,
74.1346,5.55664,7.72095,0,17.0551,225,5,
74.1346,5.55939,7.71637,0,17.0551,225,5,
74.1346,5.56335,7.7179,0,17.0551,225,5,
74.1347,5.56793,7.71942,0,17.0551,225,5,
74.1347,5.57312,7.72095,0,17.0551,225,5,
74.1347,5.57709,7.71942,0,17.0551,225,5,
74.1348,5.58044,7.71484,0,17.0551,225,5,
74.1348,5.58655,7.71942,0,17.0551,225,5,
74.1348,5.58807,7.71942,0,17.0551,225,5,
74.1349,5.59204,7.72095,0,17.0551,225,5,
74.1349,5.59753,7.71942,0,17.0551,225,5,
74.1349,5.60211,7.71942,0,17.0551,225,5,
74.135,5.60638,7.72095,0,17.0551,225,5,
74.135,5.61066,7.72095,0,17.0551,225,5,
74.135,5.61493,7.72095,0,17.0551,225,5,
74.1351,5.61768,7.71942,0,17.0551,225,5,
74.1351,5.62195,7.7179,0,17.0551,225,5,
74.1351,5.62683,7.71942,0,17.0551,225,5,
74.1352,5.6311,7.71637,0,17.0551,225,5,
74.1352,5.63599,7.7179,0,17.0551,225,5,
74.1352,5.63965,7.71942,0,17.0551,225,5,
74.1353,5.64148,7.72095,0,17.0551,225,5,
74.1353,5.64606,7.71942,0,17.0551,225,5,
74.1353,5.65094,7.7179,0,17.0551,225,5,
74.1354,5.65613,7.72247,0,17.0551,225,5,
74.1354,5.65918,7.7179,0,17.0551,225,5,
74.1354,5.66101,7.7179,0,17.0551,225,5,
74.1355,5.6662,7.72095,0,17.0551,225,5,
74.1355,5.67078,7.7179,0,17.0551,225,5,
74.1355,5.67566,7.7179,0,17.0551,225,5,
74.1356,5.67993,7.7179,0,17.0551,225,5,
74.1356,5.68359,7.71942,0,17.0551,225,5,
74.1356,5.68573,7.7179,0,17.0551,225,5,
74.1357,5.69031,7.71942,0,17.0551,225,5,
74.1357,5.69489,7.72095,0,17.0551,225,5,
74.1357,5.69885,7.7179,0,17.0551,225,5,
74.1358,5.70068,7.7179,0,17.0551,225,5,
74.1358,5.70465,7.71942,0,17.0551,225,5,
74.1358,5.70923,7.71942,0,17.0551,225,5,
74.1359,5.71411,7.72095,0,17.0551,225,5,
74.1359,5.71869,7.71942,0,17.0551,225,5,
74.1359,5.72052,7.7179,0,17.0551,225,5,
74.136,5.72449,7.71942,0,17.0551,225,5,
74.136,5.72876,7.72247,0,17.0551,225,5,
74.136,5.73242,7.71942,0,17.0551,225,5,
74.1361,5.73456,7.71942,0,17.0551,225,5,
74.1361,5.73914,7.724,0,17.0551,225,5,
74.1361,5.74432,7.7301,0,17.0551,225,5,
74.1362,5.74738,7.72705,0,17.0551,225,5,
74.1362,5.74951,7.73468,0,17.0551,225,5,
74.1362,5.75348,7.72858,0,17.0551,225,5,
74.1363,5.75775,7.73316,0,17.0551,225,5,
74.1363,5.76202,7.72705,0,17.0551,225,5,
74.1363,5.76355,7.73163,0,17.0551,225,5,
74.1364,5.76843,7.73468,0,17.0551,225,5,
74.1364,5.77271,7.7301,0,17.0551,225,5,
74.1364,5.77393,7.73316,0,17.0551,225,5,
74.1365,5.77728,7.73163,0,17.0551,225,5,
74.1365,5.78339,7.7301,0,17.0551,225,5,
74.1365,5.78644,7.72858,0,17.0551,225,5,
74.1366,5.78796,7.73316,0,17.0551,225,5,
74.1366,5.79254,7.72858,0,17.0551,225,5,
74.1366,5.79773,7.73316,0,17.0551,225,5,
74.1367,5.79865,7.73316,0,17.0551,225,5,
74.1367,5.80292,7.73163,0,17.0551,225,5,
74.1367,5.8075,7.73163,0,17.0551,225,5,
74.1368,5.80841,7.73316,0,17.0551,225,5,
74.1368,5.81238,7.7301,0,17.0551,225,5,
74.1368,5.81696,7.73316,0,17.0551,225,5,
74.1369,5.81818,7.73163,0,17.0551,225,5,
74.1369,5.82184,7.73468,0,17.0551,225,5,
74.1369,5.82733,7.72858,0,17.0551,225,5,
74.137,5.82825,7.73163,0,17.0551,225,5,
74.137,5.83191,7.7301,0,17.0551,225,5,
74.137,5.83679,7.7301,0,17.0551,225,5,
74.1371,5.8374,7.73163,0,17.0551,225,5,
74.1371,5.84229,7.73163,0,17.0551,225,5,
74.1371,5.84595,7.7301,0,17.0551,225,5,
74.1372,5.84808,7.73316,0,17.0551,225,5,
74.1372,5.85236,7.7301,0,17.0551,225,5,
74.1372,5.85541,7.7301,0,17.0551,225,5,
74.1373,5.85693,7.73316,0,17.0551,225,5,
74.1373,5.86121,7.73163,0,17.0551,225,5,
74.1373,5.86517,7.73163,0,17.0551,225,5,
74.1374,5.86639,7.72858,0,17.0551,225,5,
74.1374,5.87067,7.7301,0,17.0551,225,5,
74.1374,5.87189,7.7301,0,17.0551,225,5,
74.1375,5.87616,7.73468,0,17.0551,225,5,
74.1375,5.87982,7.73468,0,17.0551,225,5,
74.1375,5.88104,7.7301,0,17.0551,225,5,
74.1376,5.88654,7.73468,0,17.0551,225,5,
74.1376,5.88684,7.73316,0,17.0551,225,5,
74.1376,5.89111,7.73316,0,17.0551,225,5,
74.1377,5.89417,7.7301,0,17.0551,225,5,
74.1377,5.896,7.73163,0,17.0551,225,5,
74.1377,5.90057,7.73316,0,17.0551,225,5,
74.1378,5.90088,7.73316,0,17.0551,225,5,
74.1378,5.90576,7.73316,0,17.0551,225,5,
74.1378,5.90607,7.73163,0,17.0551,225,5,
74.1379,5.91125,7.73163,0,17.0551,225,5,
74.1379,5.914,7.73163,0,17.0551,225,5,
74.1379,5.91614,7.7301,0,17.0551,225,5,
74.138,5.9201,7.7301,0,17.0551,225,5,
74.138,5.9201,7.7301,0,17.0551,225,5,
74.138,5.92529,7.73163,0,17.0551,225,5,
74.1381,5.9256,7.73163,0,17.0551,225,5,
74.1381,5.93079,7.73163,0,17.0551,225,5,
74.1381,5.93323,7.73163,0,17.0551,225,5,
74.1382,5.93536,7.73468,0,17.0551,225,5,
74.1382,5.93872,7.7301,0,17.0551,225,5,
74.1382,5.94055,7.73316,0,17.0551,225,5,
74.1383,5.94513,7.73316,0,17.0551,225,5,
74.1383,5.94543,7.73468,0,17.0551,225,5,
74.1383,5.9491,7.73163,0,17.0551,225,5,
74.1384,5.94971,7.73163,0,17.0551,225,5,
74.1384,5.95428,7.73468,0,17.0551,225,5,
74.1384,5.95428,7.73163,0,17.0551,225,5,
74.1385,5.95978,7.73163,0,17.0551,225,5,
74.1385,5.95978,7.73316,0,17.0551,225,5,
74.1385,5.96436,7.73163,0,17.0551,225,5,
74.1386,5.96436,7.73163,0,17.0551,225,5,
74.1386,5.96954,7.7301,0,17.0551,225,5,
74.1386,5.96924,7.72858,0,17.0551,225,5,
74.1387,5.97382,7.73468,0,17.0551,225,5,
74.1387,5.97412,7.73163,0,17.0551,225,5,
74.1387,5.9787,7.7301,0,17.0551,225,5,
74.1388,5.9787,7.73316,0,17.0551,225,5,
74.1388,5.98419,7.73468,0,17.0551,225,5,
74.1388,5.98389,7.73468,0,17.0551,225,5,
74.1389,5.98724,7.7301,0,17.0551,225,5,
74.1389,5.98877,7.73621,0,17.0551,225,5,
74.1389,5.99243,7.73316,0,17.0551,225,5,
74.139,5.99426,7.7301,0,17.0551,225,5,
74.139,5.99396,7.73163,0,17.0551,225,5,
74.139,5.99854,7.73163,0,17.0551,225,5,
74.1391,5.99823,7.73163,0,17.0551,225,5,
74.1391,6.00403,7.73468,0,17.0551,225,5,
74.1391,6.00342,7.73163,0,17.0551,225,5,
74.1392,6.00861,7.73316,0,17.0551,225,5,
74.1392,6.00861,7.7301,0,17.0551,225,5,
74.1392,6.01196,7.73468,0,17.0551,225,5,
74.1393,6.01288,7.7301,0,17.0551,225,5,
74.1393,6.0144,7.73316,0,17.0551,225,5,
74.1393,6.01807,7.73316,0,17.0551,225,5,
74.1394,6.01837,7.73316,0,17.0551,225,5,
74.1394,6.02325,7.7301,0,17.0551,225,5,
74.1394,6.02386,7.72705,0,17.0551,225,5,
74.1395,6.026,7.73163,0,17.0551,225,5,
74.1395,6.02844,7.73468,0,17.0551,225,5,
74.1395,6.02905,7.72858,0,17.0551,225,5,
74.1396,6.03271,7.7301,0,17.0551,225,5,
74.1396,6.03333,7.73468,0,17.0551,225,5,
74.1396,6.0376,7.73468,0,17.0551,225,5,
74.1397,6.0376,7.72858,0,17.0551,225,5,
74.1397,6.03851,7.7301,0,17.0551,225,5,
74.1397,6.04248,7.73163,0,17.0551,225,5,
74.1398,6.04248,7.73163,0,17.0551,225,5,
74.1398,6.04767,7.7301,0,17.0551,225,5,
74.1398,6.04828,7.73468,0,17.0551,225,5,
74.1399,6.04889,7.72858,0,17.0551,225,5,
74.1399,6.05286,7.73163,0,17.0551,225,5,
74.1399,6.05347,7.7301,0,17.0551,225,5,
74.14,6.05743,7.73163,0,17.0551,225,5,
74.14,6.05865,7.73468,0,17.0551,225,5,
74.14,6.05835,7.73163,0,17.0551,225,5,
74.1401,6.06323,7.73316,0,17.0551,225,5,
74.1401,6.06323,7.72705,0,17.0551,225,5,
74.1401,6.06384,7.7301,0,17.0551,225,5,
74.1402,6.06812,7.7301,0,17.0551,225,5,
74.1402,6.06812,7.73163,0,17.0551,225,5,
74.1402,6.07147,7.7301,0,17.0551,225,5,
74.1403,6.07269,7.72858,0,17.0551,225,5,
74.1403,6.07239,7.7301,0,17.0551,225,5,
74.1403,6.07666,7.7301,0,17.0551,225,5,
74.1404,6.07758,7.7301,0,17.0551,225,5,
74.1404,6.07758,7.7301,0,17.0551,225,5,
74.1404,6.08185,7.73163,0,17.0551,225,5,
74.1405,6.08154,7.73163,0,17.0551,225,5,
74.1405,6.08215,7.73163,0,17.0551,225,5,
74.1405,6.08734,7.72553,0,17.0551,225,5,
74.1406,6.08643,7.73316,0,17.0551,225,5,
74.1406,6.08765,7.73163,0,17.0551,225,5,
74.1406,6.09161,7.73468,0,17.0551,225,5,
74.1407,6.09131,7.73163,0,17.0551,225,5,
74.1407,6.09192,7.73316,0,17.0551,225,5,
74.1407,6.09619,7.73316,0,17.0551,225,5,
74.1408,6.09619,7.7301,0,17.0551,225,5,
74.1408,6.0968,7.73163,0,17.0551,225,5,
74.1408,6.10138,7.73163,0,17.0551,225,5,
74.1409,6.10107,7.73316,0,17.0551,225,5,
74.1409,6.10168,7.73621,0,17.0551,225,5,
74.1409,6.10687,7.73163,0,17.0551,225,5,
74.141,6.10687,7.7301,0,17.0551,225,5,
74.141,6.10535,7.73163,0,17.0551,225,5,
74.141,6.11084,7.73468,0,17.0551,225,5,
74.1411,6.11084,7.73163,0,17.0551,225,5,
74.1411,6.11145,7.73316,0,17.0551,225,5,
74.1411,6.11115,7.72858,0,17.0551,225,5,
74.1412,6.11603,7.73468,0,17.0551,225,5,
74.1412,6.11694,7.73621,0,17.0551,225,5,
74.1412,6.11664,7.72858,0,17.0551,225,5,
74.1413,6.12091,7.73316,0,17.0551,225,5,
74.1413,6.12122,7.73468,0,17.0551,225,5,
74.1413,6.12152,7.72858,0,17.0551,225,5,
74.1414,6.12457,7.7301,0,17.0551,225,5,
74.1414,6.12579,7.73316,0,17.0551,225,5,
74.1414,6.1264,7.73163,0,17.0551,225,5,
74.1415,6.1264,7.7301,0,17.0551,225,5,
74.1415,6.13068,7.73468,0,17.0551,225,5,
74.1415,6.13129,7.73163,0,17.0551,225,5,
74.1416,6.13098,7.7301,0,17.0551,225,5,
74.1416,6.13129,7.7301,0,17.0551,225,5,
74.1416,6.13556,7.73468,0,17.0551,225,5,
74.1417,6.13525,7.7301,0,17.0551,225,5,
74.1417,6.13586,7.7301,0,17.0551,225,5,
74.1417,6.14014,7.7301,0,17.0551,225,5,
74.1418,6.14105,7.73316,0,17.0551,225,5,
74.1418,6.14044,7.7301,0,17.0551,225,5,
74.1418,6.14105,7.7301,0,17.0551,225,5,
74.1419,6.14502,7.72858,0,17.0551,225,5,
74.1419,6.14563,7.7301,0,17.0551,225,5,
74.1419,6.14624,7.7301,0,17.0551,225,5,
74.142,6.14563,7.7301,0,17.0551,225,5,
74.142,6.15082,7.73468,0,17.0551,225,5,
74.142,6.15021,7.73163,0,17.0551,225,5,
74.1421,6.15082,7.7301,0,17.0551,225,5,
74.1421,6.15051,7.73316,0,17.0551,225,5,
74.1421,6.15479,7.7301,0,17.0551,225,5,
74.1422,6.15509,7.73163,0,17.0551,225,5,
74.1422,6.1554,7.73163,0,17.0551,225,5,
74.1422,6.1557,7.73163,0,17.0551,225,5,
74.1423,6.15906,7.73163,0,17.0551,225,5,
74.1423,6.16058,7.73621,0,17.0551,225,5,
74.1423,6.16089,7.73316,0,17.0551,225,5,
74.1424,6.16058,7.73316,0,17.0551,225,5,
74.1424,6.16089,7.73316,0,17.0551,225,5,
74.1424,6.16486,7.7301,0,17.0551,225,5,
74.1425,6.16547,7.73163,0,17.0551,225,5,
74.1425,6.16669,7.73163,0,17.0551,225,5,
74.1425,6.16577,7.7301,0,17.0551,225,5,
74.1426,6.16974,7.7301,0,17.0551,225,5,
74.1426,6.16974,7.73163,0,17.0551,225,5,
74.1426,6.17035,7.7301,0,17.0551,225,5,
74.1427,6.17065,7.72858,0,17.0551,225,5,
74.1427,6.17004,7.73163,2.746,17.0551,225,5,
74.1427,6.17493,7.7301,2.746,17.0551,225,5,
74.1428,6.17554,7.73163,2.746,17.0551,225,5,
74.1428,6.17554,7.74384,2.746,17.0551,225,5,
74.1428,6.17523,7.74536,2.746,17.0551,225,5,
74.1429,6.1792,7.74689,2.746,17.0551,225,5,
74.1429,6.18011,7.74384,2.746,17.0551,225,5,
74.1429,6.17981,7.74384,2.746,17.0551,225,5,
74.143,6.18073,7.74384,2.746,17.0551,225,5,
74.143,6.18011,7.74384,2.746,17.0551,225,5,
74.143,6.18408,7.74689,2.746,17.0551,225,5,
74.1431,6.18561,7.74536,2.746,17.0551,225,5,
74.1431,6.1853,7.74689,2.746,17.0551,225,5,
74.1431,6.1853,7.74536,2.746,17.0551,225,5,
74.1432,6.18469,7.74384,2.746,17.0551,225,5,
74.1432,6.18958,7.74536,2.746,17.0551,225,5,
74.1432,6.18988,7.74231,2.746,17.0551,225,5,
74.1433,6.18927,7.74231,2.746,17.0551,225,5,
74.1433,6.18988,7.74536,2.746,17.0551,225,5,
74.1433,6.18927,7.74536,2.746,17.0551,225,5,
74.1434,6.19446,7.74231,2.746,17.0551,225,5,
74.1434,6.19476,7.74536,2.746,17.0551,225,5,
74.1434,6.19446,7.74384,2.746,17.0551,225,5,
74.1435,6.19537,7.73926,2.746,17.0551,225,5,
74.1435,6.19507,7.74078,2.746,17.0551,225,5,
74.1435,6.19995,7.74231,2.746,17.0551,225,5,
74.1436,6.20026,7.74231,2.746,17.0551,225,5,
74.1436,6.20026,7.74536,2.746,17.0551,225,5,
74.1436,6.19995,7.74689,2.746,17.0551,225,5,
74.1437,6.19995,7.74231,2.746,17.0551,225,5,
74.1437,6.20331,7.74536,2.746,17.0551,225,5,
74.1437,6.20483,7.75147,2.746,17.0551,225,5,
74.1438,6.20483,7.74231,2.746,17.0551,225,5,
74.1438,6.20453,7.74231,2.746,17.0551,225,5,
74.1438,6.20392,7.74231,2.746,17.0551,225,5,
74.1439,6.20422,7.74231,2.746,17.0551,225,5,
74.1439,6.21063,7.74231,2.746,17.0551,225,5,
74.1439,6.21033,7.74384,2.746,17.0551,225,5,
74.144,6.20911,7.74536,2.746,17.0551,225,5,
74.144,6.20972,7.74231,2.746,17.0551,225,5,
74.144,6.20941,7.74841,2.746,17.0551,225,5,
74.1441,6.21277,7.74536,2.746,17.0551,225,5,
74.1441,6.21429,7.74384,2.746,17.0551,225,5,
74.1441,6.2146,7.74078,2.746,17.0551,225,5,
74.1442,6.2146,7.74384,2.746,17.0551,225,5,
74.1442,6.21399,7.74536,2.746,17.0551,225,5,
74.1442,6.2146,7.74231,2.746,17.0551,225,5,
74.1443,6.21887,7.74384,2.746,17.0551,225,5,
74.1443,6.21979,7.74384,2.746,17.0551,225,5,
74.1443,6.21857,7.74231,2.746,17.0551,225,5,
74.1444,6.21887,7.74384,2.746,17.0551,225,5,
74.1444,6.21948,7.74384,2.746,17.0551,225,5,
74.1444,6.22009,7.74231,2.746,17.0551,225,5,
74.1445,6.22406,7.74078,2.746,17.0551,225,5,
74.1445,6.22406,7.74536,2.746,17.0551,225,5,
74.1445,6.22406,7.74231,2.746,17.0551,225,5,
74.1446,6.22437,7.74689,2.746,17.0551,225,5,
74.1446,6.22406,7.74384,2.746,17.0551,225,5,
74.1446,6.22406,7.74231,2.746,17.0551,225,5,
74.1447,6.22437,7.74384,2.746,17.0551,225,5,
74.1447,6.22925,7.74689,2.746,17.0551,225,5,
74.1447,6.22864,7.74689,2.746,17.0551,225,5,
74.1448,6.22833,7.74384,2.746,17.0551,225,5,
74.1448,6.22925,7.74231,2.746,17.0551,225,5,
74.1448,6.22894,7.74384,2.746,17.0551,225,5,
74.1449,6.22955,7.74078,2.746,17.0551,225,5,
74.1449,6.22925,7.74078,2.746,17.0551,225,5,
74.1449,6.23352,7.74231,2.746,17.0551,225,5,
74.145,6.23383,7.74078,2.746,17.0551,225,5,
74.145,6.23413,7.74231,2.746,17.0551,225,5,
74.145,6.23444,7.74231,2.746,17.0551,225,5,
74.1451,6.23383,7.74231,2.746,17.0551,225,5,
74.1451,6.23444,7.74384,2.746,17.0551,225,5,
74.1451,6.23322,7.74384,2.746,17.0551,225,5,
74.1452,6.23352,7.74384,2.746,17.0551,225,5,
74.1452,6.23383,7.74536,2.746,17.0551,225,5,
74.1452,6.23901,7.74384,2.746,17.0551,225,5,
74.1453,6.2381,7.74384,2.746,17.0551,225,5,
74.1453,6.2384,7.74536,2.746,17.0551,225,5,
74.1453,6.23871,7.74384,2.746,17.0551,225,5,
74.1454,6.23901,7.74536,2.746,17.0551,225,5,
74.1454,6.2381,7.74689,2.746,17.0551,225,5,
74.1454,6.23901,7.74231,2.746,17.0551,225,5,
74.1455,6.23901,7.74231,2.746,17.0551,225,5,
74.1455,6.2381,7.74384,2.746,17.0551,225,5,
74.1455,6.23962,7.74231,2.746,17.0551,225,5,
74.1456,6.23871,7.74536,2.746,17.0551,225,5,
74.1456,6.2381,7.74231,2.746,17.0551,225,5,
74.1456,6.2384,7.74689,2.746,17.0551,225,5,
74.1457,6.24359,7.74536,2.746,17.0551,225,5,
74.1457,6.2442,7.74384,2.746,17.0551,225,5,
74.1457,6.24359,7.74231,2.746,17.0551,225,5,
74.1458,6.2439,7.74231,2.746,17.0551,225,5,
74.1458,6.24298,7.74689,2.746,17.0551,225,5,
74.1458,6.24359,7.74384,2.746,17.0551,225,5,
74.1459,6.2439,7.74536,2.746,17.0551,225,5,
74.1459,6.2439,7.74078,2.746,17.0551,225,5,
74.1459,6.2439,7.74384,2.746,17.0551,225,5,
74.146,6.24298,7.74536,2.746,17.0551,225,5,
74.146,6.24359,7.74689,2.746,17.0551,225,5,
74.146,6.24329,7.74384,2.746,17.0551,225,5,
74.1461,6.2442,7.74078,2.746,17.0551,225,5,
74.1461,6.24359,7.74231,2.746,17.0551,225,5,
74.1461,6.24451,7.74384,2.746,17.0551,225,5,
74.1462,6.24237,7.75299,2.746,17.0551,225,5,
74.1462,6.24329,7.75452,2.746,17.0551,225,5,
74.1462,6.24359,7.75604,2.746,17.0551,225,5,
74.1463,6.24359,7.75604,2.746,17.0551,225,5,
74.1463,6.24329,7.7591,2.746,17.0551,225,5,
74.1463,6.24451,7.7591,2.746,17.0551,225,5,
74.1464,6.24359,7.75299,2.746,17.0551,225,5,
74.1464,6.24451,7.75452,2.746,17.0551,225,5,
74.1464,6.24329,7.75604,2.746,17.0551,225,5,
74.1465,6.2439,7.75452,2.746,17.0551,225,5,
74.1465,6.24359,7.75604,2.746,17.0551,225,5,
74.1465,6.24359,7.75452,2.746,17.0551,225,5,
74.1466,6.2442,7.75604,2.746,17.0551,225,5,
74.1466,6.24329,7.75452,2.746,17.0551,225,5,
74.1466,6.2439,7.75604,2.746,17.0551,225,5,
74.1467,6.24359,7.75604,2.746,17.0551,225,5,
74.1467,6.24329,7.75604,2.746,17.0551,225,5,
74.1467,6.2439,7.75604,2.746,17.0551,225,5,
74.1468,6.2442,7.75757,2.746,17.0551,225,5,
74.1468,6.24359,7.75757,2.746,17.0551,225,5,
74.1468,6.2442,7.7591,2.746,17.0551,225,5,
74.1469,6.24329,7.75452,2.746,17.0551,225,5,
74.1469,6.23871,7.75757,2.746,17.0551,225,5,
74.1469,6.2384,7.7591,2.746,17.0551,225,5,
74.147,6.23901,7.75452,2.746,17.0551,225,5,
74.147,6.23901,7.75757,2.746,17.0551,225,5,
74.147,6.23901,7.75452,2.746,17.0551,225,5,
74.1471,6.2381,7.75604,2.746,17.0551,225,5,
74.1471,6.2384,7.75604,2.746,17.0551,225,5,
74.1471,6.23901,7.75757,2.746,17.0551,225,5,
74.1472,6.2384,7.75604,2.746,17.0551,225,5,
74.1472,6.23871,7.75757,2.746,17.0551,225,5,
74.1472,6.23871,7.75604,2.746,17.0551,225,5,
74.1473,6.2381,7.75757,2.746,17.0551,225,5,
74.1473,6.2384,7.75604,2.746,17.0551,225,5,
74.1473,6.23871,7.75299,2.746,17.0551,225,5,
74.1474,6.2384,7.75757,2.746,17.0551,225,5,
74.1474,6.23932,7.75604,2.746,17.0551,225,5,
74.1474,6.23413,7.75604,2.746,17.0551,225,5,
74.1475,6.23352,7.75299,2.746,17.0551,225,5,
74.1475,6.23383,7.7591,2.746,17.0551,225,5,
74.1475,6.23383,7.75757,2.746,17.0551,225,5,
74.1476,6.23413,7.75452,2.746,17.0551,225,5,
74.1476,6.23352,7.75604,2.746,17.0551,225,5,
74.1476,6.23352,7.75452,2.746,17.0551,225,5,
74.1477,6.23444,7.75757,2.746,17.0551,225,5,
74.1477,6.23444,7.75604,2.746,17.0551,225,5,
74.1477,6.23413,7.75604,2.746,17.0551,225,5,
74.1478,6.23413,7.75604,2.746,17.0551,225,5,
74.1478,6.23444,7.75452,2.746,17.0551,225,5,
74.1478,6.23383,7.75757,2.746,17.0551,225,5,
74.1479,6.22925,7.75757,2.746,17.0551,225,5,
74.1479,6.22925,7.75757,2.746,17.0551,225,5,
74.1479,6.22894,7.75452,2.746,17.0551,225,5,
74.148,6.22894,7.75757,2.746,17.0551,225,5,
74.148,6.22986,7.75604,2.746,17.0551,225,5,
74.148,6.22894,7.75452,2.746,17.0551,225,5,
74.1481,6.22955,7.75604,2.746,17.0551,225,5,
74.1481,6.22955,7.7591,2.746,17.0551,225,5,
74.1481,6.22955,7.75757,2.746,17.0551,225,5,
74.1482,6.22894,7.75757,2.746,17.0551,225,5,
74.1482,6.22925,7.75757,2.746,17.0551,225,5,
74.1482,6.22498,7.75604,2.746,17.0551,225,5,
74.1483,6.22498,7.75452,2.746,17.0551,225,5,
74.1483,6.22437,7.75757,2.746,17.0551,225,5,
74.1483,6.22375,7.7591,2.746,17.0551,225,5,
74.1484,6.22437,7.75604,2.746,17.0551,225,5,
74.1484,6.22467,7.7591,2.746,17.0551,225,5,
74.1484,6.22406,7.75299,2.746,17.0551,225,5,
74.1485,6.22375,7.76062,2.746,17.0551,225,5,
74.1485,6.22467,7.75604,2.746,17.0551,225,5,
74.1485,6.22437,7.75604,2.746,17.0551,225,5,
74.1486,6.22437,7.75452,2.746,17.0551,225,5,
74.1486,6.21979,7.75757,2.746,17.0551,225,5,
74.1486,6.21948,7.75604,2.746,17.0551,225,5,
74.1487,6.21979,7.75452,2.746,17.0551,225,5,
74.1487,6.21979,7.75452,2.746,17.0551,225,5,
74.1487,6.21918,7.75757,2.746,17.0551,225,5,
74.1488,6.21979,7.75604,2.746,17.0551,225,5,
74.1488,6.21918,7.75604,2.746,17.0551,225,5,
74.1488,6.21918,7.7591,2.746,17.0551,225,5,
74.1489,6.22009,7.75604,2.746,17.0551,225,5,
74.1489,6.21948,7.75604,2.746,17.0551,225,5,
74.1489,6.2146,7.75604,2.746,17.0551,225,5,
74.149,6.21399,7.75452,2.746,17.0551,225,5,
74.149,6.2146,7.75604,2.746,17.0551,225,5,
74.149,6.2146,7.75452,2.746,17.0551,225,5,
74.1491,6.2149,7.75452,2.746,17.0551,225,5,
74.1491,6.21429,7.7591,2.746,17.0551,225,5,
74.1491,6.2146,7.7591,2.746,17.0551,225,5,
74.1492,6.2149,7.75757,2.746,17.0551,225,5,
74.1492,6.2146,7.75757,2.746,17.0551,225,5,
74.1492,6.2146,7.75604,2.746,17.0551,225,5,
74.1493,6.21429,7.7591,2.746,17.0551,225,5,
74.1493,6.21002,7.75452,2.746,17.0551,225,5,
74.1493,6.20911,7.75604,2.746,17.0551,225,5,
74.1494,6.20941,7.75452,2.746,17.0551,225,5,
74.1494,6.20911,7.75757,2.746,17.0551,225,5,
74.1494,6.20941,7.7591,2.746,17.0551,225,5,
74.1495,6.20941,7.75757,2.746,17.0551,225,5,
74.1495,6.20972,7.75604,2.746,17.0551,225,5,
74.1495,6.20941,7.75604,2.746,17.0551,225,5,
74.1496,6.20941,7.75757,2.746,17.0551,225,5,
74.1496,6.21002,7.75757,2.746,17.0551,225,5,
74.1496,6.21033,7.75757,2.746,17.0551,225,5,
74.1497,6.20972,7.75604,2.746,17.0551,225,5,
74.1497,6.20972,7.7591,2.746,17.0551,225,5,
74.1497,6.20422,7.75757,2.746,17.0551,225,5,
74.1498,6.20453,7.75604,2.746,17.0551,225,5,
74.1498,6.20422,7.75604,2.746,17.0551,225,5,
74.1498,6.20483,7.75757,2.746,17.0551,225,5,
74.1499,6.20483,7.76672,2.746,17.0551,225,5,
74.1499,6.20483,7.76978,2.746,17.0551,225,5,
74.1499,6.20544,7.76978,2.746,17.0551,225,5,
74.15,6.20392,7.76825,2.746,17.0551,225,5,
74.15,6.20453,7.76825,2.746,17.0551,225,5,
74.15,6.20483,7.76672,2.746,17.0551,225,5,
74.1501,6.20422,7.76672,2.746,17.0551,225,5,
74.1501,6.20514,7.77283,2.746,17.0551,225,5,
74.1501,6.20483,7.76672,2.746,17.0551,225,5,
74.1502,6.20483,7.76672,2.746,17.0551,225,5,
74.1502,6.20514,7.76978,2.746,17.0551,225,5,
74.1502,6.20453,7.7652,2.746,17.0551,225,5,
74.1503,6.20483,7.7713,2.746,17.0551,225,5,
74.1503,6.19995,7.76825,2.746,17.0551,225,5,
74.1503,6.19995,7.76672,2.746,17.0551,225,5,
74.1504,6.20056,7.7652,2.746,17.0551,225,5,
74.1504,6.20026,7.76825,2.746,17.0551,225,5,
74.1504,6.20117,7.76672,2.746,17.0551,225,5,
74.1505,6.20026,7.76978,2.746,17.0551,225,5,
74.1505,6.20026,7.76978,2.746,17.0551,225,5,
74.1505,6.20026,7.76978,2.746,17.0551,225,5,
74.1506,6.19995,7.7652,2.746,17.0551,225,5,
74.1506,6.20056,7.76825,2.746,17.0551,225,5,
74.1506,6.20056,7.76825,2.746,17.0551,225,5,
74.1507,6.19995,7.76825,2.746,17.0551,225,5,
74.1507,6.19934,7.76978,2.746,17.0551,225,5,
74.1507,6.20026,7.76978,2.746,17.0551,225,5,
74.1508,6.19995,7.76978,2.746,17.0551,225,5,
74.1508,6.19965,7.76672,2.746,17.0551,225,5,
74.1508,6.19995,7.76672,2.746,17.0551,225,5,
74.1509,6.19965,7.76825,2.746,17.0551,225,5,
74.1509,6.19934,7.76978,2.746,17.0551,225,5,
74.1509,6.19934,7.76215,2.746,17.0551,225,5,
74.151,6.19965,7.7652,2.746,17.0551,225,5,
74.151,6.19934,7.76672,2.746,17.0551,225,5,
74.151,6.19934,7.76825,2.746,17.0551,225,5,
74.1511,6.19965,7.76978,2.746,17.0551,225,5,
74.1511,6.19965,7.76978,2.746,17.0551,225,5,
74.1511,6.20026,7.76825,2.746,17.0551,225,5,
74.1512,6.19965,7.7713,2.746,17.0551,225,5,
74.1512,6.19934,7.76978,2.746,17.0551,225,5,
74.1512,6.19934,7.77283,2.746,17.0551,225,5,
74.1513,6.19995,7.76978,2.746,17.0551,225,5,
74.1513,6.19965,7.76825,2.746,17.0551,225,5,
74.1513,6.19873,7.7713,2.746,17.0551,225,5,
74.1514,6.19934,7.76978,2.746,17.0551,225,5,
74.1514,6.19904,7.76672,2.746,17.0551,225,5,
74.1514,6.20026,7.76825,2.746,17.0551,225,5,
74.1515,6.19965,7.76825,2.746,17.0551,225,5,
74.1515,6.19873,7.76825,2.746,17.0551,225,5,
74.1515,6.19934,7.76367,2.746,17.0551,225,5,
74.1516,6.19965,7.7713,2.746,17.0551,225,5,
74.1516,6.19965,7.76978,2.746,17.0551,225,5,
74.1516,6.20331,7.76672,2.746,17.0551,225,5,
74.1517,6.20453,7.76825,2.746,17.0551,225,5,
74.1517,6.20453,7.7713,2.746,17.0551,225,5,
74.1517,6.20422,7.76825,2.746,17.0551,225,5,
74.1518,6.20422,7.76672,2.746,17.0551,225,5,
74.1518,6.20544,7.76978,2.746,17.0551,225,5,
74.1518,6.20361,7.7652,2.746,17.0551,225,5,
74.1519,6.20453,7.76825,2.746,17.0551,225,5,
74.1519,6.20483,7.76978,2.746,17.0551,225,5,
74.1519,6.20422,7.76978,2.746,17.0551,225,5,
74.152,6.20422,7.7713,2.746,17.0551,225,5,
74.152,6.20453,7.76978,2.746,17.0551,225,5,
74.152,6.20514,7.76825,2.746,17.0551,225,5,
74.1521,6.20422,7.77283,2.746,17.0551,225,5,
74.1521,6.20422,7.7713,2.746,17.0551,225,5,
74.1521,6.20911,7.7713,2.746,17.0551,225,5,
74.1522,6.20911,7.7713,2.746,17.0551,225,5,
74.1522,6.20972,7.76672,2.746,17.0551,225,5,
74.1522,6.20941,7.7713,2.746,17.0551,225,5,
74.1523,6.21033,7.76825,2.746,17.0551,225,5,
74.1523,6.20941,7.76825,2.746,17.0551,225,5,
74.1523,6.2088,7.76978,2.746,17.0551,225,5,
74.1524,6.2088,7.77283,2.746,17.0551,225,5,
74.1524,6.20941,7.76672,2.746,17.0551,225,5,
74.1524,6.20972,7.76825,2.746,17.0551,225,5,
74.1525,6.21002,7.76978,2.746,17.0551,225,5,
74.1525,6.2146,7.76672,2.746,17.0551,225,5,
74.1525,6.21399,7.76825,2.746,17.0551,225,5,
74.1526,6.2146,7.7652,2.746,17.0551,225,5,
74.1526,6.21399,7.76672,2.746,17.0551,225,5,
74.1526,6.21399,7.7713,2.746,17.0551,225,5,
74.1527,6.2149,7.76825,2.746,17.0551,225,5,
74.1527,6.2146,7.76825,2.746,17.0551,225,5,
74.1527,6.21429,7.76978,2.746,17.0551,225,5,
74.1528,6.2149,7.77283,2.746,17.0551,225,5,
74.1528,6.21857,7.76825,2.746,17.0551,225,5,
74.1528,6.21948,7.77893,2.746,17.0551,225,5,
74.1529,6.21918,7.78351,2.746,17.0551,225,5,
74.1529,6.22009,7.78504,2.746,17.0551,225,5,
74.1529,6.21948,7.78198,2.746,17.0551,225,5,
74.153,6.21826,7.78351,2.746,17.0551,225,5,
74.153,6.21887,7.78198,2.746,17.0551,225,5,
74.153,6.21979,7.78046,2.746,17.0551,225,5,
74.1531,6.22406,7.77893,2.746,17.0551,225,5,
74.1531,6.22375,7.78046,2.746,17.0551,225,5,
74.1531,6.22437,7.78198,2.746,17.0551,225,5,
74.1532,6.22406,7.78198,2.746,17.0551,225,5,
74.1532,6.22467,7.78198,2.746,17.0551,225,5,
74.1532,6.22467,7.78046,2.746,17.0551,225,5,
74.1533,6.22437,7.78351,2.746,17.0551,225,5,
74.1533,6.22864,7.78046,2.746,17.0551,225,5,
74.1533,6.22955,7.78046,2.746,17.0551,225,5,
74.1534,6.22955,7.78198,2.746,17.0551,225,5,
74.1534,6.22955,7.77893,2.746,17.0551,225,5,
74.1534,6.22986,7.77741,2.746,17.0551,225,5,
74.1535,6.22955,7.78046,2.746,17.0551,225,5,
74.1535,6.23199,7.78046,2.746,17.0551,225,5,
74.1535,6.23352,7.77893,2.746,17.0551,225,5,
74.1536,6.23413,7.78198,2.746,17.0551,225,5,
74.1536,6.23413,7.78351,2.746,17.0551,225,5,
74.1536,6.23383,7.78198,2.746,17.0551,225,5,
74.1537,6.23383,7.78198,2.746,17.0551,225,5,
74.1537,6.23474,7.78198,2.746,17.0551,225,5,
74.1537,6.23871,7.78198,2.746,17.0551,225,5,
74.1538,6.23871,7.78351,2.746,17.0551,225,5,
74.1538,6.23871,7.78351,2.746,17.0551,225,5,
74.1538,6.23871,7.78046,2.746,17.0551,225,5,
74.1539,6.23901,7.77893,2.746,17.0551,225,5,
74.1539,6.23962,7.78198,2.746,17.0551,225,5,
74.1539,6.2439,7.78198,2.746,17.0551,225,5,
74.154,6.2439,7.77893,2.746,17.0551,225,5,
74.154,6.2442,7.78046,2.746,17.0551,225,5,
74.154,6.2439,7.78198,2.746,17.0551,225,5,
74.1541,6.2439,7.78504,2.746,17.0551,225,5,
74.1541,6.24725,7.77893,2.746,17.0551,225,5,
74.1541,6.24847,7.78046,2.746,17.0551,225,5,
74.1542,6.24908,7.78198,2.746,17.0551,225,5,
74.1542,6.24817,7.77893,2.746,17.0551,225,5,
74.1542,6.24847,7.78046,2.746,17.0551,225,5,
74.1543,6.24878,7.78046,2.746,17.0551,225,5,
74.1543,6.25397,7.78198,2.746,17.0551,225,5,
74.1543,6.25397,7.77741,2.746,17.0551,225,5,
74.1544,6.25366,7.78198,2.746,17.0551,225,5,
74.1544,6.25305,7.77893,2.746,17.0551,225,5,
74.1544,6.25275,7.78046,2.746,17.0551,225,5,
74.1545,6.25641,7.78046,2.746,17.0551,225,5,
74.1545,6.25854,7.78046,2.746,17.0551,225,5,
74.1545,6.25824,7.78198,2.746,17.0551,225,5,
74.1546,6.25793,7.78198,2.746,17.0551,225,5,
74.1546,6.25793,7.78198,2.746,17.0551,225,5,
74.1546,6.25916,7.78198,2.746,17.0551,225,5,
74.1547,6.26312,7.78046,2.746,17.0551,225,5,
74.1547,6.26373,7.78351,2.746,17.0551,225,5,
74.1547,6.26343,7.78046,2.746,17.0551,225,5,
74.1548,6.26373,7.77741,2.746,17.0551,225,5,
74.1548,6.26312,7.78046,2.746,17.0551,225,5,
74.1548,6.26801,7.78198,2.746,17.0551,225,5,
74.1549,6.26801,7.78198,2.746,17.0551,225,5,
74.1549,6.26831,7.78046,2.746,17.0551,225,5,
74.1549,6.26831,7.78351,2.746,17.0551,225,5,
74.155,6.26801,7.78046,2.746,17.0551,225,5,
74.155,6.27228,7.77893,2.746,17.0551,225,5,
74.155,6.2735,7.78351,2.746,17.0551,225,5,
74.1551,6.27289,7.78198,2.746,17.0551,225,5,
74.1551,6.27258,7.78046,2.746,17.0551,225,5,
74.1551,6.27319,7.78198,2.746,17.0551,225,5,
74.1552,6.27747,7.77893,2.746,17.0551,225,5,
74.1552,6.27747,7.78351,2.746,17.0551,225,5,
74.1552,6.27869,7.78198,2.746,17.0551,225,5,
74.1553,6.27808,7.78046,2.746,17.0551,225,5,
74.1553,6.27777,7.78351,2.746,17.0551,225,5,
74.1553,6.28174,7.77893,2.746,17.0551,225,5,
74.1554,6.28235,7.78351,2.746,17.0551,225,5,
74.1554,6.28296,7.78046,2.746,17.0551,225,5,
74.1554,6.28296,7.78046,2.746,17.0551,225,5,
74.1555,6.28204,7.77741,2.746,17.0551,225,5,
74.1555,6.28662,7.77893,2.746,17.0551,225,5,
74.1555,6.28754,7.78198,2.746,17.0551,225,5,
74.1556,6.28723,7.78198,2.746,17.0551,225,5,
74.1556,6.28723,7.78046,2.746,17.0551,225,5,
74.1556,6.28723,7.78046,2.746,17.0551,225,5,
74.1557,6.28815,7.77741,2.746,17.0551,225,5,
74.1557,6.29272,7.78504,2.746,17.0551,225,5,
74.1557,6.29242,7.78351,2.746,17.0551,225,5,
74.1558,6.29242,7.78198,2.746,17.0551,225,5,
74.1558,6.29211,7.78046,2.746,17.0551,225,5,
74.1558,6.29272,7.78198,2.746,17.0551,225,5,
74.1559,6.2973,7.78046,2.746,17.0551,225,5,
74.1559,6.297,7.78198,2.746,17.0551,225,5,
74.1559,6.29761,7.78198,2.746,17.0551,225,5,
74.156,6.297,7.78046,2.746,17.0551,225,5,
74.156,6.29761,7.78351,2.746,17.0551,225,5,
74.156,6.29761,7.78198,2.746,17.0551,225,5,
74.1561,6.30249,7.77893,2.746,17.0551,225,5,
74.1561,6.30188,7.78198,2.746,17.0551,225,5,
74.1561,6.30188,7.78046,2.746,17.0551,225,5,
74.1562,6.30219,7.78046,2.746,17.0551,225,5,
74.1562,6.30188,7.77893,2.746,17.0551,225,5,
74.1562,6.30341,7.78198,2.746,17.0551,225,5,
74.1563,6.30798,7.77893,2.746,17.0551,225,5,
74.1563,6.30646,7.78198,2.746,17.0551,225,5,
74.1563,6.30646,7.78198,2.746,17.0551,225,5,
74.1564,6.30768,7.78046,2.746,17.0551,225,5,
74.1564,6.30707,7.78198,2.746,17.0551,225,5,
74.1564,6.30707,7.78046,2.746,17.0551,225,5,
74.1565,6.31165,7.78351,2.746,17.0551,225,5,
74.1565,6.31226,7.78198,2.746,17.0551,225,5,
74.1565,6.31165,7.78046,2.746,17.0551,225,5,
74.1566,6.31226,7.78656,2.746,17.0551,225,5,
74.1566,6.31256,7.78961,2.746,17.0551,225,5,
74.1566,6.31226,7.79114,2.746,17.0551,225,5,
74.1567,6.31195,7.79266,2.746,17.0551,225,5,
74.1567,6.31683,7.79572,2.746,17.0551,225,5,
74.1567,6.31683,7.78809,2.746,17.0551,225,5,
74.1568,6.31622,7.79266,2.746,17.0551,225,5,
74.1568,6.31714,7.79419,2.746,17.0551,225,5,
74.1568,6.31744,7.79572,2.746,17.0551,225,5,
74.1569,6.31683,7.79114,2.746,17.0551,225,5,
74.1569,6.31714,7.79419,2.746,17.0551,225,5,
74.1569,6.31683,7.79114,2.746,17.0551,225,5,
74.157,6.32263,7.79114,2.746,17.0551,225,5,
74.157,6.32172,7.79419,2.746,17.0551,225,5,
74.157,6.32141,7.79114,2.746,17.0551,225,5,
74.1571,6.32233,7.78961,2.746,17.0551,225,5,
74.1571,6.32172,7.79266,2.746,17.0551,225,5,
74.1571,6.32263,7.79419,2.746,17.0551,225,5,
74.1572,6.32202,7.79572,2.746,17.0551,225,5,
74.1572,6.32202,7.79419,2.746,17.0551,225,5,
74.1572,6.32233,7.79572,2.746,17.0551,225,5,
74.1573,6.32721,7.78961,2.746,17.0551,225,5,
74.1573,6.3266,7.79114,2.746,17.0551,225,5,
74.1573,6.3266,7.79572,2.746,17.0551,225,5,
74.1574,6.32721,7.79572,2.746,17.0551,225,5,
74.1574,6.32721,7.79419,2.746,17.0551,225,5,
74.1574,6.32782,7.79419,2.746,17.0551,225,5,
74.1575,6.32721,7.79572,2.746,17.0551,225,5,
74.1575,6.3269,7.79419,2.746,17.0551,225,5,
74.1575,6.3269,7.79114,2.746,17.0551,225,5,
74.1576,6.32782,7.79266,2.746,17.0551,225,5,
74.1576,6.33026,7.79114,2.746,17.0551,225,5,
74.1576,6.33118,7.79266,2.746,17.0551,225,5,
74.1577,6.33209,7.78961,2.746,17.0551,225,5,
74.1577,6.33179,7.79266,2.746,17.0551,225,5,
74.1577,6.33148,7.79266,2.746,17.0551,225,5,
74.1578,6.33209,7.79266,2.746,17.0551,225,5,
74.1578,6.3324,7.79724,2.746,17.0551,225,5,
74.1578,6.33179,7.78809,2.746,17.0551,225,5,
74.1579,6.33148,7.79266,2.746,17.0551,225,5,
74.1579,6.33179,7.79114,2.746,17.0551,225,5,
74.1579,6.33148,7.79419,2.746,17.0551,225,5,
74.158,6.33209,7.79114,2.746,17.0551,225,5,
74.158,6.33148,7.79266,2.746,17.0551,225,5,
74.158,6.33179,7.79266,2.746,17.0551,225,5,
74.1581,6.33209,7.79266,2.746,17.0551,225,5,
74.1581,6.33148,7.79419,2.746,17.0551,225,5,
74.1581,6.33179,7.79419,2.746,17.0551,225,5,
74.1582,6.33667,7.79266,2.746,17.0551,225,5,
74.1582,6.33698,7.79114,2.746,17.0551,225,5,
74.1582,6.33698,7.79572,2.746,17.0551,225,5,
74.1583,6.33667,7.79114,2.746,17.0551,225,5,
74.1583,6.33667,7.79419,2.746,17.0551,225,5,
74.1583,6.33667,7.79572,2.746,17.0551,225,5,
74.1584,6.33728,7.78961,2.746,17.0551,225,5,
74.1584,6.33667,7.79572,2.746,17.0551,225,5,
74.1584,6.33667,7.79114,2.746,17.0551,225,5,
74.1585,6.33698,7.79572,2.746,17.0551,225,5,
74.1585,6.33667,7.79572,2.746,17.0551,225,5,
74.1585,6.33636,7.79419,2.746,17.0551,225,5,
74.1586,6.33667,7.79572,2.746,17.0551,225,5,
74.1586,6.33728,7.79114,2.746,17.0551,225,5,
74.1586,6.33728,7.79572,2.746,17.0551,225,5,
74.1587,6.33698,7.79724,2.746,17.0551,225,5,
74.1587,6.33759,7.79114,2.746,17.0551,225,5,
74.1587,6.33698,7.79266,2.746,17.0551,225,5,
74.1588,6.33789,7.79266,2.746,17.0551,225,5,
74.1588,6.33728,7.78961,2.746,17.0551,225,5,
74.1588,6.33698,7.79419,2.746,17.0551,225,5,
74.1589,6.33636,7.79877,2.746,17.0551,225,5,
74.1589,6.33636,7.79266,2.746,17.0551,225,5,
74.1589,6.33636,7.79266,2.746,17.0551,225,5,
74.159,6.33667,7.79266,2.746,17.0551,225,5,
74.159,6.33728,7.79266,2.746,17.0551,225,5,
74.159,6.33636,7.79419,2.746,17.0551,225,5,
74.1591,6.33698,7.79114,2.746,17.0551,225,5,
74.1591,6.33698,7.78961,2.746,17.0551,225,5,
74.1591,6.33728,7.79114,2.746,17.0551,225,5,
74.1592,6.33667,7.79266,2.746,17.0551,225,5,
74.1592,6.33667,7.79419,2.746,17.0551,225,5,
74.1592,6.33698,7.79114,2.746,17.0551,225,5,
74.1593,6.33728,7.78961,2.746,17.0551,225,5,
74.1593,6.33789,7.79266,2.746,17.0551,225,5,
74.1593,6.33728,7.79266,2.746,17.0551,225,5,
74.1594,6.33667,7.79266,2.746,17.0551,225,5,
74.1594,6.33698,7.79266,2.746,17.0551,225,5,
74.1594,6.33667,7.79266,2.746,17.0551,225,5,
74.1595,6.33698,7.79266,2.746,17.0551,225,5,
74.1595,6.33698,7.79419,2.746,17.0551,225,5,
74.1595,6.33667,7.79266,2.746,17.0551,225,5,
74.1596,6.33698,7.79266,2.746,17.0551,225,5,
74.1596,6.33667,7.79114,2.746,17.0551,225,5,
74.1596,6.33636,7.79266,2.746,17.0551,225,5,
74.1597,6.33728,7.79266,2.746,17.0551,225,5,
74.1597,6.33667,7.79572,2.746,17.0551,225,5,
74.1597,6.33728,7.79114,2.746,17.0551,225,5,
74.1598,6.33636,7.79572,2.746,17.0551,225,5,
74.1598,6.33606,7.79419,2.746,17.0551,225,5,
74.1598,6.33606,7.78656,2.746,17.0551,225,5,
74.1599,6.33698,7.79266,2.746,17.0551,225,5,
74.1599,6.33636,7.79419,2.746,17.0551,225,5,
74.1599,6.33759,7.79266,2.746,17.0551,225,5,
74.16,6.33606,7.79114,2.746,17.0551,225,5,
74.16,6.33209,7.79114,2.746,17.0551,225,5,
74.16,6.33148,7.79114,2.746,17.0551,225,5,
74.1601,6.33209,7.79724,2.746,17.0551,225,5,
74.1601,6.33209,7.79266,2.746,17.0551,225,5,
74.1601,6.33118,7.79114,2.746,17.0551,225,5,
74.1602,6.3324,7.79266,2.746,17.0551,225,5,
74.1602,6.33118,7.79114,2.746,17.0551,225,5,
74.1602,6.33087,7.79114,2.746,17.0551,225,5,
74.1603,6.33118,7.79114,2.746,17.0551,225,5,
74.1603,6.33148,7.79572,2.746,17.0551,225,5,
74.1603,6.33118,7.80487,2.746,17.0551,225,5,
74.1604,6.33148,7.80487,2.746,17.0551,225,5,
74.1604,6.33179,7.80487,2.746,17.0551,225,5,
74.1604,6.33087,7.80335,2.746,17.0551,225,5,
74.1605,6.32721,7.8064,2.746,17.0551,225,5,
74.1605,6.3266,7.80487,2.746,17.0551,225,5,
74.1605,6.3266,7.80487,2.746,17.0551,225,5,
74.1606,6.3266,7.8064,2.746,17.0551,225,5,
74.1606,6.3266,7.8064,2.746,17.0551,225,5,
74.1606,6.32721,7.80487,2.746,17.0551,225,5,
74.1607,6.3266,7.80335,2.746,17.0551,225,5,
74.1607,6.32751,7.80335,2.746,17.0551,225,5,
74.1607,6.32782,7.8064,2.746,17.0551,225,5,
74.1608,6.3269,7.80335,2.746,17.0551,225,5,
74.1608,6.32324,7.8064,2.746,17.0551,225,5,
74.1608,6.32202,7.80182,2.746,17.0551,225,5,
74.1609,6.32202,7.80487,2.746,17.0551,225,5,
74.1609,6.32202,7.80487,2.746,17.0551,225,5,
74.1609,6.32263,7.8064,2.746,17.0551,225,5,
74.161,6.32202,7.80487,2.746,17.0551,225,5,
74.161,6.32202,7.80487,2.746,17.0551,225,5,
74.161,6.32233,7.80945,2.746,17.0551,225,5,
74.1611,6.32294,7.8064,2.746,17.0551,225,5,
74.1611,6.31836,7.8064,2.746,17.0551,225,5,
74.1611,6.31836,7.8064,2.746,17.0551,225,5,
74.1612,6.31836,7.80335,2.746,17.0551,225,5,
74.1612,6.31714,7.8064,2.746,17.0551,225,5,
74.1612,6.31805,7.80335,2.746,17.0551,225,5,
74.1613,6.31775,7.80487,2.746,17.0551,225,5,
74.1613,6.31775,7.80335,2.746,17.0551,225,5,
74.1613,6.31653,7.80335,2.746,17.0551,225,5,
74.1614,6.31287,7.80487,2.746,17.0551,225,5,
74.1614,6.31256,7.80487,2.746,17.0551,225,5,
74.1614,6.31226,7.80487,2.746,17.0551,225,5,
74.1615,6.31195,7.80487,2.746,17.0551,225,5,
74.1615,6.31195,7.80487,2.746,17.0551,225,5,
74.1615,6.31165,7.80487,2.746,17.0551,225,5,
74.1616,6.31134,7.80487,2.746,17.0551,225,5,
74.1616,6.30707,7.80487,2.746,17.0551,225,5,
74.1616,6.30768,7.8064,2.746,17.0551,225,5,
74.1617,6.30707,7.80182,2.746,17.0551,225,5,
74.1617,6.30768,7.80335,2.746,17.0551,225,5,
74.1617,6.30707,7.80487,2.746,17.0551,225,5,
74.1618,6.30707,7.8064,2.746,17.0551,225,5,
74.1618,6.30219,7.80487,2.746,17.0551,225,5,
74.1618,6.30249,7.80792,2.746,17.0551,225,5,
74.1619,6.30219,7.80792,2.746,17.0551,225,5,
74.1619,6.30219,7.80487,2.746,17.0551,225,5,
74.1619,6.3031,7.80182,2.746,17.0551,225,5,
74.162,6.30219,7.8064,2.746,17.0551,225,5,
74.162,6.29822,7.80182,2.746,17.0551,225,5,
74.162,6.29669,7.8064,2.746,17.0551,225,5,
74.1621,6.297,7.80487,2.746,17.0551,225,5,
74.1621,6.297,7.80335,2.746,17.0551,225,5,
74.1621,6.2973,7.80487,2.746,17.0551,225,5,
74.1622,6.2973,7.80335,2.746,17.0551,225,5,
74.1622,6.29211,7.80487,2.746,17.0551,225,5,
74.1622,6.29242,7.8064,2.746,17.0551,225,5,
74.1623,6.29272,7.8064,2.746,17.0551,225,5,
74.1623,6.29242,7.80487,2.746,17.0551,225,5,
74.1623,6.29242,7.8064,2.746,17.0551,225,5,
74.1624,6.28937,7.8064,2.746,17.0551,225,5,
74.1624,6.28784,7.80792,2.746,17.0551,225,5,
74.1624,6.28784,7.80029,2.746,17.0551,225,5,
74.1625,6.28815,7.80335,2.746,17.0551,225,5,
74.1625,6.28754,7.8064,2.746,17.0551,225,5,
74.1625,6.28784,7.80792,2.746,17.0551,225,5,
74.1626,6.28265,7.80487,2.746,17.0551,225,5,
74.1626,6.28296,7.80335,2.746,17.0551,225,5,
74.1626,6.28326,7.80487,2.746,17.0551,225,5,
74.1627,6.28326,7.80487,2.746,17.0551,225,5,
74.1627,6.28326,7.80792,2.746,17.0551,225,5,
74.1627,6.27808,7.8064,2.746,17.0551,225,5,
74.1628,6.27777,7.80335,2.746,17.0551,225,5,
74.1628,6.27747,7.80487,2.746,17.0551,225,5,
74.1628,6.27808,7.8064,2.746,17.0551,225,5,
74.1629,6.27808,7.80487,2.746,17.0551,225,5,
74.1629,6.2735,7.80335,2.746,17.0551,225,5,
74.1629,6.27289,7.80487,2.746,17.0551,225,5,
74.163,6.2735,7.80487,2.746,17.0551,225,5,
74.163,6.27289,7.80487,2.746,17.0551,225,5,
74.163,6.27289,7.80792,2.746,17.0551,225,5,
74.1631,6.26892,7.80182,2.746,17.0551,225,5,
74.1631,6.2677,7.80487,2.746,17.0551,225,5,
74.1631,6.26862,7.8064,2.746,17.0551,225,5,
74.1632,6.26831,7.8064,2.746,17.0551,225,5,
74.1632,6.26801,7.80335,2.746,17.0551,225,5,
74.1632,6.26373,7.80487,2.746,17.0551,225,5,
74.1633,6.26312,7.80487,2.746,17.0551,225,5,
74.1633,6.26312,7.80487,2.746,17.0551,225,5,
74.1633,6.26312,7.80335,2.746,17.0551,225,5,
74.1634,6.26251,7.80335,2.746,17.0551,225,5,
74.1634,6.25885,7.80487,2.746,17.0551,225,5,
74.1634,6.25854,7.8064,2.746,17.0551,225,5,
74.1635,6.25793,7.8064,2.746,17.0551,225,5,
74.1635,6.25793,7.80182,2.746,17.0551,225,5,
74.1635,6.25793,7.8064,2.746,17.0551,225,5,
74.1636,6.25275,7.8064,2.746,17.0551,225,5,
74.1636,6.25305,7.80792,2.746,17.0551,225,5,
74.1636,6.25366,7.80335,2.746,17.0551,225,5,
74.1637,6.25336,7.8064,2.746,17.0551,225,5,
74.1637,6.25244,7.80945,2.746,17.0551,225,5,
74.1637,6.24847,7.80487,2.746,17.0551,225,5,
74.1638,6.24847,7.80182,2.746,17.0551,225,5,
74.1638,6.24817,7.80335,2.746,17.0551,225,5,
74.1638,6.24878,7.8064,2.746,17.0551,225,5,
74.1639,6.24542,7.8064,2.746,17.0551,225,5,
74.1639,6.24359,7.80792,2.746,17.0551,225,5,
74.1639,6.24512,7.80487,2.746,17.0551,225,5,
74.164,6.24298,7.80487,2.746,17.0551,225,5,
74.164,6.2439,7.80945,2.746,17.0551,225,5,
74.164,6.23901,7.8064,2.746,17.0551,225,5,
74.1641,6.23871,7.80792,2.746,17.0551,225,5,
74.1641,6.23962,7.8064,2.746,17.0551,225,5,
74.1641,6.23932,7.80335,2.746,17.0551,225,5,
74.1642,6.23596,7.8064,2.746,17.0551,225,5,
74.1642,6.23444,7.80029,2.746,17.0551,225,5,
74.1642,6.23413,7.80335,2.746,17.0551,225,5,
74.1643,6.23413,7.80487,2.746,17.0551,225,5,
74.1643,6.23413,7.80335,2.746,17.0551,225,5,
74.1643,6.22955,7.80945,2.746,17.0551,225,5,
74.1644,6.22955,7.80335,2.746,17.0551,225,5,
74.1644,6.22925,7.80487,2.746,17.0551,225,5,
74.1644,6.22955,7.80335,2.746,17.0551,225,5,
74.1645,6.22467,7.80792,2.746,17.0551,225,5,
74.1645,6.22437,7.80335,2.746,17.0551,225,5,
74.1645,6.22406,7.8064,2.746,17.0551,225,5,
74.1646,6.22437,7.8064,2.746,17.0551,225,5,
74.1646,6.22162,7.8064,2.746,17.0551,225,5,
74.1646,6.21979,7.80335,2.746,17.0551,225,5,
74.1647,6.21948,7.80487,2.746,17.0551,225,5,
74.1647,6.22009,7.80335,2.746,17.0551,225,5,
74.1647,6.21857,7.80335,2.746,17.0551,225,5,
74.1648,6.21429,7.80792,2.746,17.0551,225,5,
74.1648,6.2149,7.8064,2.746,17.0551,225,5,
74.1648,6.2146,7.80792,2.746,17.0551,225,5,
74.1649,6.21429,7.80792,2.746,17.0551,225,5,
74.1649,6.20972,7.80335,2.746,17.0551,225,5,
74.1649,6.2088,7.8064,2.746,17.0551,225,5,
74.165,6.20941,7.80335,2.746,17.0551,225,5,
74.165,6.20911,7.8186,2.746,17.0551,225,5,
74.165,6.20453,7.81708,2.746,17.0551,225,5,
74.1651,6.20483,7.81708,2.746,17.0551,225,5,
74.1651,6.20453,7.81555,2.746,17.0551,225,5,
74.1651,6.20514,7.81708,2.746,17.0551,225,5,
74.1652,6.20026,7.81403,2.746,17.0551,225,5,
74.1652,6.20026,7.8186,2.746,17.0551,225,5,
74.1652,6.19965,7.81708,2.746,17.0551,225,5,
74.1653,6.20026,7.81555,2.746,17.0551,225,5,
74.1653,6.19629,7.81403,2.746,17.0551,225,5,
74.1653,6.19507,7.82013,2.746,17.0551,225,5,
74.1654,6.19476,7.81555,2.746,17.0551,225,5,
74.1654,6.19537,7.81708,2.746,17.0551,225,5,
74.1654,6.19141,7.8186,2.746,17.0551,225,5,
74.1655,6.18958,7.8125,2.746,17.0551,225,5,
74.1655,6.18927,7.81555,2.746,17.0551,225,5,
74.1655,6.18988,7.81555,2.746,17.0551,225,5,
74.1656,6.18744,7.81555,2.746,17.0551,225,5,
74.1656,6.18469,7.81555,2.746,17.0551,225,5,
74.1656,6.185,7.82013,2.746,17.0551,225,5,
74.1657,6.18591,7.81403,2.746,17.0551,225,5,
74.1657,6.18134,7.82013,2.746,17.0551,225,5,
74.1657,6.18042,7.81555,2.746,17.0551,225,5,
74.1658,6.18042,7.81708,2.746,17.0551,225,5,
74.1658,6.18011,7.81708,2.746,17.0551,225,5,
74.1658,6.17676,7.81708,2.746,17.0551,225,5,
74.1659,6.17523,7.81403,2.746,17.0551,225,5,
74.1659,6.17462,7.81708,2.746,17.0551,225,5,
74.1659,6.17584,7.81708,2.746,17.0551,225,5,
74.166,6.17188,7.81555,2.746,17.0551,225,5,
74.166,6.17004,7.81555,2.746,17.0551,225,5,
74.166,6.17035,7.81708,2.746,17.0551,225,5,
74.1661,6.17065,7.81708,2.746,17.0551,225,5,
74.1661,6.1676,7.81555,2.746,17.0551,225,5,
74.1661,6.16516,7.81555,2.746,17.0551,225,5,
74.1662,6.16516,7.81708,2.746,17.0551,225,5,
74.1662,6.16547,7.81403,2.746,17.0551,225,5,
74.1662,6.16241,7.81403,2.746,17.0551,225,5,
74.1663,6.16028,7.81708,2.746,17.0551,225,5,
74.1663,6.15997,7.81555,2.746,17.0551,225,5,
74.1663,6.15967,7.81708,2.746,17.0551,225,5,
74.1664,6.15723,7.81708,2.746,17.0551,225,5,
74.1664,6.1554,7.81555,2.746,17.0551,225,5,
74.1664,6.1557,7.81555,2.746,17.0551,225,5,
74.1665,6.15509,7.8186,2.746,17.0551,225,5,
74.1665,6.15051,7.8186,2.746,17.0551,225,5,
74.1665,6.15082,7.81403,2.746,17.0551,225,5,
74.1666,6.15021,7.8186,2.746,17.0551,225,5,
74.1666,6.15021,7.81708,2.746,17.0551,225,5,
74.1666,6.14624,7.81555,2.746,17.0551,225,5,
74.1667,6.14563,7.81708,2.746,17.0551,225,5,
74.1667,6.14563,7.8186,2.746,17.0551,225,5,
74.1667,6.14685,7.8186,2.746,17.0551,225,5,
74.1668,6.14075,7.81708,2.746,17.0551,225,5,
74.1668,6.14075,7.81708,2.746,17.0551,225,5,
74.1668,6.14075,7.81708,2.746,17.0551,225,5,
74.1669,6.14075,7.8186,2.746,17.0551,225,5,
74.1669,6.13586,7.81708,2.746,17.0551,225,5,
74.1669,6.13617,7.81555,2.746,17.0551,225,5,
74.167,6.13556,7.81555,2.746,17.0551,225,5,
74.167,6.13556,7.81708,2.746,17.0551,225,5,
74.167,6.13129,7.81708,2.746,17.0551,225,5,
74.1671,6.13037,7.82013,2.746,17.0551,225,5,
74.1671,6.13129,7.81708,2.746,17.0551,225,5,
74.1671,6.12976,7.81555,2.746,17.0551,225,5,
74.1672,6.1261,7.81708,2.746,17.0551,225,5,
74.1672,6.1261,7.81708,2.746,17.0551,225,5,
74.1672,6.12671,7.81555,2.746,17.0551,225,5,
74.1673,6.12305,7.81708,2.746,17.0551,225,5,
74.1673,6.12091,7.81708,2.746,17.0551,225,5,
74.1673,6.12152,7.81555,2.746,17.0551,225,5,
74.1674,6.12152,7.82013,2.746,17.0551,225,5,
74.1674,6.11908,7.81555,2.746,17.0551,225,5,
74.1674,6.11603,7.81708,2.746,17.0551,225,5,
74.1675,6.11603,7.81555,2.746,17.0551,225,5,
74.1675,6.11603,7.81708,2.746,17.0551,225,5,
74.1675,6.11176,7.81403,2.746,17.0551,225,5,
74.1676,6.11084,7.81555,2.746,17.0551,225,5,
74.1676,6.11145,7.81555,2.746,17.0551,225,5,
74.1676,6.11115,7.81708,2.746,17.0551,225,5,
74.1677,6.10687,7.81403,2.746,17.0551,225,5,
74.1677,6.10657,7.81555,2.746,17.0551,225,5,
74.1677,6.10657,7.81555,2.746,17.0551,225,5,
74.1678,6.10626,7.81555,2.746,17.0551,225,5,
74.1678,6.10199,7.81555,2.746,17.0551,225,5,
74.1678,6.10138,7.81708,2.746,17.0551,225,5,
74.1679,6.10168,7.81708,2.746,17.0551,225,5,
74.1679,6.10138,7.82013,2.746,17.0551,225,5,
74.1679,6.09711,7.8186,2.746,17.0551,225,5,
74.168,6.09619,7.81403,2.746,17.0551,225,5,
74.168,6.0965,7.81708,2.746,17.0551,225,5,
74.168,6.0965,7.82013,2.746,17.0551,225,5,
74.1681,6.09253,7.82013,2.746,17.0551,225,5,
74.1681,6.09131,7.81708,2.746,17.0551,225,5,
74.1681,6.09192,7.82013,2.746,17.0551,225,5,
74.1682,6.09161,7.81403,2.746,17.0551,225,5,
74.1682,6.08734,7.81555,2.746,17.0551,225,5,
74.1682,6.08704,7.81403,2.746,17.0551,225,5,
74.1683,6.08643,7.81555,2.746,17.0551,225,5,
74.1683,6.08673,7.8186,2.746,17.0551,225,5,
74.1683,6.08368,7.81708,2.746,17.0551,225,5,
74.1684,6.08185,7.81708,2.746,17.0551,225,5,
74.1684,6.08246,7.81708,2.746,17.0551,225,5,
74.1684,6.08154,7.82013,2.746,17.0551,225,5,
74.1685,6.08154,7.81708,2.746,17.0551,225,5,
74.1685,6.07666,7.8186,2.746,17.0551,225,5,
74.1685,6.07727,7.81555,2.746,17.0551,225,5,
74.1686,6.07727,7.8186,2.746,17.0551,225,5,
74.1686,6.07727,7.81708,2.746,17.0551,225,5,
74.1686,6.07269,7.81708,2.746,17.0551,225,5,
74.1687,6.07269,7.82013,2.746,17.0551,225,5,
74.1687,6.07239,7.81403,2.746,17.0551,225,5,
74.1687,6.073,7.81708,2.746,17.0551,225,5,
74.1688,6.0675,7.81708,2.746,17.0551,225,5,
74.1688,6.06781,7.82013,2.746,17.0551,225,5,
74.1688,6.06659,7.8186,2.746,17.0551,225,5,
74.1689,6.06781,7.81708,2.746,17.0551,225,5,
74.1689,6.06323,7.8186,2.746,17.0551,225,5,
74.1689,6.06262,7.8186,2.746,17.0551,225,5,
74.169,6.06262,7.81708,2.746,17.0551,225,5,
74.169,6.06262,7.8186,2.746,17.0551,225,5,
74.169,6.0614,7.8186,2.746,17.0551,225,5,
74.1691,6.05743,7.81708,2.746,17.0551,225,5,
74.1691,6.05774,7.81555,2.746,17.0551,225,5,
74.1691,6.05774,7.82013,2.746,17.0551,225,5,
74.1692,6.05743,7.8186,2.746,17.0551,225,5,
74.1692,6.05286,7.8186,2.746,17.0551,225,5,
74.1692,6.05316,7.8186,2.746,17.0551,225,5,
74.1693,6.05225,7.81555,2.746,17.0551,225,5,
74.1693,6.05255,7.81708,2.746,17.0551,225,5,
74.1693,6.0498,7.81555,2.746,17.0551,225,5,
74.1694,6.04736,7.81708,2.746,17.0551,225,5,
74.1694,6.04767,7.81555,2.746,17.0551,225,5,
74.1694,6.04797,7.81708,2.746,17.0551,225,5,
74.1695,6.04767,7.8186,2.746,17.0551,225,5,
74.1695,6.04309,7.81708,2.746,17.0551,225,5,
74.1695,6.04248,7.8186,2.746,17.0551,225,5,
74.1696,6.04309,7.81555,2.746,17.0551,225,5,
74.1696,6.04309,7.81708,2.746,17.0551,225,5,
74.1696,6.04309,7.81555,2.746,17.0551,225,5,
74.1697,6.0379,7.81708,2.746,17.0551,225,5,
74.1697,6.0379,7.8186,2.746,17.0551,225,5,
74.1697,6.03851,7.81555,2.746,17.0551,225,5,
74.1698,6.03851,7.81708,2.746,17.0551,225,5,
74.1698,6.03729,7.81555,2.746,17.0551,225,5,
74.1698,6.03333,7.81708,2.746,17.0551,225,5,
74.1699,6.03271,7.81098,2.746,17.0551,225,5,
74.1699,6.03333,7.81708,2.746,17.0551,225,5,
74.1699,6.03302,7.8125,2.746,17.0551,225,5,
74.17,6.02966,7.81708,2.746,17.0551,225,5,
74.17,6.02844,7.81403,2.746,17.0551,225,5,
74.17,6.02875,7.81708,2.746,17.0551,225,5,
74.1701,6.02844,7.81708,2.746,17.0551,225,5,
74.1701,6.02844,7.81555,2.746,17.0551,225,5,
74.1701,6.02448,7.8186,2.746,17.0551,225,5,
74.1702,6.02264,7.81708,2.746,17.0551,225,5,
74.1702,6.02356,7.81708,2.746,17.0551,225,5,
74.1702,6.02295,7.81708,2.746,17.0551,225,5,
74.1703,6.02356,7.8186,2.746,17.0551,225,5,
74.1703,6.0202,7.81708,2.746,17.0551,225,5,
74.1703,6.01837,7.8186,2.746,17.0551,225,5,
74.1704,6.01807,7.81708,2.746,17.0551,225,5,
74.1704,6.01898,7.81708,2.746,17.0551,225,5,
74.1704,6.01868,7.81403,2.746,17.0551,225,5,
74.1705,6.01471,7.81708,2.746,17.0551,225,5,
74.1705,6.01318,7.81403,2.746,17.0551,225,5,
74.1705,6.01379,7.81555,2.746,17.0551,225,5,
74.1706,6.01349,7.81708,2.746,17.0551,225,5,
74.1706,6.01379,7.81708,2.746,17.0551,225,5,
74.1706,6.01013,7.82013,2.746,17.0551,225,5,
74.1707,6.0083,7.81555,2.746,17.0551,225,5,
74.1707,6.00922,7.81555,2.746,17.0551,225,5,
74.1707,6.00861,7.81708,2.746,17.0551,225,5,
74.1708,6.00891,7.81555,2.746,17.0551,225,5,
74.1708,6.00494,7.81555,2.746,17.0551,225,5,
74.1708,6.00403,7.81403,2.746,17.0551,225,5,
74.1709,6.00311,7.81555,2.746,17.0551,225,5,
74.1709,6.00403,7.81708,2.746,17.0551,225,5,
74.1709,6.00342,7.81708,2.746,17.0551,225,5,
74.171,6.00067,7.8186,2.746,17.0551,225,5,
74.171,5.99823,7.8186,2.746,17.0551,225,5,
74.171,5.99854,7.81708,2.746,17.0551,225,5,
74.1711,5.99915,7.81403,2.746,17.0551,225,5,
74.1711,5.99884,7.8186,2.746,17.0551,225,5,
74.1711,5.99548,7.81555,2.746,17.0551,225,5,
74.1712,5.99426,7.81555,2.746,17.0551,225,5,
74.1712,5.99335,7.81555,2.746,17.0551,225,5,
74.1712,5.99304,7.81708,2.746,17.0551,225,5,
74.1713,5.99365,7.81708,2.746,17.0551,225,5,
74.1713,5.9903,7.81708,2.746,17.0551,225,5,
74.1713,5.98877,7.81403,2.746,17.0551,225,5,
74.1714,5.98907,7.81555,2.746,17.0551,225,5,
74.1714,5.98877,7.81555,2.746,17.0551,225,5,
74.1714,5.98907,7.81708,2.746,17.0551,225,5,
74.1715,5.98572,7.81555,2.746,17.0551,225,5,
74.1715,5.98419,7.8186,2.746,17.0551,225,5,
74.1715,5.9845,7.81555,2.746,17.0551,225,5,
74.1716,5.98419,7.81708,2.746,17.0551,225,5,
74.1716,5.98419,7.81708,2.746,17.0551,225,5,
74.1716,5.98419,7.81555,2.746,17.0551,225,5,
74.1717,5.979,7.81403,2.746,17.0551,225,5,
74.1717,5.97931,7.81708,2.746,17.0551,225,5,
74.1717,5.979,7.81708,0,17.0551,225,5,
74.1718,5.979,7.81708,0,17.0551,225,5,
74.1718,5.97931,7.8186,0,17.0551,225,5,
74.1718,5.97412,7.8186,0,17.0551,225,5,
74.1719,5.97412,7.81708,0,17.0551,225,5,
74.1719,5.97382,7.81403,0,17.0551,225,5,
74.1719,5.97443,7.81555,0,17.0551,225,5,
74.172,5.97412,7.82013,0,17.0551,225,5,
74.172,5.96924,7.81708,0,17.0551,225,5,
74.172,5.96985,7.81708,0,17.0551,225,5,
74.1721,5.96893,7.81708,0,17.0551,225,5,
74.1721,5.96954,7.81708,0,17.0551,225,5,
74.1721,5.96954,7.8186,0,17.0551,225,5,
74.1722,5.96558,7.8186,0,17.0551,225,5,
74.1722,5.96375,7.81555,0,17.0551,225,5,
74.1722,5.96436,7.81555,0,17.0551,225,5,
74.1723,5.96436,7.81708,0,17.0551,225,5,
74.1723,5.96466,7.81708,0,17.0551,225,5,
74.1723,5.96405,7.81555,0,17.0551,225,5,
74.1724,5.95947,7.81708,0,17.0551,225,5,
74.1724,5.96008,7.8186,0,17.0551,225,5,
74.1724,5.95978,7.82929,0,17.0551,225,5,
74.1725,5.96008,7.83081,0,17.0551,225,5,
74.1725,5.95917,7.82776,0,17.0551,225,5,
74.1725,5.95947,7.82929,0,17.0551,225,5,
74.1726,5.9552,7.83081,0,17.0551,225,5,
74.1726,5.95551,7.83234,0,17.0551,225,5,
74.1726,5.95581,7.83234,0,17.0551,225,5,
74.1727,5.9549,7.83081,0,17.0551,225,5,
74.1727,5.9552,7.83234,0,17.0551,225,5,
74.1727,5.95551,7.83234,0,17.0551,225,5,
74.1728,5.95032,7.83081,0,17.0551,225,5,
74.1728,5.95032,7.82776,0,17.0551,225,5,
74.1728,5.95032,7.82929,0,17.0551,225,5,
74.1729,5.95001,7.83081,0,17.0551,225,5,
74.1729,5.95062,7.82929,0,17.0551,225,5,
74.1729,5.95032,7.82929,0,17.0551,225,5,
74.173,5.9491,7.83081,0,17.0551,225,5,
74.173,5.94482,7.83234,0,17.0551,225,5,
74.173,5.94482,7.82929,0,17.0551,225,5,
74.1731,5.94482,7.82929,0,17.0551,225,5,
74.1731,5.94391,7.83081,0,17.0551,225,5,
74.1731,5.94482,7.82929,0,17.0551,225,5,
74.1732,5.94513,7.83081,0,17.0551,225,5,
74.1732,5.9436,7.82929,0,17.0551,225,5,
74.1732,5.93903,7.83081,0,17.0551,225,5,
74.1733,5.94055,7.82929,0,17.0551,225,5,
74.1733,5.94025,7.83081,0,17.0551,225,5,
74.1733,5.94055,7.83234,0,17.0551,225,5,
74.1734,5.94025,7.83081,0,17.0551,225,5,
74.1734,5.94025,7.83081,0,17.0551,225,5,
74.1734,5.93994,7.82776,0,17.0551,225,5,
74.1735,5.93567,7.83234,0,17.0551,225,5,
74.1735,5.93506,7.83081,0,17.0551,225,5,
74.1735,5.93506,7.83234,0,17.0551,225,5,
74.1736,5.93506,7.83081,0,17.0551,225,5,
74.1736,5.93506,7.82929,0,17.0551,225,5,
74.1736,5.93536,7.83081,0,17.0551,225,5,
74.1737,5.93475,7.82929,0,17.0551,225,5,
74.1737,5.93475,7.83081,0,17.0551,225,5,
74.1737,5.93384,7.82776,0,17.0551,225,5,
74.1738,5.93018,7.82776,0,17.0551,225,5,
74.1738,5.93018,7.83081,0,17.0551,225,5,
74.1738,5.92987,7.82776,0,17.0551,225,5,
74.1739,5.93018,7.82929,0,17.0551,225,5,
74.1739,5.93018,7.82929,0,17.0551,225,5,
74.1739,5.93048,7.82929,0,17.0551,225,5,
74.174,5.93018,7.83234,0,17.0551,225,5,
74.174,5.92957,7.82929,0,17.0551,225,5,
74.174,5.92987,7.82929,0,17.0551,225,5,
74.1741,5.9256,7.83234,0,17.0551,225,5,
74.1741,5.9256,7.82776,0,17.0551,225,5,
74.1741,5.92499,7.83081,0,17.0551,225,5,
74.1742,5.9259,7.83081,0,17.0551,225,5,
74.1742,5.92529,7.83081,0,17.0551,225,5,
74.1742,5.92529,7.83081,0,17.0551,225,5,
74.1743,5.9256,7.83081,0,17.0551,225,5,
74.1743,5.92499,7.83234,0,17.0551,225,5,
74.1743,5.92499,7.82929,0,17.0551,225,5,
74.1744,5.92499,7.82929,0,17.0551,225,5,
74.1744,5.92529,7.82776,0,17.0551,225,5,
74.1744,5.92529,7.83081,0,17.0551,225,5,
74.1745,5.92529,7.83081,0,17.0551,225,5,
74.1745,5.9201,7.83234,0,17.0551,225,5,
74.1745,5.92041,7.82929,0,17.0551,225,5,
74.1746,5.92041,7.82929,0,17.0551,225,5,
74.1746,5.9201,7.82929,0,17.0551,225,5,
74.1746,5.92041,7.83081,0,17.0551,225,5,
74.1747,5.9201,7.83081,0,17.0551,225,5,
74.1747,5.9201,7.82929,0,17.0551,225,5,
74.1747,5.9201,7.83081,0,17.0551,225,5,
74.1748,5.92041,7.83234,0,17.0551,225,5,
74.1748,5.92041,7.82929,0,17.0551,225,5,
74.1748,5.92102,7.82776,0,17.0551,225,5,
74.1749,5.92072,7.82929,0,17.0551,225,5,
74.1749,5.92102,7.83081,0,17.0551,225,5,
74.1749,5.92072,7.82929,2.44,17.0551,225,5,
74.175,5.92072,7.83234,2.44,17.0551,225,5,
74.175,5.92072,7.82776,2.44,17.0551,225,5,
74.175,5.9201,7.83234,2.44,17.0551,225,5,
74.1751,5.92102,7.82929,2.44,17.0551,225,5,
74.1751,5.92072,7.83081,2.44,17.0551,225,5,
74.1751,5.92041,7.83081,2.44,17.0551,225,5,
74.1752,5.9201,7.82929,2.44,17.0551,225,5,
74.1752,5.92072,7.83234,2.44,17.0551,225,5,
74.1752,5.92133,7.82776,2.44,17.0551,225,5,
74.1753,5.92102,7.83081,2.44,17.0551,225,5,
74.1753,5.92102,7.83081,2.44,17.0551,225,5,
74.1753,5.9201,7.83234,2.44,17.0551,225,5,
74.1754,5.9198,7.82929,2.44,17.0551,225,5,
74.1754,5.92041,7.82929,2.44,17.0551,225,5,
74.1754,5.92072,7.83081,2.44,17.0551,225,5,
74.1755,5.92072,7.83081,2.44,17.0551,225,5,
74.1755,5.9201,7.82929,2.44,17.0551,225,5,
74.1755,5.92102,7.82776,2.44,17.0551,225,5,
74.1756,5.9201,7.82929,2.44,17.0551,225,5,
74.1756,5.92072,7.82929,2.44,17.0551,225,5,
74.1756,5.92041,7.82929,2.44,17.0551,225,5,
74.1757,5.92072,7.82929,2.44,17.0551,225,5,
74.1757,5.92529,7.82776,2.44,17.0551,225,5,
74.1757,5.9259,7.82929,2.44,17.0551,225,5,
74.1758,5.9256,7.82929,2.44,17.0551,225,5,
74.1758,5.9256,7.82929,2.44,17.0551,225,5,
74.1758,5.9256,7.82929,2.44,17.0551,225,5,
74.1759,5.92499,7.83386,2.44,17.0551,225,5,
74.1759,5.92651,7.82776,2.44,17.0551,225,5,
74.1759,5.9256,7.83081,2.44,17.0551,225,5,
74.176,5.9259,7.82929,2.44,17.0551,225,5,
74.176,5.9256,7.83081,2.44,17.0551,225,5,
74.176,5.92529,7.82776,2.44,17.0551,225,5,
74.1761,5.9256,7.82776,2.44,17.0551,225,5,
74.1761,5.93048,7.82929,2.44,17.0551,225,5,
74.1761,5.93048,7.82929,2.44,17.0551,225,5,
74.1762,5.93048,7.82929,2.44,17.0551,225,5,
74.1762,5.93048,7.82776,2.44,17.0551,225,5,
74.1762,5.93079,7.83234,2.44,17.0551,225,5,
74.1763,5.93079,7.82776,2.44,17.0551,225,5,
74.1763,5.93018,7.83081,2.44,17.0551,225,5,
74.1763,5.93109,7.82776,2.44,17.0551,225,5,
74.1764,5.92957,7.82929,2.44,17.0551,225,5,
74.1764,5.93536,7.82776,2.44,17.0551,225,5,
74.1764,5.93506,7.82929,2.44,17.0551,225,5,
74.1765,5.93597,7.82776,2.44,17.0551,225,5,
74.1765,5.93536,7.82929,2.44,17.0551,225,5,
74.1765,5.93506,7.83081,2.44,17.0551,225,5,
74.1766,5.93506,7.83234,2.44,17.0551,225,5,
74.1766,5.93475,7.82929,2.44,17.0551,225,5,
74.1766,5.93964,7.83081,2.44,17.0551,225,5,
74.1767,5.94025,7.82929,2.44,17.0551,225,5,
74.1767,5.93994,7.83386,2.44,17.0551,225,5,
74.1767,5.93994,7.82929,2.44,17.0551,225,5,
74.1768,5.94025,7.83081,2.44,17.0551,225,5,
74.1768,5.93994,7.82929,2.44,17.0551,225,5,
74.1768,5.94391,7.82929,2.44,17.0551,225,5,
74.1769,5.94421,7.82776,2.44,17.0551,225,5,
74.1769,5.94543,7.83081,2.44,17.0551,225,5,
74.1769,5.94482,7.82929,2.44,17.0551,225,5,
74.177,5.94482,7.82776,2.44,17.0551,225,5,
74.177,5.94452,7.83081,2.44,17.0551,225,5,
74.177,5.9491,7.82929,2.44,17.0551,225,5,
74.1771,5.95001,7.82929,2.44,17.0551,225,5,
74.1771,5.95001,7.83234,2.44,17.0551,225,5,
74.1771,5.94971,7.82776,2.44,17.0551,225,5,
74.1772,5.95062,7.82776,2.44,17.0551,225,5,
74.1772,5.95276,7.82623,2.44,17.0551,225,5,
74.1772,5.9549,7.82776,2.44,17.0551,225,5,
74.1773,5.9549,7.83081,2.44,17.0551,225,5,
74.1773,5.95428,7.83386,2.44,17.0551,225,5,
74.1773,5.9552,7.82776,2.44,17.0551,225,5,
74.1774,5.95734,7.82623,2.44,17.0551,225,5,
74.1774,5.95947,7.82623,2.44,17.0551,225,5,
74.1774,5.95917,7.82929,2.44,17.0551,225,5,
74.1775,5.95917,7.82929,2.44,17.0551,225,5,
74.1775,5.95947,7.82929,2.44,17.0551,225,5,
74.1775,5.96436,7.82929,2.44,17.0551,225,5,
74.1776,5.96436,7.83081,2.44,17.0551,225,5,
74.1776,5.96375,7.83081,2.44,17.0551,225,5,
74.1776,5.96466,7.83081,2.44,17.0551,225,5,
74.1777,5.96802,7.82929,2.44,17.0551,225,5,
74.1777,5.96893,7.82929,2.44,17.0551,225,5,
74.1777,5.96924,7.82623,2.44,17.0551,225,5,
74.1778,5.96954,7.82929,2.44,17.0551,225,5,
74.1778,5.97015,7.83081,2.44,17.0551,225,5,
74.1778,5.97412,7.83081,2.44,17.0551,225,5,
74.1779,5.97473,7.83081,2.44,17.0551,225,5,
74.1779,5.97504,7.82471,2.44,17.0551,225,5,
74.1779,5.97412,7.82929,2.44,17.0551,225,5,
74.178,5.9787,7.83234,2.44,17.0551,225,5,
74.178,5.979,7.82929,2.44,17.0551,225,5,
74.178,5.979,7.82929,2.44,17.0551,225,5,
74.1781,5.97931,7.82929,2.44,17.0551,225,5,
74.1781,5.98389,7.82929,2.44,17.0551,225,5,
74.1781,5.98419,7.82929,2.44,17.0551,225,5,
74.1782,5.98419,7.83081,2.44,17.0551,225,5,
74.1782,5.98511,7.83081,2.44,17.0551,225,5,
74.1782,5.98907,7.83081,2.44,17.0551,225,5,
74.1783,5.98877,7.82623,2.44,17.0551,225,5,
74.1783,5.98907,7.83234,2.44,17.0551,225,5,
74.1783,5.98907,7.83081,2.44,17.0551,225,5,
74.1784,5.99335,7.83081,2.44,17.0551,225,5,
74.1784,5.99335,7.83234,2.44,17.0551,225,5,
74.1784,5.99426,7.83234,2.44,17.0551,225,5,
74.1785,5.99854,7.83081,2.44,17.0551,225,5,
74.1785,5.99884,7.82929,2.44,17.0551,225,5,
74.1785,5.99884,7.83081,2.44,17.0551,225,5,
74.1786,5.99854,7.82929,2.44,17.0551,225,5,
74.1786,6.00372,7.83081,2.44,17.0551,225,5,
74.1786,6.00403,7.82929,2.44,17.0551,225,5,
74.1787,6.00372,7.83081,2.44,17.0551,225,5,
74.1787,6.00739,7.82776,2.44,17.0551,225,5,
74.1787,6.0083,7.82776,2.44,17.0551,225,5,
74.1788,6.00891,7.82776,2.44,17.0551,225,5,
74.1788,6.00952,7.83081,2.44,17.0551,225,5,
74.1788,6.01379,7.82776,2.44,17.0551,225,5,
74.1789,6.01349,7.82623,2.44,17.0551,225,5,
74.1789,6.0141,7.82929,2.44,17.0551,225,5,
74.1789,6.01715,7.82776,2.44,17.0551,225,5,
74.179,6.01837,7.82929,2.44,17.0551,225,5,
74.179,6.01807,7.82929,2.44,17.0551,225,5,
74.179,6.01807,7.82929,2.44,17.0551,225,5,
74.1791,6.02325,7.83081,2.44,17.0551,225,5,
74.1791,6.02325,7.83234,2.44,17.0551,225,5,
74.1791,6.02295,7.83081,2.44,17.0551,225,5,
74.1792,6.02844,7.82929,2.44,17.0551,225,5,
74.1792,6.02844,7.83081,2.44,17.0551,225,5,
74.1792,6.02783,7.83081,2.44,17.0551,225,5,
74.1793,6.02905,7.82929,2.44,17.0551,225,5,
74.1793,6.03363,7.83081,2.44,17.0551,225,5,
74.1793,6.03302,7.82929,2.44,17.0551,225,5,
74.1794,6.03271,7.83081,2.44,17.0551,225,5,
74.1794,6.03729,7.83081,2.44,17.0551,225,5,
74.1794,6.03851,7.83081,2.44,17.0551,225,5,
74.1795,6.0379,7.82929,2.44,17.0551,225,5,
74.1795,6.04309,7.83081,2.44,17.0551,225,5,
74.1795,6.04248,7.82929,2.44,17.0551,225,5,
74.1796,6.04279,7.83386,2.44,17.0551,225,5,
74.1796,6.04614,7.82623,2.44,17.0551,225,5,
74.1796,6.04828,7.83234,2.44,17.0551,225,5,
74.1797,6.04767,7.82929,2.44,17.0551,225,5,
74.1797,6.04858,7.82929,2.44,17.0551,225,5,
74.1797,6.05286,7.83081,2.44,17.0551,225,5,
74.1798,6.05316,7.82929,2.44,17.0551,225,5,
74.1798,6.05347,7.82929,2.44,17.0551,225,5,
74.1798,6.05743,7.83081,2.44,17.0551,225,5,
74.1799,6.05713,7.83081,2.44,17.0551,225,5,
74.1799,6.05774,7.83081,2.44,17.0551,225,5,
74.1799,6.06293,7.82776,2.44,17.0551,225,5,
74.18,6.06262,7.82929,2.44,17.0551,225,5,
74.18,6.06232,7.83234,2.44,17.0551,225,5,
74.18,6.0675,7.82929,2.44,17.0551,225,5,
74.1801,6.0672,7.83081,2.44,17.0551,225,5,
74.1801,6.0672,7.83386,2.44,17.0551,225,5,
74.1801,6.07208,7.83081,2.44,17.0551,225,5,
74.1802,6.07269,7.83081,2.44,17.0551,225,5,
74.1802,6.07208,7.82929,2.44,17.0551,225,5,
74.1802,6.07819,7.82929,2.44,17.0551,225,5,
74.1803,6.07727,7.83234,2.44,17.0551,225,5,
74.1803,6.07666,7.82929,2.44,17.0551,225,5,
74.1803,6.08185,7.83081,2.44,17.0551,225,5,
74.1804,6.08215,7.83234,2.44,17.0551,225,5,
74.1804,6.08276,7.83081,2.44,17.0551,225,5,
74.1804,6.08704,7.82471,2.44,17.0551,225,5,
74.1805,6.08734,7.82929,2.44,17.0551,225,5,
74.1805,6.08765,7.82623,2.44,17.0551,225,5,
74.1805,6.09222,7.82929,2.44,17.0551,225,5,
74.1806,6.09161,7.82776,2.44,17.0551,225,5,
74.1806,6.09436,7.82776,2.44,17.0551,225,5,
74.1806,6.0965,7.82623,2.44,17.0551,225,5,
74.1807,6.0965,7.82623,2.44,17.0551,225,5,
74.1807,6.10168,7.82929,2.44,17.0551,225,5,
74.1807,6.10107,7.83234,2.44,17.0551,225,5,
74.1808,6.10077,7.83234,2.44,17.0551,225,5,
74.1808,6.10626,7.83081,2.44,17.0551,225,5,
74.1808,6.10657,7.83386,2.44,17.0551,225,5,
74.1809,6.10779,7.82929,2.44,17.0551,225,5,
74.1809,6.11053,7.82776,2.44,17.0551,225,5,
74.1809,6.11115,7.82776,2.44,17.0551,225,5,
74.181,6.11481,7.82929,2.44,17.0551,225,5,
74.181,6.11664,7.82776,2.44,17.0551,225,5,
74.181,6.11664,7.83081,2.44,17.0551,225,5,
74.1811,6.12091,7.82929,2.44,17.0551,225,5,
74.1811,6.12091,7.82929,2.44,17.0551,225,5,
74.1811,6.12183,7.82776,2.44,17.0551,225,5,
74.1812,6.1264,7.83081,2.44,17.0551,225,5,
74.1812,6.12579,7.82623,2.44,17.0551,225,5,
74.1812,6.12946,7.82776,2.44,17.0551,225,5,
74.1813,6.13037,7.82929,2.44,17.0551,225,5,
74.1813,6.13098,7.83081,2.44,17.0551,225,5,
74.1813,6.13495,7.82623,2.44,17.0551,225,5,
74.1814,6.13556,7.82929,2.44,17.0551,225,5,
74.1814,6.13647,7.82929,2.44,17.0551,225,5,
74.1814,6.14075,7.83234,2.44,17.0551,225,5,
74.1815,6.14136,7.82623,2.44,17.0551,225,5,
74.1815,6.14594,7.83386,2.44,17.0551,225,5,
74.1815,6.14594,7.83234,2.44,17.0551,225,5,
74.1816,6.14624,7.82776,2.44,17.0551,225,5,
74.1816,6.15082,7.82929,2.44,17.0551,225,5,
74.1816,6.15082,7.83081,2.44,17.0551,225,5,
74.1817,6.15387,7.83081,2.44,17.0551,225,5,
74.1817,6.1554,7.82929,2.44,17.0551,225,5,
74.1817,6.1557,7.83539,2.44,17.0551,225,5,
74.1818,6.16089,7.83081,2.44,17.0551,225,5,
74.1818,6.16058,7.83234,2.44,17.0551,225,5,
74.1818,6.1618,7.82929,2.44,17.0551,225,5,
74.1819,6.16486,7.83081,2.44,17.0551,225,5,
74.1819,6.16608,7.83081,2.44,17.0551,225,5,
74.1819,6.16974,7.82776,2.44,17.0551,225,5,
74.182,6.17004,7.82776,2.44,17.0551,225,5,
74.182,6.17126,7.83081,2.44,17.0551,225,5,
74.182,6.17523,7.83234,2.44,17.0551,225,5,
74.1821,6.17493,7.83081,2.44,17.0551,225,5,
74.1821,6.18011,7.82929,2.44,17.0551,225,5,
74.1821,6.17981,7.82623,2.44,17.0551,225,5,
74.1822,6.18042,7.83081,2.44,17.0551,225,5,
74.1822,6.1853,7.82776,2.44,17.0551,225,5,
74.1822,6.18469,7.83234,2.44,17.0551,225,5,
74.1823,6.18866,7.82623,2.44,17.0551,225,5,
74.1823,6.18958,7.82929,2.44,17.0551,225,5,
74.1823,6.18988,7.82929,2.44,17.0551,225,5,
74.1824,6.19476,7.82929,2.44,17.0551,225,5,
74.1824,6.19507,7.82776,2.44,17.0551,225,5,
74.1824,6.19904,7.82776,2.44,17.0551,225,5,
74.1825,6.20026,7.82776,2.44,17.0551,225,5,
74.1825,6.19995,7.82929,2.44,17.0551,225,5,
74.1825,6.20361,7.83081,2.44,17.0551,225,5,
74.1826,6.20422,7.82623,2.44,17.0551,225,5,
74.1826,6.20514,7.82776,2.44,17.0551,225,5,
74.1826,6.20972,7.82623,2.44,17.0551,225,5,
74.1827,6.20972,7.82776,2.44,17.0551,225,5,
74.1827,6.21429,7.83081,2.44,17.0551,225,5,
74.1827,6.21399,7.82929,2.44,17.0551,225,5,
74.1828,6.2146,7.82929,2.44,17.0551,225,5,
74.1828,6.21918,7.82776,2.44,17.0551,225,5,
74.1828,6.21948,7.83081,2.44,17.0551,225,5,
74.1829,6.21979,7.82623,2.44,17.0551,225,5,
74.1829,6.22375,7.82929,2.44,17.0551,225,5,
74.1829,6.22375,7.82929,2.44,17.0551,225,5,
74.183,6.22925,7.82929,2.44,17.0551,225,5,
74.183,6.22894,7.82929,2.44,17.0551,225,5,
74.183,6.22925,7.82776,2.44,17.0551,225,5,
74.1831,6.23383,7.82929,2.44,17.0551,225,5,
74.1831,6.23444,7.82776,2.44,17.0551,225,5,
74.1831,6.23413,7.83081,2.44,17.0551,225,5,
74.1832,6.23901,7.82776,2.44,17.0551,225,5,
74.1832,6.23871,7.82929,2.44,17.0551,225,5,
74.1832,6.24298,7.83234,2.44,17.0551,225,5,
74.1833,6.24329,7.83081,2.44,17.0551,225,5,
74.1833,6.2439,7.83081,2.44,17.0551,225,5,
74.1833,6.24878,7.82929,2.44,17.0551,225,5,
74.1834,6.24878,7.82929,2.44,17.0551,225,5,
74.1834,6.24878,7.83234,2.44,17.0551,225,5,
74.1834,6.25336,7.82929,2.44,17.0551,225,5,
74.1835,6.25397,7.83081,2.44,17.0551,225,5,
74.1835,6.25702,7.82623,2.44,17.0551,225,5,
74.1835,6.25885,7.82776,2.44,17.0551,225,5,
74.1836,6.25824,7.83081,2.44,17.0551,225,5,
74.1836,6.26099,7.82623,2.44,17.0551,225,5,
74.1836,6.26343,7.83081,2.44,17.0551,225,5,
74.1837,6.26343,7.82776,2.44,17.0551,225,5,
74.1837,6.26831,7.82929,2.44,17.0551,225,5,
74.1837,6.26862,7.83234,2.44,17.0551,225,5,
74.1838,6.2677,7.82623,2.44,17.0551,225,5,
74.1838,6.27289,7.83081,2.44,17.0551,225,5,
74.1838,6.27258,7.82929,2.44,17.0551,225,5,
74.1839,6.2735,7.83234,2.44,17.0551,225,5,
74.1839,6.27808,7.82623,2.44,17.0551,225,5,
74.1839,6.27716,7.83081,2.44,17.0551,225,5,
74.184,6.2793,7.83386,2.44,17.0551,225,5,
74.184,6.28387,7.82623,2.44,17.0551,225,5,
74.184,6.28265,7.82929,2.44,17.0551,225,5,
74.1841,6.28357,7.82776,2.44,17.0551,225,5,
74.1841,6.28784,7.82929,2.44,17.0551,225,5,
74.1841,6.28815,7.82623,2.44,17.0551,225,5,
74.1842,6.29242,7.82929,2.44,17.0551,225,5,
74.1842,6.29333,7.83081,2.44,17.0551,225,5,
74.1842,6.29303,7.82776,2.44,17.0551,225,5,
74.1843,6.29608,7.83081,2.44,17.0551,225,5,
74.1843,6.29761,7.82623,2.44,17.0551,225,5,
74.1843,6.29822,7.83234,2.44,17.0551,225,5,
74.1844,6.30096,7.82623,2.44,17.0551,225,5,
74.1844,6.3031,7.82929,2.44,17.0551,225,5,
74.1844,6.3031,7.83081,2.44,17.0551,225,5,
74.1845,6.30554,7.82929,2.44,17.0551,225,5,
74.1845,6.30737,7.82929,2.44,17.0551,225,5,
74.1845,6.30707,7.82776,2.44,17.0551,225,5,
74.1846,6.31073,7.82776,2.44,17.0551,225,5,
74.1846,6.31226,7.83234,2.44,17.0551,225,5,
74.1846,6.31195,7.83081,2.44,17.0551,225,5,
74.1847,6.31592,7.83081,2.44,17.0551,225,5,
74.1847,6.31653,7.82929,2.44,17.0551,225,5,
74.1847,6.31744,7.83234,2.44,17.0551,225,5,
74.1848,6.31775,7.83234,2.44,17.0551,225,5,
74.1848,6.32141,7.82776,2.44,17.0551,225,5,
74.1848,6.32233,7.82623,2.44,17.0551,225,5,
74.1849,6.32233,7.82929,2.44,17.0551,225,5,
74.1849,6.3266,7.82929,2.44,17.0551,225,5,
74.1849,6.3269,7.83081,2.44,17.0551,225,5,
74.185,6.3266,7.82929,2.44,17.0551,225,5,
74.185,6.33209,7.83234,2.44,17.0551,225,5,
74.185,6.33209,7.83081,2.44,17.0551,225,5,
74.1851,6.33179,7.82929,2.44,17.0551,225,5,
74.1851,6.33606,7.83539,2.44,17.0551,225,5,
74.1851,6.33636,7.82929,2.44,17.0551,225,5,
74.1852,6.33667,7.82929,2.44,17.0551,225,5,
74.1852,6.34003,7.82776,2.44,17.0551,225,5,
74.1852,6.34155,7.83081,2.44,17.0551,225,5,
74.1853,6.34125,7.82929,2.44,17.0551,225,5,
74.1853,6.34155,7.82929,2.44,17.0551,225,5,
74.1853,6.34644,7.83081,2.44,17.0551,225,5,
74.1854,6.34674,7.83081,2.44,17.0551,225,5,
74.1854,6.34705,7.83234,2.44,17.0551,225,5,
74.1854,6.35101,7.82929,2.44,17.0551,225,5,
74.1855,6.35162,7.83081,2.44,17.0551,225,5,
74.1855,6.35162,7.83234,2.44,17.0551,225,5,
74.1855,6.35529,7.82929,2.44,17.0551,225,5,
74.1856,6.3562,7.82929,2.44,17.0551,225,5,
74.1856,6.35681,7.83234,2.44,17.0551,225,5,
74.1856,6.3562,7.83081,2.44,17.0551,225,5,
74.1857,6.36078,7.82929,2.44,17.0551,225,5,
74.1857,6.36169,7.83081,2.44,17.0551,225,5,
74.1857,6.36108,7.83081,2.44,17.0551,225,5,
74.1858,6.36505,7.82929,2.44,17.0551,225,5,
74.1858,6.36597,7.83081,2.44,17.0551,225,5,
74.1858,6.36597,7.82623,2.44,17.0551,225,5,
74.1859,6.36597,7.82929,2.44,17.0551,225,5,
74.1859,6.37085,7.82776,2.44,17.0551,225,5,
74.1859,6.37207,7.82776,2.44,17.0551,225,5,
74.186,6.37115,7.82776,2.44,17.0551,225,5,
74.186,6.37177,7.83081,2.44,17.0551,225,5,
74.186,6.37604,7.82929,2.44,17.0551,225,5,
74.1861,6.37543,7.82776,2.44,17.0551,225,5,
74.1861,6.37604,7.83234,2.44,17.0551,225,5,
74.1861,6.37604,7.82623,2.44,17.0551,225,5,
74.1862,6.38031,7.82776,2.44,17.0551,225,5,
74.1862,6.38092,7.82776,2.44,17.0551,225,5,
74.1862,6.38123,7.83081,2.44,17.0551,225,5,
74.1863,6.38428,7.82929,2.44,17.0551,225,5,
74.1863,6.38641,7.82929,2.44,17.0551,225,5,
74.1863,6.3858,7.83234,2.44,17.0551,225,5,
74.1864,6.38611,7.83081,2.44,17.0551,225,5,
74.1864,6.38885,7.83081,2.44,17.0551,225,5,
74.1864,6.39099,7.82929,2.44,17.0551,225,5,
74.1865,6.39069,7.82776,2.44,17.0551,225,5,
74.1865,6.39099,7.82929,2.44,17.0551,225,5,
74.1865,6.39191,7.83081,2.44,17.0551,225,5,
74.1866,6.39557,7.82929,2.44,17.0551,225,5,
74.1866,6.39587,7.83386,2.44,17.0551,226,5,
74.1866,6.39557,7.82623,2.44,17.0551,226,5,
74.1867,6.39587,7.82776,2.44,17.0551,226,5,
74.1867,6.40045,7.82776,2.44,17.0551,226,5,
74.1867,6.39984,7.82929,2.44,17.0551,226,5,
74.1868,6.40076,7.83081,2.44,17.0551,226,5,
74.1868,6.40106,7.83081,2.44,17.0551,226,5,
74.1868,6.40411,7.82776,2.44,17.0551,226,5,
74.1869,6.40625,7.83081,2.44,17.0551,226,5,
74.1869,6.40594,7.83081,2.44,17.0551,226,5,
74.1869,6.40533,7.82623,2.44,17.0551,226,5,
74.187,6.40533,7.82623,2.44,17.0551,226,5,
74.187,6.41022,7.83081,2.44,17.0551,226,5,
74.187,6.41022,7.82471,2.44,17.0551,226,5,
74.1871,6.41052,7.82929,2.44,17.0551,226,5,
74.1871,6.40991,7.82929,2.44,17.0551,226,5,
74.1871,6.40991,7.83081,2.44,17.0551,226,5,
74.1872,6.4151,7.82929,2.44,17.0551,226,5,
74.1872,6.41479,7.82929,2.44,17.0551,226,5,
74.1872,6.4151,7.83234,2.44,17.0551,226,5,
74.1873,6.41479,7.83081,2.44,17.0551,226,5,
74.1873,6.41571,7.82929,2.44,17.0551,226,5,
74.1873,6.41998,7.82929,2.44,17.0551,226,5,
74.1874,6.41968,7.83081,2.44,17.0551,226,5,
74.1874,6.4209,7.82623,2.44,17.0551,226,5,
74.1874,6.41998,7.82929,2.44,17.0551,226,5,
74.1875,6.41968,7.82929,2.44,17.0551,226,5,
74.1875,6.42334,7.83234,2.44,17.0551,226,5,
74.1875,6.42426,7.83234,2.44,17.0551,226,5,
74.1876,6.42517,7.82776,2.44,17.0551,226,5,
74.1876,6.42517,7.82776,2.44,17.0551,226,5,
74.1876,6.42487,7.83234,2.44,17.0551,226,5,
74.1877,6.42487,7.83234,2.44,17.0551,226,5,
74.1877,6.42944,7.82929,2.44,17.0551,226,5,
74.1877,6.42944,7.82623,2.44,17.0551,226,5,
74.1878,6.42944,7.82929,2.44,17.0551,226,5,
74.1878,6.43005,7.83234,2.44,17.0551,226,5,
74.1878,6.42975,7.83081,2.44,17.0551,226,5,
74.1879,6.43005,7.82929,2.44,17.0551,226,5,
74.1879,6.43372,7.82929,2.44,17.0551,226,5,
74.1879,6.43555,7.83081,2.44,17.0551,226,5,
74.188,6.43463,7.82929,2.44,17.0551,226,5,
74.188,6.43494,7.82929,2.44,17.0551,226,5,
74.188,6.43433,7.83234,2.44,17.0551,226,5,
74.1881,6.43463,7.83234,2.44,17.0551,226,5,
74.1881,6.43555,7.83081,2.44,17.0551,226,5,
74.1881,6.43829,7.82623,2.44,17.0551,226,5,
74.1882,6.43951,7.83081,2.44,17.0551,226,5,
74.1882,6.43982,7.83081,2.44,17.0551,226,5,
74.1882,6.43951,7.82623,2.44,17.0551,226,5,
74.1883,6.44043,7.83386,2.44,17.0551,226,5,
74.1883,6.43951,7.82929,2.44,17.0551,226,5,
74.1883,6.44043,7.83081,2.44,17.0551,226,5,
74.1884,6.43951,7.82929,2.44,17.0551,226,5,
74.1884,6.44287,7.82623,2.44,17.0551,226,5,
74.1884,6.4444,7.82776,2.44,17.0551,226,5,
74.1885,6.44409,7.82929,2.44,17.0551,226,5,
74.1885,6.44409,7.82776,2.44,17.0551,226,5,
74.1885,6.44409,7.83081,2.44,17.0551,226,5,
74.1886,6.4444,7.82776,2.44,17.0551,226,5,
74.1886,6.4444,7.83234,2.44,17.0551,226,5,
74.1886,6.44379,7.83081,2.44,17.0551,226,5,
74.1887,6.4444,7.82776,2.44,17.0551,226,5,
74.1887,6.44409,7.83081,2.44,17.0551,226,5,
74.1887,6.44745,7.82929,2.44,17.0551,226,5,
74.1888,6.44928,7.82929,2.44,17.0551,226,5,
74.1888,6.44928,7.83081,2.44,17.0551,226,5,
74.1888,6.44897,7.82929,2.44,17.0551,226,5,
74.1889,6.44897,7.82776,2.44,17.0551,226,5,
74.1889,6.44958,7.82929,2.44,17.0551,226,5,
74.1889,6.44897,7.82929,2.44,17.0551,226,5,
74.189,6.44958,7.82471,2.44,17.0551,226,5,
74.189,6.44867,7.83081,2.44,17.0551,226,5,
74.189,6.44897,7.82471,2.44,17.0551,226,5,
74.1891,6.44928,7.82623,2.44,17.0551,226,5,
74.1891,6.44989,7.82929,2.44,17.0551,226,5,
74.1891,6.44867,7.83234,2.44,16.9109,226,5,
74.1892,6.44836,7.83081,2.44,16.9109,226,5,
74.1892,6.44958,7.82929,2.44,16.9109,226,5,
74.1892,6.44928,7.83234,2.44,16.9109,226,5,
74.1893,6.45355,7.82929,2.44,16.9109,226,5,
74.1893,6.45355,7.83234,2.44,16.9109,226,5,
74.1893,6.45477,7.82929,2.44,16.9109,226,5,
74.1894,6.45416,7.82929,2.44,16.9109,226,5,
74.1894,6.45386,7.83386,2.44,16.9109,226,5,
74.1894,6.45416,7.83081,2.44,16.9109,226,5,
74.1895,6.45477,7.82929,2.44,16.9109,226,5,
74.1895,6.45355,7.82929,2.44,16.9109,226,5,
74.1895,6.45416,7.82929,2.44,16.9109,226,5,
74.1896,6.45447,7.83386,2.44,16.9109,226,5,
74.1896,6.45447,7.82929,2.44,16.9109,226,5,
74.1896,6.45386,7.82929,2.44,16.9109,226,5,
74.1897,6.45416,7.83081,2.44,16.9109,226,5,
74.1897,6.45386,7.83386,2.44,16.9109,226,5,
74.1897,6.45477,7.83386,2.44,16.9109,226,5,
74.1898,6.45508,7.82929,2.44,16.9109,226,5,
74.1898,6.45508,7.82776,2.44,16.9109,226,5,
74.1898,6.45447,7.82929,2.44,16.9109,226,5,
74.1899,6.45386,7.83081,2.44,16.9109,226,5,
74.1899,6.45386,7.83234,2.44,16.9109,226,5,
74.1899,6.45386,7.82776,2.44,16.9109,226,5,
74.19,6.45447,7.83081,2.44,16.9109,226,5,
74.19,6.45447,7.83386,2.44,16.9109,226,5,
74.19,6.45386,7.83081,2.44,16.9109,226,5,
74.1901,6.45447,7.82929,2.44,16.9109,226,5,
74.1901,6.45416,7.82776,2.44,16.9109,226,5,
74.1901,6.44989,7.82776,0.376,16.9109,226,5,
74.1902,6.44867,7.83234,0.376,16.9109,226,5,
74.1902,6.44989,7.82929,0.376,16.9109,226,5,
74.1902,6.44958,7.83386,0.376,16.9109,226,5,
74.1903,6.44958,7.82623,0.376,16.9109,226,5,
74.1903,6.44897,7.83081,0.376,16.9109,226,5,
74.1903,6.44897,7.83081,0.376,16.9109,226,5,
74.1904,6.44928,7.82623,0.376,16.9109,226,5,
74.1904,6.4502,7.82929,0.376,16.9109,226,5,
74.1904,6.44989,7.83081,0.376,16.9109,226,5,
74.1905,6.44867,7.82929,0.376,16.9109,226,5,
74.1905,6.44958,7.82929,0.376,16.9109,226,5,
74.1905,6.44989,7.82929,0.376,16.9109,226,5,
74.1906,6.44928,7.83234,0.376,16.9109,226,5,
74.1906,6.44928,7.83081,0.376,16.9109,226,5,
74.1906,6.44379,7.82623,0.376,16.9109,226,5,
74.1907,6.44409,7.82929,0.376,16.9109,226,5,
74.1907,6.44348,7.83234,0.376,16.9109,226,5,
74.1907,6.4444,7.83081,0.376,16.9109,226,5,
74.1908,6.4444,7.83234,0.376,16.9109,226,5,
74.1908,6.44379,7.82623,0.376,16.9109,226,5,
74.1908,6.4444,7.82776,0.376,16.9109,226,5,
74.1909,6.4447,7.83081,0.376,16.9109,226,5,
74.1909,6.44409,7.82929,0.376,16.9109,226,5,
74.1909,6.44012,7.82929,0.376,16.9109,226,5,
74.191,6.44043,7.83081,0.376,16.9109,226,5,
74.191,6.43951,7.82776,0.376,16.9109,226,5,
74.191,6.43951,7.82929,0.376,16.9109,226,5,
74.1911,6.43951,7.82929,0.376,16.9109,226,5,
74.1911,6.43982,7.82929,0.376,16.9109,226,5,
74.1911,6.43982,7.83234,0.376,16.9109,226,5,
74.1912,6.43555,7.83081,0.376,16.9109,226,5,
74.1912,6.43402,7.82929,0.376,16.9109,226,5,
74.1912,6.43402,7.82776,0.376,16.9109,226,5,
74.1913,6.43463,7.83081,0.376,16.9109,226,5,
74.1913,6.43402,7.83234,0.376,16.9109,226,5,
74.1913,6.43494,7.81403,0.376,16.9109,226,5,
74.1914,6.43372,7.8186,0.376,16.9109,226,5,
74.1914,6.43005,7.81708,0.376,16.9109,226,5,
74.1914,6.42944,7.8125,0.376,16.9109,226,5,
74.1915,6.43036,7.82013,0.376,16.9109,226,5,
74.1915,6.43005,7.82013,0.376,16.9109,226,5,
74.1915,6.42975,7.81555,0.376,16.9109,226,5,
74.1916,6.42517,7.81708,0.376,16.9109,226,5,
74.1916,6.42548,7.82013,0.376,16.9109,226,5,
74.1916,6.42487,7.81555,0.376,16.9109,226,5,
74.1917,6.42487,7.81555,0.376,16.9109,226,5,
74.1917,6.42517,7.82013,0.376,16.9109,226,5,
74.1917,6.4212,7.81555,0.376,16.9109,226,5,
74.1918,6.42059,7.81708,0.376,16.9109,226,5,
74.1918,6.42059,7.81708,0.376,16.9109,226,5,
74.1918,6.41968,7.81708,0.376,16.9109,226,5,
74.1919,6.42029,7.81708,0.376,16.9109,226,5,
74.1919,6.41479,7.82013,0.376,16.9109,226,5,
74.1919,6.41602,7.81555,0.376,16.9109,226,5,
74.192,6.41479,7.81708,0.376,16.9109,226,5,
74.192,6.41479,7.81555,0.376,16.9109,226,5,
74.192,6.41479,7.81555,0.376,16.9109,226,5,
74.1921,6.41022,7.81555,0.376,16.9109,226,5,
74.1921,6.41052,7.82013,0.376,16.9109,226,5,
74.1921,6.41052,7.82166,0.376,16.9109,226,5,
74.1922,6.4093,7.8186,0.376,16.9109,226,5,
74.1922,6.40686,7.8186,0.376,16.9109,226,5,
74.1922,6.40564,7.81555,0.376,16.9109,226,5,
74.1923,6.40594,7.8186,0.376,16.9109,226,5,
74.1923,6.40594,7.81708,0.376,16.9109,226,5,
74.1923,6.40472,7.8186,0.376,16.9109,226,5,
74.1924,6.39984,7.8186,0.376,16.9109,226,5,
74.1924,6.40045,7.8186,0.376,16.9109,226,5,
74.1924,6.40015,7.81555,0.376,16.9109,226,5,
74.1925,6.39923,7.81555,0.376,16.9109,226,5,
74.1925,6.39587,7.81555,0.376,16.9109,226,5,
74.1925,6.39526,7.81403,0.376,16.9109,226,5,
74.1926,6.39557,7.81403,0.376,16.9109,226,5,
74.1926,6.39557,7.82013,0.376,16.9109,226,5,
74.1926,6.39099,7.81555,0.376,16.9109,226,5,
74.1927,6.39038,7.81708,0.376,16.9109,226,5,
74.1927,6.3913,7.82166,0.376,16.9109,226,5,
74.1927,6.38977,7.82013,0.376,16.9109,226,5,
74.1928,6.3855,7.81555,0.376,16.9109,226,5,
74.1928,6.38519,7.81708,0.376,16.9109,226,5,
74.1928,6.3855,7.81403,0.376,16.9109,226,5,
74.1929,6.3855,7.8186,0.376,16.9109,226,5,
74.1929,6.38092,7.82013,0.376,16.9109,226,5,
74.1929,6.38062,7.81555,0.376,16.9109,226,5,
74.193,6.38214,7.81708,0.376,16.9109,226,5,
74.193,6.37787,7.81708,0.376,16.9109,226,5,
74.193,6.37634,7.81555,0.376,16.9109,226,5,
74.1931,6.37604,7.8186,0.376,16.9109,226,5,
74.1931,6.37573,7.81403,0.376,16.9109,226,5,
74.1931,6.37268,7.81708,0.376,16.9109,226,5,
74.1932,6.37054,7.8186,0.376,16.9109,226,5,
74.1932,6.37115,7.8186,0.376,16.9109,226,5,
74.1932,6.37146,7.8186,0.376,16.9109,226,5,
74.1933,6.36627,7.81708,0.376,16.9109,226,5,
74.1933,6.36658,7.8186,0.376,16.9109,226,5,
74.1933,6.36597,7.81708,0.376,16.9109,226,5,
74.1934,6.36658,7.81555,0.376,16.9109,226,5,
74.1934,6.36108,7.81555,0.376,16.9109,226,5,
74.1934,6.36108,7.81708,0.376,16.9109,226,5,
74.1935,6.36139,7.81708,0.376,16.9109,226,5,
74.1935,6.35773,7.81555,0.376,16.9109,226,5,
74.1935,6.3562,7.81555,0.376,16.9109,226,5,
74.1936,6.35651,7.81708,0.376,16.9109,226,5,
74.1936,6.3562,7.81555,0.376,16.9109,226,5,
74.1936,6.35193,7.8186,0.376,16.9109,226,5,
74.1937,6.35132,7.8125,0.376,16.9109,226,5,
74.1937,6.35101,7.81555,0.376,16.9109,226,5,
74.1937,6.35254,7.81555,0.376,16.9109,226,5,
74.1938,6.34674,7.81708,0.376,16.9109,226,5,
74.1938,6.34644,7.81708,0.376,16.9109,226,5,
74.1938,6.34766,7.81098,0.376,16.9109,226,5,
74.1939,6.34583,7.80029,0.376,16.9109,226,5,
74.1939,6.34125,7.80792,0.376,16.9109,226,5,
74.1939,6.34216,7.80792,0.376,16.9109,226,5,
74.194,6.34186,7.80792,0.376,16.9109,226,5,
74.194,6.33789,7.8064,0.376,16.9109,226,5,
74.194,6.33698,7.80487,0.376,16.9109,226,5,
74.1941,6.33728,7.80792,0.376,16.9109,226,5,
74.1941,6.33728,7.80487,0.376,16.9109,226,5,
74.1941,6.33148,7.8064,0.376,16.9109,226,5,
74.1942,6.33209,7.80487,0.376,16.9109,226,5,
74.1942,6.33209,7.80487,0.376,16.9109,226,5,
74.1942,6.33118,7.80792,0.376,16.9109,226,5,
74.1943,6.32751,7.80487,0.376,16.9109,226,5,
74.1943,6.3269,7.80487,0.376,16.9109,226,5,
74.1943,6.3269,7.8064,0.376,16.9109,226,5,
74.1944,6.32263,7.80487,0.376,16.9109,226,5,
74.1944,6.32172,7.80335,0.376,16.9109,226,5,
74.1944,6.32263,7.80335,0.376,16.9109,226,5,
74.1945,6.32172,7.80487,0.376,16.9109,226,5,
74.1945,6.31744,7.80335,0.376,16.9109,226,5,
74.1945,6.31683,7.80335,0.376,16.9109,226,5,
74.1946,6.31714,7.80487,0.376,16.9109,226,5,
74.1946,6.31622,7.80487,0.376,16.9109,226,5,
74.1946,6.31165,7.80487,0.376,16.9109,226,5,
74.1947,6.31195,7.80487,0.376,16.9109,226,5,
74.1947,6.31256,7.80487,0.376,16.9109,226,5,
74.1947,6.3092,7.8064,0.376,16.9109,226,5,
74.1948,6.30646,7.80487,0.376,16.9109,226,5,
74.1948,6.30676,7.80487,0.376,16.9109,226,5,
74.1948,6.30737,7.80335,0.376,16.9109,226,5,
74.1949,6.3028,7.8064,0.376,16.9109,226,5,
74.1949,6.30249,7.80945,0.376,16.9109,226,5,
74.1949,6.30219,7.80487,0.376,16.9109,226,5,
74.195,6.30249,7.80335,0.376,16.9109,226,5,
74.195,6.2973,7.8064,0.376,16.9109,226,5,
74.195,6.297,7.8064,0.376,16.9109,226,5,
74.1951,6.29761,7.80487,0.376,16.9109,226,5,
74.1951,6.29791,7.80487,0.376,16.9109,226,5,
74.1951,6.29272,7.80487,0.376,16.9109,226,5,
74.1952,6.29303,7.80335,0.376,16.9109,226,5,
74.1952,6.29272,7.80487,0.376,16.9109,226,5,
74.1952,6.29272,7.80792,0.376,16.9109,226,5,
74.1953,6.28845,7.80182,0.376,16.9109,226,5,
74.1953,6.28754,7.80945,0.376,16.9109,226,5,
74.1953,6.28723,7.80182,0.376,16.9109,226,5,
74.1954,6.28815,7.80487,0.376,16.9109,226,5,
74.1954,6.28326,7.8064,0.376,16.9109,226,5,
74.1954,6.28326,7.80487,0.376,16.9109,226,5,
74.1955,6.28265,7.8064,0.376,16.9109,226,5,
74.1955,6.28357,7.8064,0.376,16.9109,226,5,
74.1955,6.27869,7.80182,0.376,16.9109,226,5,
74.1956,6.27869,7.80487,0.376,16.9109,226,5,
74.1956,6.27838,7.80335,0.376,16.9109,226,5,
74.1956,6.2793,7.8064,0.376,16.9109,226,5,
74.1957,6.27808,7.80487,0.376,16.9109,226,5,
74.1957,6.27411,7.80487,0.376,16.9109,226,5,
74.1957,6.2735,7.80182,0.376,16.9109,226,5,
74.1958,6.2735,7.80792,0.376,16.9109,226,5,
74.1958,6.2735,7.80487,0.376,16.9109,226,5,
74.1958,6.26862,7.80335,0.376,16.9109,226,5,
74.1959,6.26862,7.80335,0.376,16.9109,226,5,
74.1959,6.26953,7.8064,0.376,16.9109,226,5,
74.1959,6.26801,7.80792,0.376,16.9109,226,5,
74.196,6.26465,7.8064,0.376,16.9109,226,5,
74.196,6.26343,7.8064,0.376,16.9109,226,5,
74.196,6.26343,7.80487,0.376,16.9109,226,5,
74.1961,6.26282,7.80487,0.376,16.9109,226,5,
74.1961,6.26282,7.8064,0.376,16.9109,226,5,
74.1961,6.25885,7.8064,0.376,16.9109,226,5,
74.1962,6.25824,7.8064,0.376,16.9109,226,5,
74.1962,6.25763,7.80182,0.376,16.9109,226,5,
74.1962,6.25885,7.80335,0.376,16.9109,226,5,
74.1963,6.25824,7.8064,0.376,16.9109,226,5,
74.1963,6.25336,7.80335,0.376,16.9109,226,5,
74.1963,6.25305,7.80792,0.376,16.9109,226,5,
74.1964,6.25336,7.80487,0.376,16.9109,226,5,
74.1964,6.25366,7.80335,0.376,16.9109,226,5,
74.1964,6.25214,7.8064,0.376,16.9109,226,5,
74.1965,6.24847,7.80487,0.376,16.9109,226,5,
74.1965,6.24847,7.8064,0.376,16.9109,226,5,
74.1965,6.24847,7.80487,0.376,16.9109,226,5,
74.1966,6.24908,7.80335,0.376,16.9109,226,5,
74.1966,6.24786,7.80182,0.376,16.9109,226,5,
74.1966,6.2439,7.80792,0.376,16.9109,226,5,
74.1967,6.24329,7.80335,0.376,16.9109,226,5,
74.1967,6.24329,7.80335,0.376,16.9109,226,5,
74.1967,6.2442,7.8064,0.376,16.9109,226,5,
74.1968,6.24298,7.80792,0.376,16.9109,226,5,
74.1968,6.23871,7.8064,0.376,16.9109,226,5,
74.1968,6.2384,7.8064,0.376,16.9109,226,5,
74.1969,6.2384,7.80335,0.376,16.9109,226,5,
74.1969,6.2384,7.80487,0.376,16.9109,226,5,
74.1969,6.23871,7.8064,0.376,16.9109,226,5,
74.197,6.23352,7.8064,0.376,16.9109,226,5,
74.197,6.23383,7.8064,0.376,16.9109,226,5,
74.197,6.23322,7.80945,0.376,16.9109,226,5,
74.1971,6.23413,7.8064,0.376,16.9109,226,5,
74.1971,6.23383,7.80792,0.376,16.9109,226,5,
74.1971,6.22925,7.80335,0.376,16.9109,226,5,
74.1972,6.22925,7.8064,0.376,16.9109,226,5,
74.1972,6.22955,7.79266,0.376,16.9109,226,5,
74.1972,6.22864,7.79266,0.376,16.9109,226,5,
74.1973,6.22894,7.79266,0.376,16.9109,226,5,
74.1973,6.22437,7.79266,0.376,16.9109,226,5,
74.1973,6.22437,7.79572,0.376,16.9109,226,5,
74.1974,6.22375,7.79419,0.376,16.9109,226,5,
74.1974,6.22375,7.79266,0.376,16.9109,226,5,
74.1974,6.22437,7.79266,0.376,16.9109,226,5,
74.1975,6.21979,7.78961,0.376,16.9109,226,5,
74.1975,6.21948,7.79266,0.376,16.9109,226,5,
74.1975,6.21857,7.79419,0.376,16.9109,226,5,
74.1976,6.21918,7.79266,0.376,16.9109,226,5,
74.1976,6.21979,7.79266,0.376,16.9109,226,5,
74.1976,6.21552,7.79419,0.376,16.9109,226,5,
74.1977,6.21399,7.78809,0.376,16.9109,226,5,
74.1977,6.2146,7.79266,0.376,16.9109,226,5,
74.1977,6.21429,7.78961,0.376,16.9109,226,5,
74.1978,6.21429,7.79114,0.376,16.9109,226,5,
74.1978,6.2146,7.79572,0.376,16.9109,226,5,
74.1978,6.20941,7.79419,0.376,16.9109,226,5,
74.1979,6.20972,7.79572,0.376,16.9109,226,5,
74.1979,6.20972,7.79266,0.376,16.9109,226,5,
74.1979,6.20911,7.78809,0.376,16.9109,226,5,
74.198,6.20972,7.79724,0.376,16.9109,226,5,
74.198,6.20636,7.79419,0.376,16.9109,226,5,
74.198,6.20453,7.79266,0.376,16.9109,226,5,
74.1981,6.20483,7.79114,0.376,16.9109,226,5,
74.1981,6.20483,7.79419,0.376,16.9109,226,5,
74.1981,6.20483,7.79114,0.376,16.9109,226,5,
74.1982,6.20453,7.79266,0.376,16.9109,226,5,
74.1982,6.19934,7.79266,0.376,16.9109,226,5,
74.1982,6.20026,7.78809,0.376,16.9109,226,5,
74.1983,6.19965,7.79572,0.376,16.9109,226,5,
74.1983,6.19995,7.79419,0.376,16.9109,226,5,
74.1983,6.19934,7.79419,0.376,16.9109,226,5,
74.1984,6.19934,7.79266,0.376,16.9109,226,5,
74.1984,6.19446,7.78961,0.376,16.9109,226,5,
74.1984,6.19537,7.79114,0.376,16.9109,226,5,
74.1985,6.19446,7.79266,0.376,16.9109,226,5,
74.1985,6.19507,7.79266,0.376,16.9109,226,5,
74.1985,6.19476,7.79266,0.376,16.9109,226,5,
74.1986,6.19171,7.78961,0.376,16.9109,226,5,
74.1986,6.18988,7.79114,0.376,16.9109,226,5,
74.1986,6.18988,7.79266,0.376,16.9109,226,5,
74.1987,6.1908,7.79419,0.376,16.9109,226,5,
74.1987,6.18958,7.79114,0.376,16.9109,226,5,
74.1987,6.19019,7.79114,0.376,16.9109,226,5,
74.1988,6.18622,7.78961,0.376,16.9109,226,5,
74.1988,6.185,7.79419,0.376,16.9109,226,5,
74.1988,6.1853,7.79419,0.376,16.9109,226,5,
74.1989,6.1853,7.79266,0.376,16.9109,226,5,
74.1989,6.18561,7.78961,0.376,16.9109,226,5,
74.1989,6.1853,7.79266,0.376,16.9109,226,5,
74.199,6.18195,7.79266,0.376,16.9109,226,5,
74.199,6.18011,7.79114,0.376,16.9109,226,5,
74.199,6.18011,7.79419,0.376,16.9109,226,5,
74.1991,6.18042,7.79572,0.376,16.9109,226,5,
74.1991,6.18042,7.79419,0.376,16.9109,226,5,
74.1991,6.18042,7.79266,0.376,16.9109,226,5,
74.1992,6.18042,7.79419,0.376,16.9109,226,5,
74.1992,6.17554,7.79266,0.376,16.9109,226,5,
74.1992,6.17493,7.79114,0.376,16.9109,226,5,
74.1993,6.17554,7.79114,0.376,16.9109,226,5,
74.1993,6.17615,7.79266,0.376,16.9109,226,5,
74.1993,6.17523,7.79114,0.376,16.9109,226,5,
74.1994,6.17493,7.79419,0.376,16.9109,226,5,
74.1994,6.17218,7.79114,0.376,16.9109,226,5,
74.1994,6.17035,7.79266,0.376,16.9109,226,5,
74.1995,6.16974,7.78961,0.376,16.9109,226,5,
74.1995,6.17096,7.78961,0.376,16.9109,226,5,
74.1995,6.17065,7.79114,0.376,16.9109,226,5,
74.1996,6.17004,7.79572,0.376,16.9109,226,5,
74.1996,6.17004,7.79419,0.376,16.9109,226,5,
74.1996,6.16577,7.79724,0.376,16.9109,226,5,
74.1997,6.16486,7.79114,0.376,16.9109,226,5,
74.1997,6.16547,7.79572,0.376,16.9109,226,5,
74.1997,6.16608,7.79266,0.376,16.9109,226,5,
74.1998,6.16486,7.79266,0.376,16.9109,226,5,
74.1998,6.16608,7.79266,0.376,16.9109,226,5,
74.1998,6.16608,7.79419,0.376,16.9109,226,5,
74.1999,6.16058,7.79266,0.376,16.9109,226,5,
74.1999,6.16058,7.79114,0.376,16.9109,226,5,
74.1999,6.16058,7.79572,0.376,16.9109,226,5,
74.2,6.16058,7.79266,0.376,16.9109,226,5,
74.2,6.16119,7.79266,0.376,16.9109,226,5,
74.2,6.15967,7.79266,0.376,16.9109,226,5,
74.2001,6.16089,7.79419,0.376,16.9109,226,5,
74.2001,6.15601,7.79419,0.376,16.9109,226,5,
74.2001,6.15479,7.79419,0.376,16.9109,226,5,
74.2002,6.15601,7.79114,0.376,16.9109,226,5,
74.2002,6.15509,7.79266,0.376,16.9109,226,5,
74.2002,6.1557,7.79114,0.376,16.9109,226,5,
74.2003,6.1557,7.78961,0.376,16.9109,226,5,
74.2003,6.15601,7.79114,0.376,16.9109,226,5,
74.2003,6.15051,7.79266,0.376,16.9109,226,5,
74.2004,6.15112,7.78961,0.376,16.9109,226,5,
74.2004,6.15082,7.79572,0.376,16.9109,226,5,
74.2004,6.15051,7.79114,0.376,16.9109,226,5,
74.2005,6.15112,7.79572,0.376,16.9109,226,5,
74.2005,6.15051,7.79114,0.376,16.9109,226,5,
74.2005,6.15051,7.79572,0.376,16.9109,226,5,
74.2006,6.1499,7.79266,0.376,16.9109,226,5,
74.2006,6.14594,7.79419,0.376,16.9109,226,5,
74.2006,6.14594,7.79266,0.376,16.9109,226,5,
74.2007,6.14594,7.79266,0.376,16.9109,226,5,
74.2007,6.14563,7.79572,0.376,16.9109,226,5,
74.2007,6.14624,7.79419,0.376,16.9109,226,5,
74.2008,6.14563,7.79114,0.376,16.9109,226,5,
74.2008,6.14563,7.79419,0.376,16.9109,226,5,
74.2008,6.14075,7.79419,0.376,16.9109,226,5,
74.2009,6.14105,7.79572,0.376,16.9109,226,5,
74.2009,6.14136,7.79419,0.376,16.9109,226,5,
74.2009,6.14136,7.79114,0.376,16.9109,226,5,
74.201,6.14075,7.78961,0.376,16.9109,226,5,
74.201,6.14166,7.79114,0.376,16.9109,226,5,
74.201,6.14044,7.79419,0.376,16.9109,226,5,
74.2011,6.13708,7.79572,0.376,16.9109,226,5,
74.2011,6.13556,7.79266,0.376,16.9109,226,5,
74.2011,6.13525,7.79877,0.376,16.9109,226,5,
74.2012,6.13647,7.78198,0.376,16.9109,226,5,
74.2012,6.13464,7.78046,0.376,16.9109,226,5,
74.2012,6.13647,7.77741,0.376,16.9109,226,5,
74.2013,6.13647,7.77893,0.376,16.9109,226,5,
74.2013,6.13556,7.78351,0.376,16.9109,226,5,
74.2013,6.13037,7.78046,0.376,16.9109,226,5,
74.2014,6.13068,7.78046,0.376,16.9109,226,5,
74.2014,6.13098,7.78504,0.376,16.9109,226,5,
74.2014,6.13098,7.78046,0.376,16.9109,226,5,
74.2015,6.13068,7.78046,0.376,16.9109,226,5,
74.2015,6.13129,7.78046,0.376,16.9109,226,5,
74.2015,6.13129,7.77893,0.376,16.9109,226,5,
74.2016,6.13098,7.78046,0.376,16.9109,226,5,
74.2016,6.1261,7.78046,0.376,16.9109,226,5,
74.2016,6.12579,7.78198,0.376,16.9109,226,5,
74.2017,6.12579,7.77893,0.376,16.9109,226,5,
74.2017,6.12579,7.78351,0.376,16.9109,226,5,
74.2017,6.12549,7.78046,0.376,16.9109,226,5,
74.2018,6.12579,7.78046,0.376,16.9109,226,5,
74.2018,6.12671,7.77893,0.376,16.9109,226,5,
74.2018,6.12366,7.77893,0.376,16.9109,226,5,
74.2019,6.12061,7.78046,0.376,16.9109,226,5,
74.2019,6.12091,7.78504,0.376,16.9109,226,5,
74.2019,6.12152,7.78198,0.376,16.9109,226,5,
74.202,6.1203,7.78198,0.376,16.9109,226,5,
74.202,6.12122,7.77893,0.376,16.9109,226,5,
74.202,6.12091,7.78198,0.376,16.9109,226,5,
74.2021,6.12122,7.78198,0.376,16.9109,226,5,
74.2021,6.11755,7.78046,0.376,16.9109,226,5,
74.2021,6.11633,7.77893,0.376,16.9109,226,5,
74.2022,6.11603,7.78198,0.376,16.9109,226,5,
74.2022,6.11664,7.78046,0.376,16.9109,226,5,
74.2022,6.11694,7.78046,0.376,16.9109,226,5,
74.2023,6.11603,7.78046,0.376,16.9109,226,5,
74.2023,6.11664,7.78198,0.376,16.9109,226,5,
74.2023,6.11633,7.78046,0.376,16.9109,226,5,
74.2024,6.11694,7.78351,0.376,16.9109,226,5,
74.2024,6.11115,7.78198,0.376,16.9109,226,5,
74.2024,6.11145,7.78198,0.376,16.9109,226,5,
74.2025,6.11176,7.77893,0.376,16.9109,226,5,
74.2025,6.11176,7.78046,0.376,16.9109,226,5,
74.2025,6.11115,7.78046,0.376,16.9109,226,5,
74.2026,6.11206,7.78198,0.376,16.9109,226,5,
74.2026,6.11115,7.78046,0.376,16.9109,226,5,
74.2026,6.11115,7.78351,0.376,16.9109,226,5,
74.2027,6.11084,7.78198,0.376,16.9109,226,5,
74.2027,6.10718,7.78046,0.376,16.9109,226,5,
74.2027,6.10626,7.77741,0.376,16.9109,226,5,
74.2028,6.10596,7.77893,0.376,16.9109,226,5,
74.2028,6.10657,7.77741,0.376,16.9109,226,5,
74.2028,6.10718,7.78198,0.376,16.9109,226,5,
74.2029,6.10687,7.78046,0.376,16.9109,226,5,
74.2029,6.10657,7.77893,0.376,16.9109,226,5,
74.2029,6.10687,7.78198,0.376,16.9109,226,5,
74.203,6.10657,7.78046,0.376,16.9109,226,5,
74.203,6.10626,7.78198,0.376,16.9109,226,5,
74.203,6.10168,7.78198,0.376,16.9109,226,5,
74.2031,6.10138,7.78198,0.376,16.9109,226,5,
74.2031,6.10077,7.78046,0.376,16.9109,226,5,
74.2031,6.10138,7.78198,0.376,16.9109,226,5,
74.2032,6.10168,7.77893,0.376,16.9109,226,5,
74.2032,6.10138,7.77893,0.376,16.9109,226,5,
74.2032,6.10138,7.78198,0.376,16.9109,226,5,
74.2033,6.10229,7.77893,0.376,16.9109,226,5,
74.2033,6.10168,7.78046,0.376,16.9109,226,5,
74.2033,6.10138,7.78046,0.376,16.9109,226,5,
74.2034,6.10168,7.77893,0.376,16.9109,226,5,
74.2034,6.09711,7.78198,0.376,16.9109,226,5,
74.2034,6.09711,7.77893,0.376,16.9109,226,5,
74.2035,6.0965,7.78351,0.376,16.9109,226,5,
74.2035,6.0968,7.78656,0.376,16.9109,226,5,
74.2035,6.09741,7.78046,0.376,16.9109,226,5,
74.2036,6.0965,7.77893,0.376,16.9109,226,5,
74.2036,6.09711,7.78046,0.376,16.9109,226,5,
74.2036,6.0965,7.78198,0.376,16.9109,226,5,
74.2037,6.0965,7.78046,0.376,16.9109,226,5,
74.2037,6.0965,7.77741,0.376,16.9109,226,5,
74.2037,6.09619,7.78046,0.376,16.9109,226,5,
74.2038,6.0965,7.77893,0.376,16.9109,226,5,
74.2038,6.09314,7.78198,0.376,16.9109,226,5,
74.2038,6.09161,7.78198,0.376,16.9109,226,5,
74.2039,6.09131,7.78046,0.376,16.9109,226,5,
74.2039,6.09222,7.78046,0.376,16.9109,226,5,
74.2039,6.09222,7.77893,0.376,16.9109,226,5,
74.204,6.091,7.78046,0.376,16.9109,226,5,
74.204,6.09283,7.78198,0.376,16.9109,226,5,
74.204,6.09192,7.78198,0.376,16.9109,226,5,
74.2041,6.09222,7.78351,0.376,16.9109,226,5,
74.2041,6.09222,7.78351,0.376,16.9109,226,5,
74.2041,6.09161,7.78198,0.376,16.9109,226,5,
74.2042,6.09222,7.78046,0.376,16.9109,226,5,
74.2042,6.09192,7.78046,0.376,16.9109,226,5,
74.2042,6.09161,7.78046,0.376,16.9109,226,5,
74.2043,6.091,7.77741,0.376,16.9109,226,5,
74.2043,6.09253,7.77893,0.376,16.9109,226,5,
74.2043,6.08765,7.77893,0.376,16.9109,226,5,
74.2044,6.08734,7.78351,0.376,16.9109,226,5,
74.2044,6.08704,7.78046,0.376,16.9109,226,5,
74.2044,6.08734,7.77893,0.376,16.9109,226,5,
74.2045,6.08673,7.78046,0.376,16.9109,226,5,
74.2045,6.08734,7.78351,0.376,16.9109,226,5,
74.2045,6.08734,7.78046,0.376,16.9109,226,5,
74.2046,6.08643,7.78198,0.376,16.9109,226,5,
74.2046,6.08704,7.78351,0.376,16.9109,226,5,
74.2046,6.08673,7.78198,0.376,16.9109,226,5,
74.2047,6.08704,7.78198,0.376,16.9109,226,5,
74.2047,6.08734,7.78046,0.376,16.9109,226,5,
74.2047,6.08704,7.78198,0.376,16.9109,226,5,
74.2048,6.08704,7.78198,0.376,16.9109,226,5,
74.2048,6.08734,7.77893,0.376,16.9109,226,5,
74.2048,6.08734,7.78046,0.376,16.9109,226,5,
74.2049,6.08734,7.77893,0.376,16.9109,226,5,
74.2049,6.08673,7.78198,0.376,16.9109,226,5,
74.2049,6.08765,7.78198,0.376,16.9109,226,5,
74.205,6.08704,7.78046,0.376,16.9109,226,5,
74.205,6.08704,7.77893,0.376,16.9109,226,5,
74.205,6.08765,7.78046,0.376,16.9109,226,5,
74.2051,6.08704,7.78046,0.376,16.9109,226,5,
74.2051,6.08734,7.78046,0.376,16.9109,226,5,
74.2051,6.08704,7.78351,0.376,16.9109,226,5,
74.2052,6.08704,7.76672,0.376,16.9109,226,5,
74.2052,6.08734,7.76825,0.376,16.9109,226,5,
74.2052,6.08704,7.76825,0.376,16.9109,226,5,
74.2053,6.08734,7.7713,0.376,16.9109,226,5,
74.2053,6.08704,7.76672,0.376,16.9109,226,5,
74.2053,6.08704,7.76367,0.376,16.9109,226,5,
74.2054,6.08765,7.76825,0.376,16.9109,226,5,
74.2054,6.08673,7.76672,0.376,16.9109,226,5,
74.2054,6.08704,7.7652,0.376,16.9109,226,5,
74.2055,6.08734,7.76825,0.376,16.9109,226,5,
74.2055,6.08704,7.76978,0.376,16.9109,226,5,
74.2055,6.08734,7.76825,0.376,16.9109,226,5,
74.2056,6.08704,7.7713,0.376,16.9109,226,5,
74.2056,6.08673,7.76825,0.376,16.9109,226,5,
74.2056,6.08734,7.76978,0.376,16.9109,226,5,
74.2057,6.08673,7.76978,0.376,16.9109,226,5,
74.2057,6.08704,7.76978,0.376,16.9109,226,5,
74.2057,6.08673,7.76825,0.376,16.9109,226,5,
74.2058,6.08704,7.76978,0.376,16.9109,226,5,
74.2058,6.08734,7.76825,0.376,16.9109,226,5,
74.2058,6.08673,7.76825,0.376,16.9109,226,5,
74.2059,6.08704,7.7652,0.376,16.9109,226,5,
74.2059,6.08704,7.76825,0.376,16.9109,226,5,
74.2059,6.08673,7.76825,0.376,16.9109,226,5,
74.206,6.08765,7.7652,0.376,16.9109,226,5,
74.206,6.08704,7.76672,0.376,16.9109,226,5,
74.206,6.08673,7.76978,0.376,16.9109,226,5,
74.2061,6.08704,7.76825,0.376,16.9109,226,5,
74.2061,6.08704,7.7713,0.376,16.9109,226,5,
74.2061,6.08704,7.76672,0.376,16.9109,226,5,
74.2062,6.08673,7.76978,0.376,16.9109,226,5,
74.2062,6.08673,7.76672,0.376,16.9109,226,5,
74.2062,6.08612,7.76978,0.376,16.9109,226,5,
74.2063,6.08612,7.76978,0.376,16.9109,226,5,
74.2063,6.08704,7.76672,0.376,16.9109,226,5,
74.2063,6.08643,7.76672,0.376,16.9109,226,5,
74.2064,6.08643,7.7713,0.376,16.9109,226,5,
74.2064,6.08704,7.76672,0.376,16.9109,226,5,
74.2064,6.08704,7.76825,0.376,16.9109,226,5,
74.2065,6.09131,7.76825,0.376,16.9109,226,5,
74.2065,6.09161,7.76825,0.376,16.9109,226,5,
74.2065,6.09131,7.76672,0.376,16.9109,226,5,
74.2066,6.09192,7.76978,0.376,16.9109,226,5,
74.2066,6.09161,7.76672,0.376,16.9109,226,5,
74.2066,6.09253,7.7713,0.376,16.9109,226,5,
74.2067,6.09161,7.76825,0.376,16.9109,226,5,
74.2067,6.09192,7.76825,0.376,16.9109,226,5,
74.2067,6.09253,7.76825,0.376,16.9109,226,5,
74.2068,6.09253,7.76978,0.376,16.9109,226,5,
74.2068,6.09192,7.76978,0.376,16.9109,226,5,
74.2068,6.09283,7.76672,0.376,16.9109,226,5,
74.2069,6.09283,7.76978,0.376,16.9109,226,5,
74.2069,6.09283,7.76825,0.376,16.9109,226,5,
74.2069,6.09283,7.7652,0.376,16.9109,226,5,
74.207,6.09283,7.76825,0.376,16.9109,226,5,
74.207,6.09222,7.76978,0.376,16.9109,226,5,
74.207,6.09222,7.76978,0.376,16.9109,226,5,
74.2071,6.09619,7.76978,0.376,16.9109,226,5,
74.2071,6.0965,7.76672,0.376,16.9109,226,5,
74.2071,6.0968,7.7713,0.376,16.9109,226,5,
74.2072,6.0968,7.76672,0.376,16.9109,226,5,
74.2072,6.0965,7.7713,0.376,16.9109,226,5,
74.2072,6.0965,7.76825,0.376,16.9109,226,5,
74.2073,6.09711,7.7652,0.376,16.9109,226,5,
74.2073,6.0968,7.77435,0.376,16.9109,226,5,
74.2073,6.0968,7.76978,0.376,16.9109,226,5,
74.2074,6.0965,7.76672,0.376,16.9109,226,5,
74.2074,6.0968,7.76825,0.376,16.9109,226,5,
74.2074,6.0965,7.76672,0.376,16.9109,226,5,
74.2075,6.0968,7.76978,0.376,16.9109,226,5,
74.2075,6.09711,7.76825,0.376,16.9109,226,5,
74.2075,6.0968,7.7652,0.376,16.9109,226,5,
74.2076,6.10168,7.76978,0.376,16.9109,226,5,
74.2076,6.10138,7.76672,0.376,16.9109,226,5,
74.2076,6.10229,7.76825,0.376,16.9109,226,5,
74.2077,6.10107,7.76672,0.376,16.9109,226,5,
74.2077,6.10138,7.76978,0.376,16.9109,226,5,
74.2077,6.10138,7.7713,0.376,16.9109,226,5,
74.2078,6.10168,7.7652,0.376,16.9109,226,5,
74.2078,6.10138,7.76825,0.376,16.9109,226,5,
74.2078,6.10107,7.76672,0.376,16.9109,226,5,
74.2079,6.10107,7.76825,0.376,16.9109,226,5,
74.2079,6.10138,7.76825,0.376,16.9109,226,5,
74.2079,6.10168,7.7713,0.376,16.9109,226,5,
74.208,6.10229,7.76825,0.376,16.9109,226,5,
74.208,6.10504,7.76825,0.376,16.9109,226,5,
74.208,6.10626,7.76672,0.376,16.9109,226,5,
74.2081,6.10626,7.76672,0.376,16.9109,226,5,
74.2081,6.10687,7.76825,0.376,16.9109,226,5,
74.2081,6.10626,7.7713,0.376,16.9109,226,5,
74.2082,6.10718,7.76978,0.376,16.9109,226,5,
74.2082,6.10626,7.76825,0.376,16.9109,226,5,
74.2082,6.10596,7.77283,0.376,16.9109,226,5,
74.2083,6.10626,7.76825,0.376,16.9109,226,5,
74.2083,6.10626,7.76825,0.376,16.9109,226,5,
74.2083,6.10657,7.76978,0.376,16.9109,226,5,
74.2084,6.10596,7.76672,0.376,16.9109,226,5,
74.2084,6.10626,7.76825,0.376,16.9109,226,5,
74.2084,6.11115,7.76825,0.376,16.9109,226,5,
74.2085,6.11176,7.76978,0.376,16.9109,226,5,
74.2085,6.11176,7.76978,0.376,16.9109,226,5,
74.2085,6.11145,7.76978,0.376,16.9109,226,5,
74.2086,6.11084,7.76978,0.376,16.9109,226,5,
74.2086,6.11176,7.75299,0.376,16.9109,226,5,
74.2086,6.11115,7.75604,0.376,16.9109,226,5,
74.2087,6.11115,7.75757,0.376,16.9109,226,5,
74.2087,6.11176,7.75757,0.376,16.9109,226,5,
74.2087,6.11176,7.7591,0.376,16.9109,226,5,
74.2088,6.11145,7.75299,0.376,16.9109,226,5,
74.2088,6.11145,7.75452,0.376,16.9109,226,5,
74.2088,6.11298,7.75452,0.376,16.9109,226,5,
74.2089,6.11633,7.75604,0.376,16.9109,226,5,
74.2089,6.11664,7.75452,0.376,16.9109,226,5,
74.2089,6.11633,7.75757,0.376,16.9109,226,5,
74.209,6.11633,7.75604,0.376,16.9109,226,5,
74.209,6.11603,7.75299,0.376,16.9109,226,5,
74.209,6.11603,7.75757,0.376,16.9109,226,5,
74.2091,6.11633,7.75757,0.376,16.9109,226,5,
74.2091,6.11603,7.75452,0.376,16.9109,226,5,
74.2091,6.11694,7.75604,0.376,16.9109,226,5,
74.2092,6.11633,7.75452,0.376,16.9109,226,5,
74.2092,6.11694,7.75452,0.376,16.9109,226,5,
74.2092,6.11664,7.75452,0.376,16.9109,226,5,
74.2093,6.12091,7.75604,0.376,16.9109,226,5,
74.2093,6.12091,7.7591,0.376,16.9109,226,5,
74.2093,6.12061,7.75604,0.376,16.9109,226,5,
74.2094,6.12183,7.75604,0.376,16.9109,226,5,
74.2094,6.12122,7.75757,0.376,16.9109,226,5,
74.2094,6.12152,7.75452,0.376,16.9109,226,5,
74.2095,6.12152,7.75757,0.376,16.9109,226,5,
74.2095,6.12091,7.75452,0.376,16.9109,226,5,
74.2095,6.1203,7.75757,0.376,16.9109,226,5,
74.2096,6.12183,7.75757,0.376,16.9109,226,5,
74.2096,6.12091,7.75452,0.376,16.9109,226,5,
74.2096,6.12122,7.75452,0.376,16.9109,226,5,
74.2097,6.12152,7.75604,0.376,16.9109,226,5,
74.2097,6.12579,7.75604,0.376,16.9109,226,5,
74.2097,6.1261,7.76062,0.376,16.9109,226,5,
74.2098,6.1261,7.75604,0.376,16.9109,226,5,
74.2098,6.12671,7.75604,0.376,16.9109,226,5,
74.2098,6.12579,7.75604,0.376,16.9109,226,5,
74.2099,6.12579,7.75452,0.376,16.9109,226,5,
74.2099,6.1261,7.76062,0.376,16.9109,226,5,
74.2099,6.12579,7.75604,0.376,16.9109,226,5,
74.21,6.1261,7.75757,0.376,16.9109,226,5,
74.21,6.12701,7.75604,0.376,16.9109,226,5,
74.21,6.12579,7.7591,0.376,16.9109,226,5,
74.2101,6.1261,7.75299,0.376,16.9109,226,5,
74.2101,6.12976,7.75757,0.376,16.9109,226,5,
74.2101,6.13068,7.75604,0.376,16.9109,226,5,
74.2102,6.13098,7.75757,0.376,16.9109,226,5,
74.2102,6.13129,7.75452,0.376,16.9109,226,5,
74.2102,6.13068,7.75604,0.376,16.9109,226,5,
74.2103,6.13098,7.75147,0.376,16.9109,226,5,
74.2103,6.13068,7.75604,0.376,16.9109,226,5,
74.2103,6.13098,7.75604,0.376,16.9109,226,5,
74.2104,6.13129,7.75299,0.376,16.9109,226,5,
74.2104,6.13098,7.75757,0.376,16.9109,226,5,
74.2104,6.1319,7.75604,0.376,16.9109,226,5,
74.2105,6.1319,7.75604,0.376,16.9109,226,5,
74.2105,6.13159,7.75604,0.376,16.9109,226,5,
74.2105,6.13617,7.75604,0.376,16.9109,226,5,
74.2106,6.13525,7.75299,0.376,16.9109,226,5,
74.2106,6.13586,7.75452,0.376,16.9109,226,5,
74.2106,6.13647,7.75604,0.376,16.9109,226,5,
74.2107,6.13586,7.75604,0.376,16.9109,226,5,
74.2107,6.13647,7.75604,0.376,16.9109,226,5,
74.2107,6.13617,7.75757,0.376,16.9109,226,5,
74.2108,6.13647,7.75604,0.376,16.9109,226,5,
74.2108,6.13647,7.75604,0.376,16.9109,226,5,
74.2108,6.13617,7.75604,0.376,16.9109,226,5,
74.2109,6.13617,7.75604,0.376,16.9109,226,5,
74.2109,6.13586,7.7591,0.376,16.9109,226,5,
74.2109,6.14105,7.75452,0.376,16.9109,226,5,
74.211,6.14044,7.7591,0.376,16.9109,226,5,
74.211,6.14014,7.75757,0.376,16.9109,226,5,
74.211,6.14105,7.75604,0.376,16.9109,226,5,
74.2111,6.14166,7.75452,0.376,16.9109,226,5,
74.2111,6.14014,7.75604,0.376,16.9109,226,5,
74.2111,6.14075,7.75757,0.376,16.9109,226,5,
74.2112,6.14044,7.75452,0.376,16.9109,226,5,
74.2112,6.14075,7.7591,0.376,16.9109,226,5,
74.2112,6.14075,7.75452,0.376,16.9109,226,5,
74.2113,6.14166,7.75452,0.376,16.9109,226,5,
74.2113,6.14105,7.75452,0.376,16.9109,226,5,
74.2113,6.14471,7.75757,0.376,16.9109,226,5,
74.2114,6.14563,7.7591,0.376,16.9109,226,5,
74.2114,6.14624,7.75604,0.376,16.9109,226,5,
74.2114,6.14624,7.76062,0.376,16.9109,226,5,
74.2115,6.14594,7.75757,0.376,16.9109,226,5,
74.2115,6.14563,7.75299,0.376,16.9109,226,5,
74.2115,6.14502,7.75604,0.376,16.9109,226,5,
74.2116,6.14532,7.75757,0.376,16.9109,226,5,
74.2116,6.14594,7.75452,0.376,16.9109,226,5,
74.2116,6.14624,7.75452,0.376,16.9109,226,5,
74.2117,6.14502,7.75452,0.376,16.9109,226,5,
74.2117,6.14532,7.75757,0.376,16.9109,226,5,
74.2117,6.14685,7.7591,0.376,16.9109,226,5,
74.2118,6.15112,7.75604,0.376,16.9109,226,5,
74.2118,6.15021,7.75452,0.376,16.9109,226,5,
74.2118,6.15082,7.75604,0.376,16.9109,226,5,
74.2119,6.1499,7.75604,0.376,16.9109,226,5,
74.2119,6.15143,7.75604,0.376,16.9109,226,5,
74.2119,6.15021,7.75604,0.376,16.9109,226,5,
74.212,6.15051,7.75604,0.376,16.9109,226,5,
74.212,6.15051,7.7591,0.376,16.9109,226,5,
74.212,6.15051,7.75604,0.376,16.9109,226,5,
74.2121,6.15051,7.75604,0.376,16.9109,226,5,
74.2121,6.15051,7.75757,0.376,16.9109,226,5,
74.2121,6.15112,7.75757,0.376,16.9109,226,5,
74.2122,6.1554,7.75757,0.376,16.9109,226,5,
74.2122,6.1557,7.75452,0.376,16.9109,226,5,
74.2122,6.15601,7.7591,0.376,16.9109,226,5,
74.2123,6.1557,7.75452,0.376,16.9109,226,5,
74.2123,6.1557,7.7591,0.376,16.9109,226,5,
74.2123,6.1557,7.7591,0.376,16.9109,226,5,
74.2124,6.15509,7.75452,0.376,16.9109,226,5,
74.2124,6.1557,7.75604,0.376,16.9109,226,5,
74.2124,6.15601,7.75452,0.376,16.9109,226,5,
74.2125,6.1557,7.75604,0.376,16.9109,226,5,
74.2125,6.15509,7.75299,0.376,16.9109,226,5,
74.2125,6.15479,7.75757,0.376,16.9109,226,5,
74.2126,6.16028,7.7591,0.376,16.9109,226,5,
74.2126,6.16058,7.75757,0.376,16.9109,226,5,
74.2126,6.16058,7.7591,0.376,16.9109,226,5,
74.2127,6.16058,7.75604,0.376,16.9109,226,5,
74.2127,6.15997,7.75757,0.376,16.9109,226,5,
74.2127,6.15997,7.75604,0.376,16.9109,226,5,
74.2128,6.16028,7.75604,0.376,16.9109,226,5,
74.2128,6.15997,7.75452,0.376,16.9109,226,5,
74.2128,6.16028,7.75757,0.376,16.9109,226,5,
74.2129,6.16028,7.75452,0.376,16.9109,226,5,
74.2129,6.16028,7.75452,0.376,16.9109,226,5,
74.2129,6.16455,7.75604,0.376,16.9109,226,5,
74.213,6.16516,7.75452,0.376,16.9109,226,5,
74.213,6.16608,7.7591,0.376,16.9109,226,5,
74.213,6.16547,7.75604,0.376,16.9109,226,5,
74.2131,6.16638,7.7591,0.376,16.9109,226,5,
74.2131,6.16516,7.75604,0.376,16.9109,226,5,
74.2131,6.16547,7.75757,0.376,16.9109,226,5,
74.2132,6.16516,7.75299,0.376,16.9109,226,5,
74.2132,6.16608,7.75452,0.376,16.9109,226,5,
74.2132,6.16547,7.75757,0.376,16.9109,226,5,
74.2133,6.16974,7.7591,0.376,16.9109,226,5,
74.2133,6.16943,7.75757,0.376,16.9109,226,5,
74.2133,6.17004,7.75604,0.376,16.9109,226,5,
74.2134,6.16974,7.75452,0.376,16.9109,226,5,
74.2134,6.17065,7.75757,0.376,16.9109,226,5,
74.2134,6.17004,7.75604,0.376,16.9109,226,5,
74.2135,6.17035,7.75452,0.376,16.9109,226,5,
74.2135,6.17035,7.75604,0.376,16.9109,226,5,
74.2135,6.17035,7.75757,0.376,16.9109,226,5,
74.2136,6.17493,7.75604,0.376,16.9109,226,5,
74.2136,6.17493,7.75757,0.376,16.9109,226,5,
74.2136,6.17432,7.75452,0.376,16.9109,226,5,
74.2137,6.17523,7.76062,0.376,16.9109,226,5,
74.2137,6.17523,7.7591,0.376,16.9109,226,5,
74.2137,6.17493,7.7591,0.376,16.9109,226,5,
74.2138,6.17523,7.75604,0.376,16.9109,226,5,
74.2138,6.17523,7.75604,0.376,16.9109,226,5,
74.2138,6.17828,7.75757,0.376,16.9109,226,5,
74.2139,6.18011,7.7591,0.376,16.9109,226,5,
74.2139,6.18011,7.75452,0.376,16.9109,226,5,
74.2139,6.18103,7.7591,0.376,16.9109,226,5,
74.214,6.1795,7.75757,0.376,16.9109,226,5,
74.214,6.18073,7.75452,0.376,16.9109,226,5,
74.214,6.17981,7.75604,0.376,16.9109,226,5,
74.2141,6.18042,7.75604,0.376,16.9109,226,5,
74.2141,6.185,7.75452,0.376,16.9109,226,5,
74.2141,6.1853,7.75299,0.376,16.9109,226,5,
74.2142,6.18469,7.75604,0.376,16.9109,226,5,
74.2142,6.185,7.75757,0.376,16.9109,226,5,
74.2142,6.18469,7.75299,0.376,16.9109,226,5,
74.2143,6.1853,7.75604,0.376,16.9109,226,5,
74.2143,6.185,7.76062,0.376,16.9109,226,5,
74.2143,6.18958,7.75452,0.376,16.9109,226,5,
74.2144,6.18988,7.75452,0.376,16.9109,226,5,
74.2144,6.19019,7.75299,0.376,16.9109,226,5,
74.2144,6.18927,7.75452,0.376,16.9109,226,5,
74.2145,6.19019,7.75604,0.376,16.9109,226,5,
74.2145,6.19049,7.7591,0.376,16.9109,226,5,
74.2145,6.19232,7.75452,0.376,16.9109,226,5,
74.2146,6.19507,7.75604,0.376,16.9109,226,5,
74.2146,6.19415,7.75452,0.376,16.9109,226,5,
74.2146,6.19415,7.75604,0.376,16.9109,226,5,
74.2147,6.19476,7.75604,0.376,16.9109,226,5,
74.2147,6.19476,7.75452,0.376,16.9109,226,5,
74.2147,6.19507,7.75452,0.376,16.9109,226,5,
74.2148,6.19904,7.75604,0.376,16.9109,226,5,
74.2148,6.19995,7.7591,0.376,16.9109,226,5,
74.2148,6.19965,7.75757,0.376,16.9109,226,5,
74.2149,6.19995,7.75452,0.376,16.9109,226,5,
74.2149,6.19904,7.75604,0.376,16.9109,226,5,
74.2149,6.20148,7.75604,0.376,16.9109,226,5,
74.215,6.20483,7.75757,0.376,16.9109,226,5,
74.215,6.20453,7.75452,0.376,16.9109,226,5,
74.215,6.20483,7.75604,0.376,16.9109,226,5,
74.2151,6.20453,7.75604,0.376,16.9109,226,5,
74.2151,6.20453,7.75757,0.376,16.9109,226,5,
74.2151,6.20819,7.75452,0.376,16.9109,226,5,
74.2152,6.20972,7.75299,0.376,16.9109,226,5,
74.2152,6.20972,7.75604,0.376,16.9109,226,5,
74.2152,6.20972,7.75452,0.376,16.9109,226,5,
74.2153,6.20972,7.74384,0.376,16.9109,226,5,
74.2153,6.20941,7.74384,0.376,16.9109,226,5,
74.2153,6.2149,7.74078,0.376,16.9109,226,5,
74.2154,6.2146,7.74078,0.376,16.9109,226,5,
74.2154,6.2146,7.74078,0.376,16.9109,226,5,
74.2154,6.2149,7.74231,0.376,16.9109,226,5,
74.2155,6.21521,7.74384,0.376,16.9109,226,5,
74.2155,6.21826,7.74231,0.376,16.9109,226,5,
74.2155,6.21979,7.74231,0.376,16.9109,226,5,
74.2156,6.21948,7.74231,0.376,16.9109,226,5,
74.2156,6.21918,7.74078,0.376,16.9109,226,5,
74.2156,6.21948,7.74384,0.376,16.9109,226,5,
74.2157,6.21918,7.74231,0.376,16.9109,226,5,
74.2157,6.22406,7.74384,0.376,16.9109,226,5,
74.2157,6.22375,7.74384,0.376,16.9109,226,5,
74.2158,6.22498,7.74384,0.376,16.9109,226,5,
74.2158,6.22467,7.74689,0.376,16.9109,226,5,
74.2158,6.22498,7.74384,0.376,16.9109,226,5,
74.2159,6.22894,7.73926,0.376,16.9109,226,5,
74.2159,6.22925,7.74384,0.376,16.9109,226,5,
74.2159,6.22955,7.74231,0.376,16.9109,226,5,
74.216,6.22864,7.74231,0.376,16.9109,226,5,
74.216,6.22894,7.74536,0.376,16.9109,226,5,
74.216,6.23322,7.74231,0.376,16.9109,226,5,
74.2161,6.23383,7.74384,0.376,16.9109,226,5,
74.2161,6.23413,7.74536,0.376,16.9109,226,5,
74.2161,6.23444,7.74231,0.376,16.9109,226,5,
74.2162,6.23413,7.74384,0.376,16.9109,226,5,
74.2162,6.23779,7.74536,0.376,16.9109,226,5,
74.2162,6.23901,7.74384,0.376,16.9109,226,5,
74.2163,6.23871,7.74231,0.376,16.9109,226,5,
74.2163,6.23901,7.74078,0.376,16.9109,226,5,
74.2163,6.23871,7.74231,0.376,16.9109,226,5,
74.2164,6.24176,7.74384,0.376,16.9109,226,5,
74.2164,6.24359,7.74536,0.376,16.9109,226,5,
74.2164,6.24359,7.74231,0.376,16.9109,226,5,
74.2165,6.2439,7.74231,0.376,16.9109,226,5,
74.2165,6.24359,7.74384,0.376,16.9109,226,5,
74.2165,6.24695,7.74384,0.376,16.9109,226,5,
74.2166,6.24878,7.74231,0.376,16.9109,226,5,
74.2166,6.24908,7.74231,0.376,16.9109,226,5,
74.2166,6.24878,7.74689,0.376,16.9109,226,5,
74.2167,6.24847,7.74078,0.376,16.9109,226,5,
74.2167,6.25183,7.74384,0.376,16.9109,226,5,
74.2167,6.25305,7.74384,0.376,16.9109,226,5,
74.2168,6.25427,7.74231,0.376,16.9109,226,5,
74.2168,6.25275,7.74231,0.376,16.9109,226,5,
74.2168,6.25397,7.74231,0.376,16.9109,226,5,
74.2169,6.25824,7.74231,0.376,16.9109,226,5,
74.2169,6.25854,7.74689,0.376,16.9109,226,5,
74.2169,6.25824,7.74231,0.376,16.9109,226,5,
74.217,6.25824,7.74536,0.376,16.9109,226,5,
74.217,6.25885,7.74536,0.376,16.9109,226,5,
74.217,6.26312,7.74384,0.376,16.9109,226,5,
74.2171,6.26312,7.74231,0.376,16.9109,226,5,
74.2171,6.26312,7.74536,0.376,16.9109,226,5,
74.2171,6.26282,7.74689,0.376,16.9109,226,5,
74.2172,6.26343,7.74384,0.376,16.9109,226,5,
74.2172,6.26801,7.74689,0.376,16.9109,226,5,
74.2172,6.26831,7.74231,0.376,16.9109,226,5,
74.2173,6.26801,7.74078,0.376,16.9109,226,5,
74.2173,6.26892,7.74384,0.376,16.9109,226,5,
74.2173,6.26831,7.74384,0.376,16.9109,226,5,
74.2174,6.27289,7.74689,0.376,16.9109,226,5,
74.2174,6.27319,7.74231,0.376,16.9109,226,5,
74.2174,6.27319,7.74536,0.376,16.9109,226,5,
74.2175,6.2735,7.74536,0.376,16.9109,226,5,
74.2175,6.27319,7.74078,0.376,16.9109,226,5,
74.2175,6.27838,7.74384,0.376,16.9109,226,5,
74.2176,6.27869,7.74536,0.376,16.9109,226,5,
74.2176,6.27838,7.74384,0.376,16.9109,226,5,
74.2176,6.27808,7.74689,0.376,16.9109,226,5,
74.2177,6.27808,7.74536,0.376,16.9109,226,5,
74.2177,6.28296,7.74384,0.376,16.9109,226,5,
74.2177,6.28265,7.74384,0.376,16.9109,226,5,
74.2178,6.28296,7.74231,0.376,16.9109,226,5,
74.2178,6.28296,7.74384,0.376,16.9109,226,5,
74.2178,6.28387,7.74231,0.376,16.9109,226,5,
74.2179,6.28784,7.73926,0.376,16.9109,226,5,
74.2179,6.28784,7.74231,0.376,16.9109,226,5,
74.2179,6.28815,7.74231,0.376,16.9109,226,5,
74.218,6.28876,7.74231,0.376,16.9109,226,5,
74.218,6.28845,7.74384,0.376,16.9109,226,5,
74.218,6.29333,7.74536,0.376,16.9109,226,5,
74.2181,6.29303,7.74231,0.376,16.9109,226,5,
74.2181,6.29272,7.74231,0.376,16.9109,226,5,
74.2181,6.29272,7.74078,0.376,16.9109,226,5,
74.2182,6.29272,7.74689,0.376,16.9109,226,5,
74.2182,6.2973,7.74384,0.376,16.9109,226,5,
74.2182,6.29761,7.74384,0.376,16.9109,226,5,
74.2183,6.29761,7.74384,0.376,16.9109,226,5,
74.2183,6.29761,7.74231,0.376,16.9109,226,5,
74.2183,6.29761,7.74384,0.376,16.9109,226,5,
74.2184,6.29791,7.74231,0.376,16.9109,226,5,
74.2184,6.30249,7.74689,0.376,16.9109,226,5,
74.2184,6.30188,7.74384,0.376,16.9109,226,5,
74.2185,6.30219,7.74231,0.376,16.9109,226,5,
74.2185,6.30188,7.74536,0.376,16.9109,226,5,
74.2185,6.30219,7.74689,0.376,16.9109,226,5,
74.2186,6.30707,7.74078,0.376,16.9109,226,5,
74.2186,6.30707,7.74231,0.376,16.9109,226,5,
74.2186,6.30707,7.74231,0.376,16.9109,226,5,
74.2187,6.30737,7.74384,0,16.9109,226,5,
74.2187,6.30707,7.74231,0,16.9109,226,5,
74.2187,6.30676,7.74384,0,16.9109,226,5,
74.2188,6.31287,7.74231,0,16.9109,226,5,
74.2188,6.31195,7.74536,0,16.9109,226,5,
74.2188,6.31226,7.74078,0,16.9109,226,5,
74.2189,6.31256,7.74231,0,16.9109,226,5,
74.2189,6.31226,7.74384,0,16.9109,226,5,
74.2189,6.31348,7.74384,0,16.9109,226,5,
74.219,6.31744,7.74384,0,16.9109,226,5,
