2600-SECPT.acq
2 msec/sample
6 channels
RSP, X, RSPEC-R
Volts
EDA, Y, PPGED-R
microsiemens
ECG R-R
Seconds
Respiration Rate
BPM
C7 - EDR
Peaks
C14 - Control
Volts
min,CH1,CH14,CH40,CH42,CH47,CH54,
,90058,90058,90058,90058,90058,90058,
183.643,3.94623,12.4939,4.226,7.10059,1142,5,
183.643,3.94684,12.4924,4.226,7.10059,1142,5,
183.643,3.94653,12.4924,4.226,7.10059,1142,5,
183.643,3.94562,12.4939,4.226,7.10059,1142,5,
183.643,3.94318,12.4893,4.226,7.10059,1142,5,
183.643,3.94073,12.4954,4.226,7.10059,1142,5,
183.643,3.94165,12.4924,4.226,7.10059,1142,5,
183.643,3.94104,12.4924,4.226,7.10059,1142,5,
183.643,3.94135,12.4924,4.226,7.10059,1142,5,
183.643,3.94165,12.4954,4.226,7.10059,1142,5,
183.643,3.94104,12.4817,4.226,7.10059,1142,5,
183.643,3.93768,12.4786,4.226,7.10059,1142,5,
183.643,3.93646,12.4847,4.226,7.10059,1142,5,
183.643,3.93585,12.4786,4.226,7.10059,1142,5,
183.643,3.93707,12.4817,4.226,7.10059,1142,5,
183.643,3.93646,12.4832,4.226,7.10059,1142,5,
183.643,3.93677,12.4786,4.226,7.10059,1142,5,
183.643,3.93616,12.4817,4.226,7.10059,1142,5,
183.643,3.93646,12.4832,4.226,7.10059,1142,5,
183.643,3.93158,12.4817,4.226,7.10059,1142,5,
183.643,3.93097,12.4832,4.226,7.10059,1142,5,
183.644,3.93097,12.4817,4.226,7.10059,1142,5,
183.644,3.93097,12.4817,4.226,7.10059,1142,5,
183.644,3.93158,12.4664,4.226,7.10059,1142,5,
183.644,3.93158,12.4695,4.226,7.10059,1142,5,
183.644,3.9325,12.4664,4.226,7.10059,1142,5,
183.644,3.93219,12.4695,4.226,7.10059,1142,5,
183.644,3.92731,12.4695,4.226,7.10059,1142,5,
183.644,3.92609,12.471,4.226,7.10059,1142,5,
183.644,3.9267,12.4695,4.226,7.10059,1142,5,
183.644,3.9267,12.4695,4.226,7.10059,1142,5,
183.644,3.92639,12.4664,4.226,7.10059,1142,5,
183.644,3.9267,12.468,4.226,7.10059,1142,5,
183.644,3.92731,12.468,4.226,7.10059,1142,5,
183.644,3.9267,12.4664,4.226,7.10059,1142,5,
183.644,3.92639,12.4573,4.226,7.10059,1142,5,
183.644,3.92365,12.4573,4.226,7.10059,1142,5,
183.644,3.9212,12.4558,4.226,7.10059,1142,5,
183.644,3.92181,12.4588,4.226,7.10059,1142,5,
183.644,3.9209,12.4573,4.226,7.10059,1142,5,
183.644,3.92212,12.4558,4.226,7.10059,1142,5,
183.644,3.92151,12.4573,4.226,7.10059,1142,5,
183.644,3.9212,12.4588,4.226,7.10059,1142,5,
183.644,3.92212,12.4573,4.226,7.10059,1142,5,
183.644,3.92181,12.4542,4.226,7.10059,1142,5,
183.644,3.92151,12.4588,4.226,7.10059,1142,5,
183.644,3.92151,12.4573,4.226,7.10059,1142,5,
183.644,3.91724,12.4542,4.226,7.10059,1142,5,
183.644,3.91724,12.442,4.226,7.10059,1142,5,
183.644,3.91663,12.4451,4.226,7.10059,1142,5,
183.644,3.91693,12.4451,4.226,7.10059,1142,5,
183.645,3.91632,12.4435,4.226,7.10059,1142,5,
183.645,3.91724,12.4435,4.226,7.10059,1142,5,
183.645,3.91663,12.4481,4.226,7.10059,1142,5,
183.645,3.91724,12.4466,4.226,7.10059,1142,5,
183.645,3.91663,12.442,4.226,7.10059,1142,5,
183.645,3.91632,12.4466,4.226,7.10059,1142,5,
183.645,3.91632,12.442,4.226,7.10059,1142,5,
183.645,3.91724,12.442,4.226,7.10059,1142,5,
183.645,3.91754,12.4466,4.226,7.10059,1142,5,
183.645,3.91144,12.442,4.226,7.10059,1142,5,
183.645,3.91205,12.439,4.226,7.10059,1142,5,
183.645,3.91235,12.4344,4.226,7.10059,1142,5,
183.645,3.91174,12.4313,4.226,7.10059,1142,5,
183.645,3.91205,12.4313,4.226,7.10059,1142,5,
183.645,3.91174,12.4313,4.226,7.10059,1142,5,
183.645,3.91205,12.4313,4.226,7.10059,1142,5,
183.645,3.91205,12.4329,4.226,7.10059,1142,5,
183.645,3.91174,12.4313,4.226,7.10059,1142,5,
183.645,3.91205,12.4329,4.226,7.10059,1142,5,
183.645,3.91235,12.4313,4.226,7.10059,1142,5,
183.645,3.91235,12.4329,4.226,7.10059,1142,5,
183.645,3.91144,12.4313,4.226,7.10059,1142,5,
183.645,3.91266,12.4329,4.226,7.10059,1142,5,
183.645,3.91174,12.4344,4.226,7.10059,1142,5,
183.645,3.91235,12.4298,4.226,7.10059,1142,5,
183.645,3.91144,12.4237,4.226,7.10059,1142,5,
183.645,3.91144,12.4237,4.226,7.10059,1142,5,
183.645,3.91144,12.4207,4.226,7.10059,1142,5,
183.645,3.90717,12.4176,4.226,7.10059,1142,5,
183.645,3.90747,12.4207,4.226,7.10059,1142,5,
183.646,3.90686,12.4207,4.226,7.10059,1142,5,
183.646,3.90717,12.4191,4.226,7.10059,1142,5,
183.646,3.90717,12.4207,4.226,7.10059,1142,5,
183.646,3.90747,12.4207,4.226,7.10059,1142,5,
183.646,3.90747,12.4222,4.226,7.10059,1142,5,
183.646,3.90686,12.4237,4.226,7.10059,1142,5,
183.646,3.90717,12.4207,4.226,7.10059,1142,5,
183.646,3.90747,12.4191,4.226,7.10059,1142,5,
183.646,3.90717,12.4222,4.226,7.10059,1142,5,
183.646,3.90717,12.4237,4.226,7.10059,1142,5,
183.646,3.90747,12.4084,4.226,7.10059,1142,5,
183.646,3.90778,12.4069,4.226,7.10059,1142,5,
183.646,3.90747,12.41,4.226,7.10059,1142,5,
183.646,3.90686,12.4084,4.226,7.10059,1142,5,
183.646,3.90778,12.4115,4.226,7.10059,1142,5,
183.646,3.90686,12.4069,4.226,7.10059,1142,5,
183.646,3.90717,12.4084,4.226,7.10059,1142,5,
183.646,3.90747,12.41,4.226,7.10059,1142,5,
183.646,3.90717,12.4054,4.226,7.10059,1142,5,
183.646,3.90717,12.4115,4.226,7.10059,1142,5,
183.646,3.90747,12.41,4.226,7.10059,1142,5,
183.646,3.90747,12.4084,4.226,7.10059,1142,5,
183.646,3.90656,12.41,4.226,7.10059,1142,5,
183.646,3.90686,12.4084,4.226,7.10059,1142,5,
183.646,3.90747,12.4069,4.226,7.10059,1142,5,
183.646,3.90686,12.4115,4.226,7.10059,1142,5,
183.646,3.90717,12.3978,4.226,7.10059,1142,5,
183.646,3.90686,12.3947,4.226,7.10059,1142,5,
183.646,3.91174,12.3947,4.226,7.10059,1142,5,
183.647,3.91144,12.3947,4.226,7.10059,1142,5,
183.647,3.91205,12.3932,4.226,7.10059,1142,5,
183.647,3.91144,12.3978,4.226,7.10059,1142,5,
183.647,3.91174,12.3947,4.226,7.10059,1142,5,
183.647,3.91205,12.3962,4.226,7.10059,1142,5,
183.647,3.91205,12.3947,4.226,7.10059,1142,5,
183.647,3.91235,12.3962,4.226,7.10059,1142,5,
183.647,3.91205,12.3947,4.226,7.10059,1142,5,
183.647,3.91235,12.3962,4.226,7.10059,1142,5,
183.647,3.91205,12.3978,4.226,7.10059,1142,5,
183.647,3.91205,12.3932,4.226,7.10059,1142,5,
183.647,3.91174,12.3993,4.226,7.10059,1142,5,
183.647,3.91541,12.3871,4.226,7.10059,1142,5,
183.647,3.91693,12.3856,4.226,7.10059,1142,5,
183.647,3.91693,12.384,4.226,7.10059,1142,5,
183.647,3.91724,12.384,4.226,7.10059,1142,5,
183.647,3.91693,12.3856,4.226,7.10059,1142,5,
183.647,3.91724,12.3871,4.226,7.10059,1142,5,
183.647,3.91632,12.3856,0,7.10059,1142,5,
183.647,3.91632,12.3856,0,7.10059,1142,5,
183.647,3.91632,12.3825,0,7.10059,1142,5,
183.647,3.92181,12.3825,0,7.10059,1142,5,
183.647,3.92212,12.3871,0,7.10059,1142,5,
183.647,3.92151,12.3871,0,7.10059,1142,5,
183.647,3.92181,12.384,0,7.10059,1142,5,
183.647,3.92181,12.3795,0,7.10059,1142,5,
183.647,3.92151,12.3825,0,7.10059,1142,5,
183.647,3.9212,12.3856,0,7.10059,1142,5,
183.647,3.92609,12.3779,0,7.10059,1142,5,
183.647,3.92639,12.3718,0,7.10059,1142,5,
183.648,3.92639,12.3703,0,7.10059,1142,5,
183.648,3.9267,12.3718,0,7.10059,1142,5,
183.648,3.927,12.3688,0,7.10059,1142,5,
183.648,3.9267,12.3718,0,7.10059,1142,5,
183.648,3.93127,12.3703,0,7.10059,1142,5,
183.648,3.93158,12.3703,0,7.10059,1142,5,
183.648,3.93188,12.3718,0,7.10059,1142,5,
183.648,3.93188,12.3718,0,7.10059,1142,5,
183.648,3.93219,12.3718,0,7.10059,1142,5,
183.648,3.9325,12.3718,0,7.10059,1142,5,
183.648,3.93677,12.3718,0,7.10059,1142,5,
183.648,3.93707,12.3734,0,7.10059,1142,5,
183.648,3.93738,12.3688,0,7.10059,1142,5,
183.648,3.93738,12.3703,0,7.10059,1142,5,
183.648,3.94012,12.3642,0,7.10059,1142,5,
183.648,3.94165,12.3596,0,7.10059,1142,5,
183.648,3.94257,12.3627,0,7.10059,1142,5,
183.648,3.94165,12.3596,0,7.10059,1142,5,
183.648,3.94196,12.3611,0,7.10059,1142,5,
183.648,3.94623,12.3566,0,7.10059,1142,5,
183.648,3.94684,12.3596,0,7.10059,1142,5,
183.648,3.94623,12.3596,0,7.10059,1142,5,
183.648,3.94623,12.3611,0,7.10059,1142,5,
183.648,3.94897,12.3566,0,7.10059,1142,5,
183.648,3.95142,12.355,0,7.10059,1142,5,
183.648,3.9505,12.3596,0,7.10059,1142,5,
183.648,3.95081,12.3596,0,7.10059,1142,5,
183.648,3.95111,12.3566,0,7.10059,1142,5,
183.648,3.95599,12.3581,0,7.10059,1142,5,
183.648,3.95599,12.3596,0,7.10059,1142,5,
183.649,3.95569,12.3581,0,7.10059,1142,5,
183.649,3.95844,12.3474,0,7.10059,1142,5,
183.649,3.96118,12.3474,0,7.10059,1142,5,
183.649,3.96057,12.3474,0,7.10059,1142,5,
183.649,3.96057,12.3489,0,7.10059,1142,5,
183.649,3.96576,12.3459,0,7.10059,1142,5,
183.649,3.96545,12.3459,0,7.10059,1142,5,
183.649,3.96515,12.3444,0,7.10059,1142,5,
183.649,3.96576,12.3459,0,7.10059,1142,5,
183.649,3.97003,12.3459,0,7.10059,1142,5,
183.649,3.97125,12.3459,0,7.10059,1142,5,
183.649,3.97064,12.3459,0,7.10059,1142,5,
183.649,3.97339,12.3489,0,7.10059,1142,5,
183.649,3.97522,12.3474,0,7.10059,1142,5,
183.649,3.97583,12.3444,0,7.10059,1142,5,
183.649,3.97491,12.3474,0,7.10059,1142,5,
183.649,3.98041,12.3459,0,7.10059,1142,5,
183.649,3.98071,12.3489,0,7.10059,1142,5,
183.649,3.9801,12.3352,0,7.10059,1142,5,
183.649,3.98285,12.3352,0,7.10059,1142,5,
183.649,3.98438,12.3367,0,7.10059,1142,5,
183.649,3.9859,12.3337,0,7.10059,1142,5,
183.649,3.98499,12.3306,0,7.10059,1142,5,
183.649,3.98987,12.3383,0,7.10059,1142,5,
183.649,3.99048,12.3367,0,7.10059,1142,5,
183.649,3.98987,12.3383,0,7.10059,1142,5,
183.649,3.99323,12.3337,0,7.10059,1142,5,
183.649,3.99506,12.3352,0,7.10059,1142,5,
183.649,3.99506,12.3367,0,7.10059,1142,5,
183.649,3.99506,12.3352,0,7.10059,1142,5,
183.649,4.00024,12.3337,0,7.10059,1142,5,
183.65,3.99994,12.3337,0,7.10059,1142,5,
183.65,3.99933,12.3367,0,7.10059,1142,5,
183.65,4.00085,12.3352,0,7.10059,1142,5,
183.65,4.00513,12.3337,0,7.10059,1142,5,
183.65,4.00482,12.3352,0,7.10059,1142,5,
183.65,4.00482,12.323,0,7.10059,1142,5,
183.65,4.00787,12.3215,0,7.10059,1142,5,
183.65,4.0094,12.3245,0,7.10059,1142,5,
183.65,4.0097,12.3215,0,7.10059,1142,5,
183.65,4.01031,12.3215,0,7.10059,1142,5,
183.65,4.01428,12.3215,0,7.10059,1142,5,
183.65,4.01428,12.3215,0,7.10059,1142,5,
183.65,4.01398,12.3215,0,7.10059,1142,5,
183.65,4.01489,12.3215,0,7.10059,1142,5,
183.65,4.01764,12.323,0,7.10059,1142,5,
183.65,4.01978,12.3215,0,7.10059,1142,5,
183.65,4.01978,12.3215,0,7.10059,1142,5,
183.65,4.02039,12.3215,0,7.10059,1142,5,
183.65,4.01917,12.3245,0,7.10059,1142,5,
183.65,4.02405,12.3215,0,7.10059,1142,5,
183.65,4.02496,12.323,0,7.10059,1142,5,
183.65,4.02435,12.323,0,7.10059,1142,5,
183.65,4.02466,12.3215,0,7.10059,1142,5,
183.65,4.02496,12.3077,0,7.10059,1142,5,
183.65,4.02863,12.3093,0,7.10059,1142,5,
183.65,4.02893,12.3108,0,7.10059,1142,5,
183.65,4.02893,12.3093,0,7.10059,1142,5,
183.65,4.02954,12.3093,0,7.10059,1142,5,
183.65,4.02924,12.3123,0,7.10059,1142,5,
183.65,4.02954,12.3123,0,7.10059,1142,5,
183.651,4.03381,12.3123,0,7.10059,1142,5,
183.651,4.03442,12.3093,0,7.10059,1142,5,
183.651,4.03412,12.3108,0,7.10059,1142,5,
183.651,4.03534,12.3077,0,7.10059,1142,5,
183.651,4.03442,12.3123,0,7.10059,1142,5,
183.651,4.03503,12.3123,0,7.10059,1142,5,
183.651,4.03442,12.3093,0,7.10059,1142,5,
183.651,4.03748,12.3123,0,7.10059,1142,5,
183.651,4.039,12.3093,0,7.10059,1142,5,
183.651,4.039,12.3123,0,7.10059,1142,5,
183.651,4.03931,12.3093,0,7.10059,1142,5,
183.651,4.03931,12.3001,0,7.10059,1142,5,
183.651,4.03961,12.2971,0,7.10059,1142,5,
183.651,4.03961,12.2971,0,7.10059,1142,5,
183.651,4.03931,12.2955,0,7.10059,1142,5,
183.651,4.03931,12.2986,0,7.10059,1142,5,
183.651,4.03961,12.294,0,7.10059,1142,5,
183.651,4.03992,12.2971,0,7.10059,1142,5,
183.651,4.04327,12.3032,0,7.10059,1142,5,
183.651,4.04449,12.2986,0,7.10059,1142,5,
183.651,4.04419,12.3001,0,7.10059,1142,5,
183.651,4.04419,12.2986,0,7.10059,1142,5,
183.651,4.0448,12.2986,0,7.10059,1142,5,
183.651,4.04449,12.2986,0,7.10059,1142,5,
183.651,4.04419,12.294,0,7.10059,1142,5,
183.651,4.04449,12.2986,0,7.10059,1142,5,
183.651,4.04419,12.3001,0,7.10059,1142,5,
183.651,4.0451,12.2986,0,7.10059,1142,5,
183.651,4.04358,12.2971,0,7.10059,1142,5,
183.651,4.04419,12.3001,0,7.10059,1142,5,
183.652,4.04419,12.2833,1.33,7.10059,1142,5,
183.652,4.04388,12.2833,1.33,7.10059,1142,5,
183.652,4.04449,12.2864,1.33,7.10059,1142,5,
183.652,4.04388,12.2849,1.33,7.10059,1142,5,
183.652,4.04419,12.2849,1.33,7.10059,1142,5,
183.652,4.04419,12.2864,1.33,7.10059,1142,5,
183.652,4.0448,12.2879,1.33,7.10059,1142,5,
183.652,4.04449,12.2849,1.33,7.10059,1142,5,
183.652,4.04358,12.2894,1.33,7.10059,1142,5,
183.652,4.04419,12.2849,1.33,7.10059,1142,5,
183.652,4.04388,12.2879,1.33,7.10059,1142,5,
183.652,4.04449,12.2849,1.33,7.10059,1142,5,
183.652,4.0451,12.2864,1.33,7.10059,1142,5,
183.652,4.04449,12.2864,1.33,7.10059,1142,5,
183.652,4.0451,12.2879,1.33,7.10059,1142,5,
183.652,4.04449,12.2879,1.33,7.10059,1142,5,
183.652,4.04449,12.2864,1.33,7.10059,1142,5,
183.652,4.04388,12.2879,1.33,7.10059,1142,5,
183.652,4.0448,12.2742,1.33,7.10059,1142,5,
183.652,4.04419,12.2818,1.33,7.10059,1142,5,
183.652,4.04449,12.2772,1.33,7.10059,1142,5,
183.652,4.03931,12.2726,1.33,7.10059,1142,5,
183.652,4.03931,12.2726,1.33,7.10059,1142,5,
183.652,4.0387,12.2711,1.33,7.10059,1142,5,
183.652,4.039,12.2757,1.33,7.10059,1142,5,
183.652,4.03931,12.2772,1.33,7.10059,1142,5,
183.652,4.0387,12.2726,1.33,7.10059,1142,5,
183.652,4.03931,12.2772,1.33,7.10059,1142,5,
183.652,4.03931,12.2726,1.33,7.10059,1142,5,
183.653,4.03931,12.2742,1.33,7.10059,1142,5,
183.653,4.03931,12.2742,1.33,7.10059,1142,5,
183.653,4.039,12.2742,1.33,7.10059,1142,5,
183.653,4.03961,12.2757,1.33,7.10059,1142,5,
183.653,4.03961,12.2726,1.33,7.10059,1142,5,
183.653,4.03839,12.2742,1.33,7.10059,1142,5,
183.653,4.03503,12.2772,1.33,7.10059,1142,5,
183.653,4.03442,12.262,1.33,7.10059,1142,5,
183.653,4.03412,12.262,1.33,7.10059,1142,5,
183.653,4.03503,12.2635,1.33,7.10059,1142,5,
183.653,4.03412,12.2604,1.33,7.10059,1142,5,
183.653,4.03412,12.2589,1.33,7.10059,1142,5,
183.653,4.03442,12.2635,1.33,7.10059,1142,5,
183.653,4.03412,12.262,1.33,7.10059,1142,5,
183.653,4.03442,12.2604,1.33,7.10059,1142,5,
183.653,4.03442,12.2604,1.33,7.10059,1142,5,
183.653,4.03473,12.262,1.33,7.10059,1142,5,
183.653,4.02985,12.2604,1.33,7.10059,1142,5,
183.653,4.02893,12.2604,1.33,7.10059,1142,5,
183.653,4.02985,12.2604,1.33,7.10059,1142,5,
183.653,4.02924,12.265,1.33,7.10059,1142,5,
183.653,4.02985,12.262,1.33,7.10059,1142,5,
183.653,4.02893,12.2635,1.33,7.10059,1142,5,
183.653,4.02924,12.2604,1.33,7.10059,1142,5,
183.653,4.02954,12.2543,1.33,7.10059,1142,5,
183.653,4.02893,12.2498,1.33,7.10059,1142,5,
183.653,4.02954,12.2513,1.33,7.10059,1142,5,
183.653,4.02924,12.2482,1.33,7.10059,1142,5,
183.653,4.02954,12.2467,1.33,7.10059,1142,5,
183.653,4.02954,12.2482,1.33,7.10059,1142,5,
183.654,4.02466,12.2467,1.33,7.10059,1142,5,
183.654,4.02496,12.2482,1.33,7.10059,1142,5,
183.654,4.02557,12.2467,1.33,7.10059,1142,5,
183.654,4.02435,12.2498,1.33,7.10059,1142,5,
183.654,4.02435,12.2482,1.33,7.10059,1142,5,
183.654,4.02435,12.2498,1.33,7.10059,1142,5,
183.654,4.02466,12.2467,1.33,7.10059,1142,5,
183.654,4.02435,12.2498,1.33,7.10059,1142,5,
183.654,4.02466,12.2498,1.33,7.10059,1142,5,
183.654,4.02435,12.2528,1.33,7.10059,1142,5,
183.654,4.02527,12.2498,1.33,7.10059,1142,5,
183.654,4.02466,12.2467,1.33,7.10059,1142,5,
183.654,4.02466,12.2391,1.33,7.10059,1142,5,
183.654,4.02496,12.2375,1.33,7.10059,1142,5,
183.654,4.02496,12.2375,1.33,7.10059,1142,5,
183.654,4.02496,12.2391,1.33,7.10059,1142,5,
183.654,4.02466,12.2391,1.33,7.10059,1142,5,
183.654,4.02405,12.236,1.33,7.10059,1142,5,
183.654,4.02435,12.2375,1.33,7.10059,1142,5,
183.654,4.02435,12.2375,1.33,7.10059,1142,5,
183.654,4.02466,12.2406,1.33,7.10059,1142,5,
183.654,4.02527,12.2391,1.33,7.10059,1142,5,
183.654,4.01947,12.2391,1.33,7.10059,1142,5,
183.654,4.01917,12.2375,1.33,7.10059,1142,5,
183.654,4.01917,12.2345,1.33,7.10059,1142,5,
183.654,4.01978,12.236,1.33,7.10059,1142,5,
183.654,4.02008,12.236,1.33,7.10059,1142,5,
183.654,4.01978,12.2345,1.33,7.10059,1142,5,
183.654,4.01947,12.236,1.33,7.10059,1142,5,
183.654,4.02008,12.2253,1.33,7.10059,1142,5,
183.655,4.01978,12.2223,1.33,7.10059,1142,5,
183.655,4.01978,12.2253,1.33,7.10059,1142,5,
183.655,4.01947,12.2223,1.33,7.10059,1142,5,
183.655,4.02008,12.2238,1.33,7.10059,1142,5,
183.655,4.01947,12.2253,1.33,7.10059,1142,5,
183.655,4.01917,12.2208,1.33,7.10059,1142,5,
183.655,4.01978,12.2253,1.33,7.10059,1142,5,
183.655,4.01978,12.2223,1.33,7.10059,1142,5,
183.655,4.01947,12.2253,1.33,7.10059,1142,5,
183.655,4.01886,12.2177,1.33,7.10059,1142,5,
183.655,4.02435,12.2238,1.33,7.10059,1142,5,
183.655,4.02466,12.2238,1.33,7.10059,1142,5,
183.655,4.02435,12.2253,1.33,7.10059,1142,5,
183.655,4.02466,12.2253,1.33,7.10059,1142,5,
183.655,4.02435,12.2253,1.33,7.10059,1142,5,
183.655,4.02435,12.2147,1.33,7.10059,1142,5,
183.655,4.02435,12.2086,1.33,7.10059,1142,5,
183.655,4.02466,12.2131,1.33,7.10059,1142,5,
183.655,4.02435,12.2101,1.33,7.10059,1142,5,
183.655,4.02496,12.2116,1.33,7.10059,1142,5,
183.655,4.02466,12.2131,1.33,7.10059,1142,5,
183.655,4.02496,12.2131,1.33,7.10059,1142,5,
183.655,4.02496,12.2116,1.33,7.10059,1142,5,
183.655,4.02466,12.2116,1.33,7.10059,1142,5,
183.655,4.02496,12.2116,1.33,7.10059,1142,5,
183.655,4.02466,12.2116,1.33,7.10059,1142,5,
183.655,4.02405,12.2147,1.33,7.10059,1142,5,
183.655,4.02435,12.2101,1.33,7.10059,1142,5,
183.655,4.02435,12.2131,1.33,7.10059,1142,5,
183.655,4.02527,12.2116,1.33,7.10059,1142,5,
183.655,4.02527,12.2116,1.33,7.10059,1142,5,
183.656,4.02496,12.1979,1.33,7.10059,1142,5,
183.656,4.02435,12.2009,1.33,7.10059,1142,5,
183.656,4.02435,12.2009,1.33,7.10059,1142,5,
183.656,4.02466,12.1994,1.33,7.10059,1142,5,
183.656,4.02435,12.1979,1.33,7.10059,1142,5,
183.656,4.02466,12.1994,1.33,7.10059,1142,5,
183.656,4.02832,12.2025,1.33,7.10059,1142,5,
183.656,4.02954,12.2009,1.33,7.10059,1142,5,
183.656,4.02924,12.1994,1.33,7.10059,1142,5,
183.656,4.02893,12.1994,1.33,7.10059,1142,5,
183.656,4.02893,12.1979,1.33,7.10059,1142,5,
183.656,4.02954,12.1994,1.33,7.10059,1142,5,
183.656,4.02954,12.1979,1.33,7.10059,1142,5,
183.656,4.02924,12.1887,1.33,7.10059,1142,5,
183.656,4.02863,12.1841,1.33,7.10059,1142,5,
183.656,4.02924,12.1887,1.33,7.10059,1142,5,
183.656,4.02954,12.1872,1.33,7.10059,1142,5,
183.656,4.02893,12.1872,1.33,7.10059,1142,5,
183.656,4.02985,12.1887,1.33,7.10059,1142,5,
183.656,4.02924,12.1887,1.33,7.10059,1142,5,
183.656,4.02985,12.1872,1.33,7.10059,1142,5,
183.656,4.02985,12.1857,1.33,7.10059,1142,5,
183.656,4.02924,12.1887,1.33,7.10059,1142,5,
183.656,4.0329,12.1887,1.33,7.10059,1142,5,
183.656,4.03503,12.1857,1.33,7.10059,1142,5,
183.656,4.03473,12.1933,1.33,7.10059,1142,5,
183.656,4.03442,12.178,1.33,7.10059,1142,5,
183.656,4.03412,12.175,1.33,7.10059,1142,5,
183.656,4.03442,12.175,1.33,7.10059,1142,5,
183.656,4.03503,12.1719,1.33,7.10059,1142,5,
183.657,4.03473,12.175,1.33,7.10059,1142,5,
183.657,4.03473,12.1735,1.33,7.10059,1142,5,
183.657,4.03442,12.175,1.33,7.10059,1142,5,
183.657,4.03381,12.175,1.33,7.10059,1142,5,
183.657,4.03442,12.1735,1.33,7.10059,1142,5,
183.657,4.03442,12.178,1.33,7.10059,1142,5,
183.657,4.03381,12.1719,1.33,7.10059,1142,5,
183.657,4.03473,12.175,1.33,7.10059,1142,5,
183.657,4.03961,12.175,1.33,7.10059,1142,5,
183.657,4.039,12.1643,1.33,7.10059,1142,5,
183.657,4.03992,12.1643,1.33,7.10059,1142,5,
183.657,4.03931,12.1597,1.33,7.10059,1142,5,
183.657,4.039,12.1597,1.33,7.10059,1142,5,
183.657,4.03931,12.1643,1.33,7.10059,1142,5,
183.657,4.039,12.1643,1.33,7.10059,1142,5,
183.657,4.03961,12.1613,1.33,7.10059,1142,5,
183.657,4.03961,12.1628,1.33,7.10059,1142,5,
183.657,4.03931,12.1628,1.33,7.10059,1142,5,
183.657,4.039,12.1643,1.33,7.10059,1142,5,
183.657,4.03931,12.1628,1.33,7.10059,1142,5,
183.657,4.039,12.1628,1.33,7.10059,1142,5,
183.657,4.03931,12.1628,1.33,7.10059,1142,5,
183.657,4.039,12.1475,1.33,7.10059,1142,5,
183.657,4.03961,12.1506,1.33,7.10059,1142,5,
183.657,4.03961,12.1521,1.33,7.10059,1142,5,
183.657,4.039,12.1521,1.33,7.10059,1142,5,
183.657,4.03961,12.1521,1.33,7.10059,1142,5,
183.657,4.03992,12.1521,1.33,7.10059,1142,5,
183.657,4.04419,12.149,1.33,7.10059,1142,5,
183.657,4.04388,12.1506,1.33,7.10059,1142,5,
183.658,4.04449,12.1475,1.33,7.10059,1142,5,
183.658,4.04449,12.149,1.33,7.10059,1142,5,
183.658,4.04449,12.1506,1.33,7.10059,1142,5,
183.658,4.0448,12.1475,1.33,7.10059,1142,5,
183.658,4.04449,12.1506,1.33,7.10059,1142,5,
183.658,4.04388,12.1521,1.33,7.10059,1142,5,
183.658,4.0448,12.1414,1.33,7.10059,1142,5,
183.658,4.04419,12.1429,1.33,7.10059,1142,5,
183.658,4.04419,12.1429,1.33,7.10059,1142,5,
183.658,4.0448,12.1368,1.33,7.10059,1142,5,
183.658,4.04419,12.1368,1.33,7.10059,1142,5,
183.658,4.04419,12.1384,1.33,7.10059,1142,5,
183.658,4.0448,12.1414,1.33,7.10059,1142,5,
183.658,4.0448,12.1399,1.33,7.10059,1142,5,
183.658,4.04419,12.1384,1.33,7.10059,1142,5,
183.658,4.04388,12.1384,1.33,7.10059,1142,5,
183.658,4.04358,12.1384,1.33,7.10059,1142,5,
183.658,4.03931,12.1399,1.33,7.10059,1142,5,
183.658,4.03961,12.1399,1.33,7.10059,1142,5,
183.658,4.03992,12.1368,1.33,7.10059,1142,5,
183.658,4.03992,12.1307,1.33,7.10059,1142,5,
183.658,4.039,12.1246,1.33,7.10059,1142,5,
183.658,4.03992,12.1262,1.33,7.10059,1142,5,
183.658,4.03931,12.1246,1.33,7.10059,1142,5,
183.658,4.04022,12.1262,1.33,7.10059,1142,5,
183.658,4.03931,12.1246,1.33,7.10059,1142,5,
183.658,4.03961,12.1262,1.33,7.10059,1142,5,
183.658,4.03931,12.1246,1.33,7.10059,1142,5,
183.658,4.03931,12.1216,1.33,7.10059,1142,5,
183.659,4.03931,12.1277,1.33,7.10059,1142,5,
183.659,4.03961,12.1231,1.33,7.10059,1142,5,
183.659,4.03961,12.1262,1.33,7.10059,1142,5,
183.659,4.03961,12.1292,1.33,7.10059,1142,5,
183.659,4.039,12.1262,1.33,7.10059,1142,5,
183.659,4.03961,12.1246,1.33,7.10059,1142,5,
183.659,4.039,12.1277,1.33,7.10059,1142,5,
183.659,4.03961,12.1155,1.33,7.10059,1142,5,
183.659,4.03931,12.114,1.33,7.10059,1142,5,
183.659,4.039,12.114,1.33,7.10059,1142,5,
183.659,4.039,12.1109,1.33,7.10059,1142,5,
183.659,4.03931,12.1124,1.33,7.10059,1142,5,
183.659,4.03931,12.1155,1.33,7.10059,1142,5,
183.659,4.03961,12.114,1.33,7.10059,1142,5,
183.659,4.03961,12.114,1.33,7.10059,1142,5,
183.659,4.03931,12.1124,1.33,7.10059,1142,5,
183.659,4.039,12.114,1.33,7.10059,1142,5,
183.659,4.03961,12.114,1.33,7.10059,1142,5,
183.659,4.03961,12.114,1.33,7.10059,1142,5,
183.659,4.03931,12.114,1.33,7.10059,1142,5,
183.659,4.03961,12.1124,1.33,7.10059,1142,5,
183.659,4.03931,12.1124,1.33,7.10059,1142,5,
183.659,4.03961,12.1124,1.33,7.10059,1142,5,
183.659,4.03992,12.1033,1.33,7.10059,1142,5,
183.659,4.03931,12.0987,1.33,7.10059,1142,5,
183.659,4.03931,12.1017,1.33,7.10059,1142,5,
183.659,4.03931,12.1017,1.33,7.10059,1142,5,
183.659,4.039,12.1017,1.33,7.10059,1142,5,
183.659,4.03992,12.1033,1.33,7.10059,1142,5,
183.659,4.039,12.0987,1.33,7.10059,1142,5,
183.66,4.03961,12.0972,1.33,7.10059,1142,5,
183.66,4.03931,12.1048,1.33,7.10059,1142,5,
183.66,4.03931,12.0956,1.33,7.10059,1142,5,
183.66,4.03961,12.1033,1.33,7.10059,1142,5,
183.66,4.03931,12.1033,1.33,7.10059,1142,5,
183.66,4.039,12.1033,1.33,7.10059,1142,5,
183.66,4.03961,12.1033,1.33,7.10059,1142,5,
183.66,4.04358,12.1017,1.33,7.10059,1142,5,
183.66,4.04449,12.1017,1.33,7.10059,1142,5,
183.66,4.04388,12.0911,1.33,7.10059,1142,5,
183.66,4.04388,12.0865,1.33,7.10059,1142,5,
183.66,4.04388,12.0911,1.33,7.10059,1142,5,
183.66,4.04419,12.0865,1.33,7.10059,1142,5,
183.66,4.04419,12.0911,1.33,7.10059,1142,5,
183.66,4.04449,12.0895,1.33,7.10059,1142,5,
183.66,4.04419,12.088,1.33,7.10059,1142,5,
183.66,4.0448,12.0941,1.33,7.10059,1142,5,
183.66,4.04449,12.0911,1.33,7.10059,1142,5,
183.66,4.04449,12.088,1.33,7.10059,1142,5,
183.66,4.0448,12.0926,1.33,7.10059,1142,5,
183.66,4.0448,12.088,1.33,7.10059,1142,5,
183.66,4.0448,12.0926,1.33,7.10059,1142,5,
183.66,4.0448,12.085,1.33,7.10059,1142,5,
183.66,4.0451,12.088,1.33,7.10059,1142,5,
183.66,4.0448,12.0895,1.33,7.10059,1142,5,
183.66,4.0448,12.088,1.33,7.10059,1142,5,
183.66,4.04541,12.0804,1.33,7.10059,1142,5,
183.66,4.04541,12.0773,1.33,7.10059,1142,5,
183.66,4.04449,12.0789,1.33,7.10059,1142,5,
183.66,4.04968,12.0743,1.33,7.10059,1142,5,
183.661,4.04938,12.0728,1.33,7.10059,1142,5,
183.661,4.04968,12.0773,1.33,7.10059,1142,5,
183.661,4.04938,12.0789,1.33,7.10059,1142,5,
183.661,4.04938,12.0773,1.33,7.10059,1142,5,
183.661,4.04846,12.0773,1.33,7.10059,1142,5,
183.661,4.04907,12.0743,1.33,7.10059,1142,5,
183.661,4.04877,12.0773,1.33,7.10059,1142,5,
183.661,4.04877,12.0773,1.33,7.10059,1142,5,
183.661,4.04846,12.0789,1.33,7.10059,1142,5,
183.661,4.04816,12.0773,1.33,7.10059,1142,5,
183.661,4.04877,12.0773,1.33,7.10059,1142,5,
183.661,4.04785,12.0789,1.33,7.10059,1142,5,
183.661,4.04846,12.0773,1.33,7.10059,1142,5,
183.661,4.04907,12.0789,1.33,7.10059,1142,5,
183.661,4.05334,12.0773,1.33,7.10059,1142,5,
183.661,4.05365,12.0636,1.33,7.10059,1142,5,
183.661,4.05396,12.0667,1.33,7.10059,1142,5,
183.661,4.05365,12.0621,1.33,7.10059,1142,5,
183.661,4.05396,12.0636,1.33,7.10059,1142,5,
183.661,4.05396,12.0682,1.33,7.10059,1142,5,
183.661,4.05365,12.0651,1.33,7.10059,1142,5,
183.661,4.05365,12.0667,1.33,7.10059,1142,5,
183.661,4.05304,12.0621,1.33,7.10059,1142,5,
183.661,4.05334,12.0636,1.33,7.10059,1142,5,
183.661,4.05518,12.0621,1.33,7.10059,1142,5,
183.661,4.05396,12.0651,1.33,7.10059,1142,5,
183.661,4.05365,12.0682,1.33,7.10059,1142,5,
183.661,4.05365,12.0651,1.33,7.10059,1142,5,
183.661,4.05426,12.0651,1.33,7.10059,1142,5,
183.661,4.05853,12.0651,1.33,7.10059,1142,5,
183.661,4.05914,12.0667,1.33,7.10059,1142,5,
183.662,4.05853,12.0667,1.33,7.10059,1142,5,
183.662,4.05792,12.0667,1.33,7.10059,1142,5,
183.662,4.05884,12.0667,1.33,7.10059,1142,5,
183.662,4.05884,12.0651,1.33,7.10059,1142,5,
183.662,4.05914,12.0636,1.33,7.10059,1142,5,
183.662,4.05884,12.0575,1.33,7.10059,1142,5,
183.662,4.05884,12.0544,1.33,7.10059,1142,5,
183.662,4.05853,12.0544,1.33,7.10059,1142,5,
183.662,4.05914,12.0514,1.33,7.10059,1142,5,
183.662,4.05914,12.0514,1.33,7.10059,1142,5,
183.662,4.05853,12.0544,1.33,7.10059,1142,5,
183.662,4.05853,12.0529,1.33,7.10059,1142,5,
183.662,4.05853,12.0514,1.33,7.10059,1142,5,
183.662,4.06311,12.0529,1.33,7.10059,1142,5,
183.662,4.06342,12.0514,1.33,7.10059,1142,5,
183.662,4.06372,12.0514,1.33,7.10059,1142,5,
183.662,4.06372,12.0499,1.33,7.10059,1142,5,
183.662,4.06311,12.0529,1.33,7.10059,1142,5,
183.662,4.06372,12.0499,1.33,7.10059,1142,5,
183.662,4.06342,12.0483,1.33,7.10059,1142,5,
183.662,4.06372,12.0499,1.33,7.10059,1142,5,
183.662,4.06372,12.0529,1.33,7.10059,1142,5,
183.662,4.06403,12.0514,1.33,7.10059,1142,5,
183.662,4.06342,12.0514,1.33,7.10059,1142,5,
183.662,4.06342,12.0529,1.33,7.10059,1142,5,
183.662,4.06342,12.0514,1.33,7.10059,1142,5,
183.662,4.06433,12.0483,1.33,7.10059,1142,5,
183.662,4.0686,12.0544,1.33,7.10059,1142,5,
183.662,4.0686,12.0544,1.33,7.10059,1142,5,
183.662,4.0683,12.0499,1.33,7.10059,1142,5,
183.663,4.0683,12.0422,1.33,7.10059,1142,5,
183.663,4.06891,12.0392,1.33,7.10059,1142,5,
183.663,4.0686,12.0422,1.33,7.10059,1142,5,
183.663,4.06891,12.0392,1.33,7.10059,1142,5,
183.663,4.0686,12.0438,1.33,7.10059,1142,5,
183.663,4.0686,12.0392,1.33,7.10059,1142,5,
183.663,4.06891,12.0392,1.33,7.10059,1142,5,
183.663,4.0683,12.0392,1.33,7.10059,1142,5,
183.663,4.0686,12.0377,1.33,7.10059,1142,5,
183.663,4.07227,12.0392,1.33,7.10059,1142,5,
183.663,4.07349,12.0377,1.33,7.10059,1142,5,
183.663,4.07379,12.0407,1.33,7.10059,1142,5,
183.663,4.0741,12.0438,1.33,7.10059,1142,5,
183.663,4.07379,12.0377,1.33,7.10059,1142,5,
183.663,4.07379,12.0407,1.33,7.10059,1142,5,
183.663,4.07379,12.0407,1.33,7.10059,1142,5,
183.663,4.07379,12.0392,1.33,7.10059,1142,5,
183.663,4.07379,12.0407,1.33,7.10059,1142,5,
183.663,4.07379,12.0407,1.33,7.10059,1142,5,
183.663,4.0741,12.0407,1.33,7.10059,1142,5,
183.663,4.0744,12.0438,1.33,7.10059,1142,5,
183.663,4.07776,12.0407,1.33,7.10059,1142,5,
183.663,4.07898,12.0407,1.33,7.10059,1142,5,
183.663,4.07867,12.0392,1.33,7.10059,1142,5,
183.663,4.07806,12.0392,1.33,7.10059,1142,5,
183.663,4.07837,12.0407,1.33,7.10059,1142,5,
183.663,4.07898,12.0407,1.33,7.10059,1142,5,
183.663,4.07867,12.027,1.33,7.10059,1142,5,
183.663,4.07867,12.0285,1.33,7.10059,1142,5,
183.663,4.07837,12.0285,1.33,7.10059,1142,5,
183.664,4.07837,12.03,1.33,7.10059,1142,5,
183.664,4.07898,12.0285,1.33,7.10059,1142,5,
183.664,4.07928,12.027,1.33,7.10059,1142,5,
183.664,4.08356,12.027,1.33,7.10059,1142,5,
183.664,4.08325,12.027,1.33,7.10059,1142,5,
183.664,4.08325,12.0316,1.33,7.10059,1142,5,
183.664,4.08356,12.0255,1.33,7.10059,1142,5,
183.664,4.08295,12.027,1.33,7.10059,1142,5,
183.664,4.08386,12.0239,1.33,7.10059,1142,5,
183.664,4.08295,12.03,1.33,7.10059,1142,5,
183.664,4.08386,12.0255,1.33,7.10059,1142,5,
183.664,4.08356,12.0285,1.33,7.10059,1142,5,
183.664,4.08386,12.0255,1.33,7.10059,1142,5,
183.664,4.08386,12.027,1.33,7.10059,1142,5,
183.664,4.0863,12.0255,1.33,7.10059,1142,5,
183.664,4.08875,12.0285,1.33,7.10059,1142,5,
183.664,4.08813,12.03,1.33,7.10059,1142,5,
183.664,4.08813,12.03,1.33,7.10059,1142,5,
183.664,4.08844,12.0255,1.33,7.10059,1142,5,
183.664,4.08875,12.0285,1.33,7.10059,1142,5,
183.664,4.08813,12.03,1.33,7.10059,1142,5,
183.664,4.08813,12.0255,1.33,7.10059,1142,5,
183.664,4.08905,12.0285,1.33,7.10059,1142,5,
183.664,4.08844,12.0255,1.33,7.10059,1142,5,
183.664,4.08813,12.0148,1.33,7.10059,1142,5,
183.664,4.08844,12.0193,1.33,7.10059,1142,5,
183.664,4.08875,12.0178,1.33,7.10059,1142,5,
183.664,4.0918,12.0163,1.33,7.10059,1142,5,
183.664,4.09332,12.0148,1.33,7.10059,1142,5,
183.665,4.09393,12.0209,1.33,7.10059,1142,5,
183.665,4.09332,12.0163,1.33,7.10059,1142,5,
183.665,4.09332,12.0163,1.33,7.10059,1142,5,
183.665,4.09271,12.0163,1.33,7.10059,1142,5,
183.665,4.09302,12.0148,1.33,7.10059,1142,5,
183.665,4.09332,12.0163,1.33,7.10059,1142,5,
183.665,4.09302,12.0163,1.33,7.10059,1142,5,
183.665,4.09302,12.0163,1.33,7.10059,1142,5,
183.665,4.09302,12.0163,1.33,7.10059,1142,5,
183.665,4.09332,12.0132,1.33,7.10059,1142,5,
183.665,4.09271,12.0193,1.33,7.10059,1142,5,
183.665,4.09241,12.0132,1.33,7.10059,1142,5,
183.665,4.09302,12.0178,1.33,7.10059,1142,5,
183.665,4.09241,12.0163,1.33,7.10059,1142,5,
183.665,4.09363,12.0163,1.33,7.10059,1142,5,
183.665,4.09454,12.0163,1.33,7.10059,1142,5,
183.665,4.09821,12.0193,1.33,7.10059,1142,5,
183.665,4.0979,12.0178,1.33,7.10059,1142,5,
183.665,4.0979,12.0163,1.33,7.10059,1142,5,
183.665,4.09851,12.0056,1.33,7.10059,1142,5,
183.665,4.09882,12.0026,1.33,7.10059,1142,5,
183.665,4.09821,12.001,1.33,7.10059,1142,5,
183.665,4.0979,12.0041,1.33,7.10059,1142,5,
183.665,4.09821,12.0056,1.33,7.10059,1142,5,
183.665,4.0979,12.0026,1.33,7.10059,1142,5,
183.665,4.09851,12.0041,1.33,7.10059,1142,5,
183.665,4.0976,12.0026,1.33,7.10059,1142,5,
183.665,4.0976,12.0041,1.33,7.10059,1142,5,
183.665,4.09821,12.0041,1.33,7.10059,1142,5,
183.665,4.09882,12.001,1.33,7.10059,1142,5,
183.666,4.0979,12.0056,1.33,7.10059,1142,5,
183.666,4.09821,12.0041,1.33,7.10059,1142,5,
183.666,4.09851,12.0041,1.33,7.10059,1142,5,
183.666,4.0979,11.9995,1.33,7.10059,1142,5,
183.666,4.09851,12.001,1.33,7.10059,1142,5,
183.666,4.0976,12.0056,1.33,7.10059,1142,5,
183.666,4.09821,12.0026,1.33,7.10059,1142,5,
183.666,4.0979,12.0056,1.33,7.10059,1142,5,
183.666,4.09821,12.0026,1.33,7.10059,1142,5,
183.666,4.0976,12.0026,1.33,7.10059,1142,5,
183.666,4.09821,12.0071,1.33,7.10059,1142,5,
183.666,4.09729,11.9949,1.33,7.10059,1142,5,
183.666,4.09821,11.9919,1.33,7.10059,1142,5,
183.666,4.0979,11.9919,1.33,7.10059,1142,5,
183.666,4.09729,11.9904,1.33,7.10059,1142,5,
183.666,4.09271,11.9934,1.33,7.10059,1142,5,
183.666,4.09302,11.9919,1.33,7.10059,1142,5,
183.666,4.09302,11.9904,1.33,7.10059,1142,5,
183.666,4.09363,11.9904,1.33,7.10059,1142,5,
183.666,4.09332,11.9904,1.33,7.10059,1142,5,
183.666,4.09363,11.9919,1.33,7.10059,1142,5,
183.666,4.09332,11.9919,1.33,7.10059,1142,5,
183.666,4.09332,11.9919,1.33,7.10059,1142,5,
183.666,4.09332,11.9888,1.33,7.10059,1142,5,
183.666,4.09332,11.9919,1.33,7.10059,1142,5,
183.666,4.09332,11.9934,1.33,7.10059,1142,5,
183.666,4.09241,11.9919,1.33,7.10059,1142,5,
183.666,4.08844,11.9919,1.33,7.10059,1142,5,
183.666,4.08813,11.9904,1.33,7.10059,1142,5,
183.666,4.08813,11.9904,1.33,7.10059,1142,5,
183.667,4.08813,11.9934,1.33,7.10059,1142,5,
183.667,4.08844,11.9766,1.33,7.10059,1142,5,
183.667,4.08844,11.9797,1.33,7.10059,1142,5,
183.667,4.08844,11.9797,1.33,7.10059,1142,5,
183.667,4.08813,11.9797,1.33,7.10059,1142,5,
183.667,4.08356,11.9797,1.33,7.10059,1142,5,
183.667,4.08325,11.9812,1.33,7.10059,1142,5,
183.667,4.08356,11.9797,1.33,7.10059,1142,5,
183.667,4.08386,11.9766,1.33,7.10059,1142,5,
183.667,4.08325,11.9782,1.33,7.10059,1142,5,
183.667,4.08356,11.9797,1.33,7.10059,1142,5,
183.667,4.08325,11.9797,1.33,7.10059,1142,5,
183.667,4.07867,11.9797,1.33,7.10059,1142,5,
183.667,4.07837,11.9782,1.33,7.10059,1142,5,
183.667,4.07867,11.9782,1.33,7.10059,1142,5,
183.667,4.07867,11.9797,1.33,7.10059,1142,5,
183.667,4.07898,11.9797,1.33,7.10059,1142,5,
183.667,4.07898,11.9782,1.33,7.10059,1142,5,
183.667,4.0741,11.9766,1.33,7.10059,1142,5,
183.667,4.07349,11.9782,1.33,7.10059,1142,5,
183.667,4.07349,11.9797,1.33,7.10059,1142,5,
183.667,4.07349,11.9797,1.33,7.10059,1142,5,
183.667,4.0744,11.9659,1.33,7.10059,1142,5,
183.667,4.0686,11.9629,1.33,7.10059,1142,5,
183.667,4.0686,11.9659,1.33,7.10059,1142,5,
183.667,4.06891,11.9644,1.33,7.10059,1142,5,
183.667,4.0683,11.9675,1.33,7.10059,1142,5,
183.667,4.0683,11.9675,1.33,7.10059,1142,5,
183.667,4.06464,11.9705,1.33,7.10059,1142,5,
183.667,4.06433,11.9675,1.33,7.10059,1142,5,
183.667,4.06372,11.9675,1.33,7.10059,1142,5,
183.668,4.06342,11.9659,1.33,7.10059,1142,5,
183.668,4.06464,11.9659,1.33,7.10059,1142,5,
183.668,4.05914,11.9659,1.33,7.10059,1142,5,
183.668,4.05853,11.9675,1.33,7.10059,1142,5,
183.668,4.05853,11.969,1.33,7.10059,1142,5,
183.668,4.05884,11.9644,1.33,7.10059,1142,5,
183.668,4.05579,11.9675,1.33,7.10059,1142,5,
183.668,4.05396,11.9659,1.33,7.10059,1142,5,
183.668,4.05396,11.9659,1.33,7.10059,1142,5,
183.668,4.05396,11.9675,1.33,7.10059,1142,5,
183.668,4.05365,11.9659,1.33,7.10059,1142,5,
183.668,4.04907,11.9644,1.33,7.10059,1142,5,
183.668,4.04816,11.9659,1.33,7.10059,1142,5,
183.668,4.04999,11.9537,1.33,7.10059,1142,5,
183.668,4.04907,11.9553,1.33,7.10059,1142,5,
183.668,4.04388,11.9537,1.33,7.10059,1142,5,
183.668,4.04449,11.9537,1.33,7.10059,1142,5,
183.668,4.04449,11.9537,1.33,7.10059,1142,5,
183.668,4.04358,11.9553,1.33,7.10059,1142,5,
183.668,4.03931,11.9553,1.33,7.10059,1142,5,
183.668,4.039,11.9553,1.33,7.10059,1142,5,
183.668,4.03961,11.9522,1.33,7.10059,1142,5,
183.668,4.03595,11.9492,1.33,7.10059,1142,5,
183.668,4.03412,11.9522,1.33,7.10059,1142,5,
183.668,4.03442,11.9553,1.33,7.10059,1142,5,
183.668,4.03412,11.9522,1.33,7.10059,1142,5,
183.668,4.02954,11.9522,1.33,7.10059,1142,5,
183.668,4.02954,11.9583,1.33,7.10059,1142,5,
183.668,4.02954,11.9537,1.33,7.10059,1142,5,
183.668,4.02618,11.9537,1.33,7.10059,1142,5,
183.669,4.02405,11.9522,1.33,7.10059,1142,5,
183.669,4.02466,11.9553,1.33,7.10059,1142,5,
183.669,4.02435,11.9553,1.33,7.10059,1142,5,
183.669,4.01917,11.9537,1.33,7.10059,1142,5,
183.669,4.01947,11.94,1.33,7.10059,1142,5,
183.669,4.02039,11.9415,1.33,7.10059,1142,5,
183.669,4.01489,11.9415,1.33,7.10059,1142,5,
183.669,4.01489,11.9385,1.33,7.10059,1142,5,
183.669,4.01428,11.94,1.33,7.10059,1142,5,
183.669,4.01398,11.9446,1.33,7.10059,1142,5,
183.669,4.00909,11.9385,1.33,7.10059,1142,5,
183.669,4.0097,11.9415,1.33,7.10059,1142,5,
183.669,4.0094,11.9431,1.33,7.10059,1142,5,
183.669,4.00482,11.94,1.33,7.10059,1142,5,
183.669,4.00482,11.9431,1.33,7.10059,1142,5,
183.669,4.00543,11.9415,1.33,7.10059,1142,5,
183.669,4.00024,11.9431,1.33,7.10059,1142,5,
183.669,4.00024,11.9446,1.33,7.10059,1142,5,
183.669,3.99963,11.9446,1.33,7.10059,1142,5,
183.669,3.99506,11.9415,1.33,7.10059,1142,5,
183.669,3.99536,11.9415,1.33,7.10059,1142,5,
183.669,3.99536,11.9431,1.33,7.10059,1142,5,
183.669,3.99048,11.9415,0,7.10059,1142,5,
183.669,3.98987,11.94,0,7.10059,1142,5,
183.669,3.99078,11.94,0,7.10059,1142,5,
183.669,3.9856,11.9278,0,7.10059,1142,5,
183.669,3.98499,11.9278,0,7.10059,1142,5,
183.669,3.98529,11.9293,0,7.10059,1142,5,
183.669,3.98071,11.9308,0,7.10059,1142,5,
183.669,3.98071,11.9293,0,7.10059,1142,5,
183.67,3.98102,11.9293,0,7.10059,1142,5,
183.67,3.97614,11.9308,0,7.10059,1142,5,
183.67,3.97522,11.9293,0,7.10059,1142,5,
183.67,3.97522,11.9278,0,7.10059,1142,5,
183.67,3.97125,11.9293,0,7.10059,1142,5,
183.67,3.97095,11.9278,0,7.10059,1142,5,
183.67,3.97034,11.9278,0,7.10059,1142,5,
183.67,3.96606,11.9263,0,7.10059,1142,5,
183.67,3.96606,11.9293,0,7.10059,1142,5,
183.67,3.96576,11.9293,0,7.10059,1142,5,
183.67,3.96088,11.9308,0,7.10059,1142,5,
183.67,3.96027,11.9308,0,7.10059,1142,5,
183.67,3.96088,11.9293,0,7.10059,1142,5,
183.67,3.95599,11.9293,0,7.10059,1142,5,
183.67,3.9566,11.9293,0,7.10059,1142,5,
183.67,3.95599,11.9278,0,7.10059,1142,5,
183.67,3.9505,11.9141,0,7.10059,1142,5,
183.67,3.95142,11.9156,0,7.10059,1142,5,
183.67,3.94775,11.9186,0,7.10059,1142,5,
183.67,3.94684,11.9202,0,7.10059,1142,5,
183.67,3.94592,11.9141,0,7.10059,1142,5,
183.67,3.94257,11.9186,0,7.10059,1142,5,
183.67,3.94135,11.9171,0,7.10059,1142,5,
183.67,3.94165,11.9186,0,7.10059,1142,5,
183.67,3.93677,11.9141,0,7.10059,1142,5,
183.67,3.93646,11.9171,0,7.10059,1142,5,
183.67,3.93646,11.9171,0,7.10059,1142,5,
183.67,3.93097,11.9171,0,7.10059,1142,5,
183.67,3.9325,11.9156,0,7.10059,1142,5,
183.671,3.92731,11.9186,0,7.10059,1142,5,
183.671,3.92639,11.9186,0,7.10059,1142,5,
183.671,3.927,11.9156,0,7.10059,1142,5,
183.671,3.92212,11.9171,0,7.10059,1142,5,
183.671,3.92181,11.9171,0,7.10059,1142,5,
183.671,3.92151,11.9171,0,7.10059,1142,5,
183.671,3.91693,11.9171,0,7.10059,1142,5,
183.671,3.91663,11.9186,0,7.10059,1142,5,
183.671,3.91296,11.908,0,7.10059,1142,5,
183.671,3.91174,11.9034,0,7.10059,1142,5,
183.671,3.91144,11.9019,0,7.10059,1142,5,
183.671,3.90686,11.9049,0,7.10059,1142,5,
183.671,3.90747,11.9049,0,7.10059,1142,5,
183.671,3.90594,11.9049,0,7.10059,1142,5,
183.671,3.90259,11.9034,0,7.10059,1142,5,
183.671,3.90228,11.9034,0,7.10059,1142,5,
183.671,3.89771,11.9049,0,7.10059,1142,5,
183.671,3.89771,11.9034,0,7.10059,1142,5,
183.671,3.89801,11.9064,0,7.10059,1142,5,
183.671,3.89252,11.9034,0,7.10059,1142,5,
183.671,3.89252,11.9064,0,7.10059,1142,5,
183.671,3.88916,11.9064,0,7.10059,1142,5,
183.671,3.88733,11.9019,0,7.10059,1142,5,
183.671,3.88763,11.9049,0,7.10059,1142,5,
183.671,3.88306,11.9034,0,7.10059,1142,5,
183.671,3.88214,11.9064,0,7.10059,1142,5,
183.671,3.88275,11.908,0,7.10059,1142,5,
183.671,3.87756,11.908,0,7.10059,1142,5,
183.671,3.87848,11.9019,0,7.10059,1142,5,
183.671,3.87268,11.8927,0,7.10059,1142,5,
183.672,3.87268,11.8912,0,7.10059,1142,5,
183.672,3.87299,11.8958,0,7.10059,1142,5,
183.672,3.86749,11.8912,0,7.10059,1142,5,
183.672,3.8681,11.8912,0,7.10059,1142,5,
183.672,3.86414,11.8942,0,7.10059,1142,5,
183.672,3.86261,11.8927,0,7.10059,1142,5,
183.672,3.86261,11.8927,0,7.10059,1142,5,
183.672,3.85864,11.8912,0,7.10059,1142,5,
183.672,3.85773,11.8927,0,7.10059,1142,5,
183.672,3.85742,11.8927,0,7.10059,1142,5,
183.672,3.85254,11.8942,0,7.10059,1142,5,
183.672,3.85345,11.8927,0,7.10059,1142,5,
183.672,3.84979,11.8912,0,7.10059,1142,5,
183.672,3.84796,11.8927,0,7.10059,1142,5,
183.672,3.84827,11.8912,0,7.10059,1142,5,
183.672,3.84277,11.8912,0,7.10059,1142,5,
183.672,3.84308,11.882,0,7.10059,1142,5,
183.672,3.84338,11.8835,0,7.10059,1142,5,
183.672,3.8382,11.8805,0,7.10059,1142,5,
183.672,3.83881,11.8805,0,7.10059,1142,5,
183.672,3.83423,11.8805,0,7.10059,1142,5,
183.672,3.83362,11.8805,0,7.10059,1142,5,
183.672,3.83301,11.8805,0,7.10059,1142,5,
183.672,3.82904,11.879,0,7.10059,1142,5,
183.672,3.82843,11.8835,0,7.10059,1142,5,
183.672,3.82874,11.8805,0,7.10059,1142,5,
183.672,3.82416,11.879,0,7.10059,1142,5,
183.672,3.82324,11.8805,0,7.10059,1142,5,
183.672,3.82324,11.882,0,7.10059,1142,5,
183.672,3.81897,11.882,0,7.10059,1142,5,
183.673,3.81897,11.8805,0,7.10059,1142,5,
183.673,3.81897,11.8713,0,7.10059,1142,5,
183.673,3.81409,11.8683,0,7.10059,1142,5,
183.673,3.81439,11.8698,0,7.10059,1142,5,
183.673,3.81439,11.8729,0,7.10059,1142,5,
183.673,3.8092,11.8713,0,7.10059,1142,5,
183.673,3.81012,11.8683,0,7.10059,1142,5,
183.673,3.80981,11.8652,0,7.10059,1142,5,
183.673,3.80463,11.8713,0,7.10059,1142,5,
183.673,3.80463,11.8668,0,7.10059,1142,5,
183.673,3.80402,11.8698,0,7.10059,1142,5,
183.673,3.79974,11.8683,0,7.10059,1142,5,
183.673,3.79974,11.8713,0,7.10059,1142,5,
183.673,3.79974,11.8683,0,7.10059,1142,5,
183.673,3.79456,11.8698,0,7.10059,1142,5,
183.673,3.79425,11.8713,0,7.10059,1142,5,
183.673,3.79395,11.8698,0,7.10059,1142,5,
183.673,3.78998,11.8576,0,7.10059,1142,5,
183.673,3.78906,11.8591,0,7.10059,1142,5,
183.673,3.78998,11.8546,0,7.10059,1142,5,
183.673,3.78845,11.8576,0,7.10059,1142,5,
183.673,3.78387,11.853,0,7.10059,1142,5,
183.673,3.78387,11.8576,0,7.10059,1142,5,
183.673,3.78387,11.8576,0,7.10059,1142,5,
183.673,3.77869,11.8576,0,7.10059,1142,5,
183.673,3.7793,11.8591,0,7.10059,1142,5,
183.673,3.7796,11.8576,0,7.10059,1142,5,
183.673,3.7793,11.8576,0,7.10059,1142,5,
183.673,3.7793,11.8561,0,7.10059,1142,5,
183.673,3.7793,11.8546,0,7.10059,1142,5,
183.673,3.77869,11.8561,0,7.10059,1142,5,
183.674,3.77808,11.8591,0,7.10059,1142,5,
183.674,3.7793,11.8591,0,7.10059,1142,5,
183.674,3.77899,11.8561,0,7.10059,1142,5,
183.674,3.7793,11.8607,0,7.10059,1142,5,
183.674,3.7796,11.8454,0,7.10059,1142,5,
183.674,3.77899,11.8423,0,7.10059,1142,5,
183.674,3.7793,11.8454,0,7.10059,1142,5,
183.674,3.7619,11.8485,2.516,7.10059,1142,5,
183.674,3.75946,11.8439,2.516,7.10059,1142,5,
183.674,3.75549,11.8423,2.516,7.10059,1142,5,
183.674,3.75519,11.8439,2.516,7.10059,1142,5,
183.674,3.75549,11.8485,2.516,7.10059,1142,5,
183.674,3.75061,11.8423,2.516,7.10059,1142,5,
183.674,3.75,11.8439,2.516,7.10059,1142,5,
183.674,3.74969,11.8469,2.516,7.10059,1142,5,
183.674,3.74695,11.8439,2.516,7.10059,1142,5,
183.674,3.74481,11.8454,2.516,7.10059,1142,5,
183.674,3.74573,11.8439,2.516,7.10059,1142,5,
183.674,3.74481,11.8454,2.516,7.10059,1142,5,
183.674,3.74054,11.8408,2.516,7.10059,1142,5,
183.674,3.74084,11.8454,2.516,7.10059,1142,5,
183.674,3.74023,11.8439,2.516,7.10059,1142,5,
183.674,3.73535,11.8317,2.516,7.10059,1142,5,
183.674,3.73535,11.8301,2.516,7.10059,1142,5,
183.674,3.73627,11.8301,2.516,7.10059,1142,5,
183.674,3.73047,11.8362,2.516,7.10059,1142,5,
183.674,3.73138,11.8301,2.516,7.10059,1142,5,
183.674,3.73077,11.8332,2.516,7.10059,1142,5,
183.674,3.72528,11.8332,2.516,7.10059,1142,5,
183.674,3.72589,11.8317,2.516,7.10059,1142,5,
183.675,3.72589,11.8301,2.516,7.10059,1142,5,
183.675,3.7204,11.8317,2.516,7.10059,1142,5,
183.675,3.7204,11.8332,2.516,7.10059,1142,5,
183.675,3.72101,11.8332,2.516,7.10059,1142,5,
183.675,3.71613,11.8301,2.516,7.10059,1142,5,
183.675,3.71552,11.8332,2.516,7.10059,1142,5,
183.675,3.7149,11.8301,2.516,7.10059,1142,5,
183.675,3.71155,11.8317,2.516,7.10059,1142,5,
183.675,3.71124,11.8317,2.516,7.10059,1142,5,
183.675,3.71063,11.8317,2.516,7.10059,1142,5,
183.675,3.70605,11.8317,2.516,7.10059,1142,5,
183.675,3.70667,11.8347,2.516,7.10059,1142,5,
183.675,3.70575,11.8195,2.516,7.10059,1142,5,
183.675,3.70117,11.8195,2.516,7.10059,1142,5,
183.675,3.70056,11.821,2.516,7.10059,1142,5,
183.675,3.69812,11.821,2.516,7.10059,1142,5,
183.675,3.69598,11.8195,2.516,7.10059,1142,5,
183.675,3.6969,11.8195,2.516,7.10059,1142,5,
183.675,3.69202,11.8225,2.516,7.10059,1142,5,
183.675,3.6908,11.8195,2.516,7.10059,1142,5,
183.675,3.69171,11.824,2.516,7.10059,1142,5,
183.675,3.68591,11.8225,2.516,7.10059,1142,5,
183.675,3.68561,11.821,2.516,7.10059,1142,5,
183.675,3.6853,11.8225,2.516,7.10059,1142,5,
183.675,3.68164,11.821,2.516,7.10059,1142,5,
183.675,3.68195,11.821,2.516,7.10059,1142,5,
183.675,3.67676,11.8195,2.516,7.10059,1142,5,
183.675,3.67676,11.8195,2.516,7.10059,1142,5,
183.675,3.67645,11.8179,2.516,7.10059,1142,5,
183.675,3.67249,11.8225,2.516,7.10059,1142,5,
183.676,3.67157,11.821,2.516,7.10059,1142,5,
183.676,3.67126,11.8179,2.516,7.10059,1142,5,
183.676,3.66669,11.821,2.516,7.10059,1142,5,
183.676,3.66669,11.8088,2.516,7.10059,1142,5,
183.676,3.66241,11.8073,2.516,7.10059,1142,5,
183.676,3.6618,11.8103,2.516,7.10059,1142,5,
183.676,3.6618,11.8057,2.516,7.10059,1142,5,
183.676,3.65784,11.8057,2.516,7.10059,1142,5,
183.676,3.65753,11.8103,2.516,7.10059,1142,5,
183.676,3.65662,11.8042,2.516,7.10059,1142,5,
183.676,3.65234,11.8057,2.516,7.10059,1142,5,
183.676,3.65265,11.8073,2.516,7.10059,1142,5,
183.676,3.64899,11.8103,2.516,7.10059,1142,5,
183.676,3.64685,11.8103,2.516,7.10059,1142,5,
183.676,3.64716,11.8073,2.516,7.10059,1142,5,
183.676,3.64258,11.8073,2.516,7.10059,1142,5,
183.676,3.64258,11.8073,2.516,7.10059,1142,5,
183.676,3.64197,11.8103,2.516,7.10059,1142,5,
183.676,3.63678,11.8118,2.516,7.10059,1142,5,
183.676,3.6377,11.8103,2.516,7.10059,1142,5,
183.676,3.63647,11.8073,2.516,7.10059,1142,5,
183.676,3.6322,11.8057,2.516,7.10059,1142,5,
183.676,3.63281,11.8088,2.516,7.10059,1142,5,
183.676,3.62915,11.8057,2.516,7.10059,1142,5,
183.676,3.62793,11.8103,2.516,7.10059,1142,5,
183.676,3.62793,11.8057,2.516,7.10059,1142,5,
183.676,3.62274,11.8027,2.516,7.10059,1142,5,
183.676,3.62213,11.795,2.516,7.10059,1142,5,
183.676,3.62305,11.795,2.516,7.10059,1142,5,
183.677,3.61786,11.795,2.516,7.10059,1142,5,
183.677,3.61786,11.7966,2.516,7.10059,1142,5,
183.677,3.61755,11.7935,2.516,7.10059,1142,5,
183.677,3.61328,11.7966,2.516,7.10059,1142,5,
183.677,3.61298,11.7966,2.516,7.10059,1142,5,
183.677,3.61298,11.7966,2.516,7.10059,1142,5,
183.677,3.60809,11.795,2.516,7.10059,1142,5,
183.677,3.60779,11.7996,2.516,7.10059,1142,5,
183.677,3.6087,11.7966,2.516,7.10059,1142,5,
183.677,3.60352,11.7966,2.516,7.10059,1142,5,
183.677,3.60291,11.7935,2.516,7.10059,1142,5,
183.677,3.6026,11.7981,2.516,7.10059,1142,5,
183.677,3.59833,11.7966,2.516,7.10059,1142,5,
183.677,3.59833,11.7981,2.516,7.10059,1142,5,
183.677,3.59833,11.7966,2.516,7.10059,1142,5,
183.677,3.59406,11.7981,2.516,7.10059,1142,5,
183.677,3.59314,11.7966,2.516,7.10059,1142,5,
183.677,3.59375,11.795,2.516,7.10059,1142,5,
183.677,3.58887,11.7981,2.516,7.10059,1142,5,
183.677,3.58826,11.7981,2.516,7.10059,1142,5,
183.677,3.58917,11.7935,2.516,7.10059,1142,5,
183.677,3.58459,11.7844,2.516,7.10059,1142,5,
183.677,3.58307,11.7828,2.516,7.10059,1142,5,
183.677,3.58276,11.7828,2.516,7.10059,1142,5,
183.677,3.58307,11.7859,2.516,7.10059,1142,5,
183.677,3.57849,11.7844,2.516,7.10059,1142,5,
183.677,3.5791,11.7844,2.516,7.10059,1142,5,
183.677,3.5791,11.7813,2.516,7.10059,1142,5,
183.677,3.57391,11.7828,2.516,7.10059,1142,5,
183.677,3.57361,11.7798,2.516,7.10059,1142,5,
183.678,3.57361,11.7844,2.516,7.10059,1142,5,
183.678,3.5733,11.7844,2.516,7.10059,1142,5,
183.678,3.56873,11.7859,2.516,7.10059,1142,5,
183.678,3.56903,11.7828,2.516,7.10059,1142,5,
183.678,3.56873,11.7844,2.516,7.10059,1142,5,
183.678,3.56567,11.7828,2.516,7.10059,1142,5,
183.678,3.56476,11.7828,2.516,7.10059,1142,5,
183.678,3.56354,11.7844,2.516,7.10059,1142,5,
183.678,3.56384,11.7859,2.516,7.10059,1142,5,
183.678,3.5611,11.7844,2.516,7.10059,1142,5,
183.678,3.55927,11.7844,2.516,7.10059,1142,5,
183.678,3.55927,11.7844,2.516,7.10059,1142,5,
183.678,3.55896,11.7828,2.516,7.10059,1142,5,
183.678,3.5556,11.7828,2.516,7.10059,1142,5,
183.678,3.55469,11.7813,2.516,7.10059,1142,5,
183.678,3.55408,11.7737,2.516,7.10059,1142,5,
183.678,3.55408,11.7691,2.516,7.10059,1142,5,
183.678,3.55347,11.7737,2.516,7.10059,1142,5,
183.678,3.54889,11.7722,2.516,7.10059,1142,5,
183.678,3.54889,11.7737,2.516,7.10059,1142,5,
183.678,3.5495,11.7706,2.516,7.10059,1142,5,
183.678,3.54919,11.7722,2.516,7.10059,1142,5,
183.678,3.54614,11.7722,2.516,7.10059,1142,5,
183.678,3.54431,11.7722,2.516,7.10059,1142,5,
183.678,3.54401,11.7706,2.516,7.10059,1142,5,
183.678,3.54492,11.7706,2.516,7.10059,1142,5,
183.678,3.54492,11.7722,2.516,7.10059,1142,5,
183.678,3.54065,11.7706,2.516,7.10059,1142,5,
183.678,3.53943,11.7722,2.516,7.10059,1142,5,
183.678,3.53851,11.7706,2.516,7.10059,1142,5,
183.679,3.53973,11.7706,2.516,7.10059,1142,5,
183.679,3.53943,11.7737,2.516,7.10059,1142,5,
183.679,3.53973,11.7722,2.516,7.10059,1142,5,
183.679,3.53546,11.7706,2.516,7.10059,1142,5,
183.679,3.53485,11.7691,2.516,7.10059,1142,5,
183.679,3.53424,11.7706,2.516,7.10059,1142,5,
183.679,3.53516,11.7737,2.516,7.10059,1142,5,
183.679,3.53455,11.7706,2.516,7.10059,1142,5,
183.679,3.53455,11.7722,2.516,7.10059,1142,5,
183.679,3.53119,11.7569,2.516,7.10059,1142,5,
183.679,3.52997,11.763,2.516,7.10059,1142,5,
183.679,3.52936,11.7599,2.516,7.10059,1142,5,
183.679,3.52966,11.7599,2.516,7.10059,1142,5,
183.679,3.52966,11.7584,2.516,7.10059,1142,5,
183.679,3.52905,11.7615,2.516,7.10059,1142,5,
183.679,3.52936,11.7599,2.516,7.10059,1142,5,
183.679,3.52905,11.7584,2.516,7.10059,1142,5,
183.679,3.52509,11.7584,2.516,7.10059,1142,5,
183.679,3.52448,11.7554,2.516,7.10059,1142,5,
183.679,3.52478,11.7584,2.516,7.10059,1142,5,
183.679,3.52417,11.7584,2.516,7.10059,1142,5,
183.679,3.52509,11.7569,2.516,7.10059,1142,5,
183.679,3.52478,11.7615,2.516,7.10059,1142,5,
183.679,3.52386,11.7615,2.516,7.10059,1142,5,
183.679,3.52478,11.7584,2.516,7.10059,1142,5,
183.679,3.52448,11.7615,2.516,7.10059,1142,5,
183.679,3.52081,11.7599,2.516,7.10059,1142,5,
183.679,3.51959,11.7584,2.516,7.10059,1142,5,
183.679,3.52051,11.7584,2.516,7.10059,1142,5,
183.679,3.5199,11.7599,2.516,7.10059,1142,5,
183.679,3.5199,11.7599,2.516,7.10059,1142,5,
183.68,3.51959,11.7584,2.516,7.10059,1142,5,
183.68,3.51959,11.7615,2.516,7.10059,1142,5,
183.68,3.51959,11.7554,2.516,7.10059,1142,5,
183.68,3.51929,11.7493,2.516,7.10059,1142,5,
183.68,3.5199,11.7493,2.516,7.10059,1142,5,
183.68,3.51959,11.7447,2.516,7.10059,1142,5,
183.68,3.51959,11.7477,2.516,7.10059,1142,5,
183.68,3.51929,11.7447,2.516,7.10059,1142,5,
183.68,3.51959,11.7493,2.516,7.10059,1142,5,
183.68,3.51959,11.7493,2.516,7.10059,1142,5,
183.68,3.51898,11.7447,2.516,7.10059,1142,5,
183.68,3.51532,11.7462,2.516,7.10059,1142,5,
183.68,3.51501,11.7493,2.516,7.10059,1142,5,
183.68,3.5144,11.7447,2.516,7.10059,1142,5,
183.68,3.51532,11.7493,2.516,7.10059,1142,5,
183.68,3.51471,11.7493,2.516,7.10059,1142,5,
183.68,3.51562,11.7462,2.516,7.10059,1142,5,
183.68,3.51471,11.7462,2.516,7.10059,1142,5,
183.68,3.51471,11.7477,2.516,7.10059,1142,5,
183.68,3.51501,11.7447,2.516,7.10059,1142,5,
183.68,3.51501,11.7477,2.516,7.10059,1142,5,
183.68,3.51501,11.7462,2.516,7.10059,1142,5,
183.68,3.51501,11.7447,2.516,7.10059,1142,5,
183.68,3.51562,11.7462,2.516,7.10059,1142,5,
183.68,3.51501,11.7462,2.516,7.10059,1142,5,
183.68,3.51471,11.7462,2.516,7.10059,1142,5,
183.68,3.51501,11.7462,2.516,7.10059,1142,5,
183.68,3.51562,11.7477,2.516,7.10059,1142,5,
183.68,3.51532,11.7432,2.516,7.10059,1142,5,
183.68,3.51471,11.7462,2.516,7.10059,1142,5,
183.681,3.51562,11.731,2.516,7.10059,1142,5,
183.681,3.51501,11.734,2.516,7.10059,1142,5,
183.681,3.51562,11.731,2.516,7.10059,1142,5,
183.681,3.51471,11.7355,2.516,7.10059,1142,5,
183.681,3.51898,11.731,2.516,7.10059,1142,5,
183.681,3.51959,11.7325,2.516,7.10059,1142,5,
183.681,3.51929,11.7371,2.516,7.10059,1142,5,
183.681,3.51898,11.7355,2.516,7.10059,1142,5,
183.681,3.51959,11.7355,2.516,7.10059,1142,5,
183.681,3.51959,11.734,2.516,7.10059,1142,5,
183.681,3.51959,11.7371,2.516,7.10059,1142,5,
183.681,3.5199,11.7371,2.516,7.10059,1142,5,
183.681,3.51898,11.7371,2.516,7.10059,1142,5,
183.681,3.51959,11.734,2.516,7.10059,1142,5,
183.681,3.5202,11.734,2.516,7.10059,1142,5,
183.681,3.5199,11.7371,2.516,7.10059,1142,5,
183.681,3.51929,11.734,2.516,7.10059,1142,5,
183.681,3.52051,11.7355,2.516,7.10059,1142,5,
183.681,3.5199,11.7355,2.516,7.10059,1142,5,
183.681,3.5199,11.7371,2.516,7.10059,1142,5,
183.681,3.51959,11.7355,2.516,7.10059,1142,5,
183.681,3.5199,11.734,2.516,7.10059,1142,5,
183.681,3.52051,11.7355,2.516,7.10059,1142,5,
183.681,3.52448,11.734,2.516,7.10059,1142,5,
183.681,3.52448,11.7371,2.516,7.10059,1142,5,
183.681,3.52448,11.7325,2.516,7.10059,1142,5,
183.681,3.52539,11.7325,2.516,7.10059,1142,5,
183.681,3.52448,11.7355,2.516,7.10059,1142,5,
183.681,3.5257,11.7355,2.516,7.10059,1142,5,
183.681,3.52478,11.7249,2.516,7.10059,1142,5,
183.682,3.52539,11.7203,2.516,7.10059,1142,5,
183.682,3.52539,11.7203,2.516,7.10059,1142,5,
183.682,3.52478,11.7233,2.516,7.10059,1142,5,
183.682,3.52448,11.7233,2.516,7.10059,1142,5,
183.682,3.52478,11.7233,2.516,7.10059,1142,5,
183.682,3.53027,11.7233,2.516,7.10059,1142,5,
183.682,3.52966,11.7218,2.516,7.10059,1142,5,
183.682,3.52966,11.7203,2.516,7.10059,1142,5,
183.682,3.52936,11.7218,2.516,7.10059,1142,5,
183.682,3.52966,11.7218,2.516,7.10059,1142,5,
183.682,3.52966,11.7218,2.516,7.10059,1142,5,
183.682,3.52936,11.7203,2.516,7.10059,1142,5,
183.682,3.52936,11.7233,2.516,7.10059,1142,5,
183.682,3.52997,11.7233,2.516,7.10059,1142,5,
183.682,3.52905,11.7203,2.516,7.10059,1142,5,
183.682,3.53455,11.7218,2.516,7.10059,1142,5,
183.682,3.53394,11.7188,2.516,7.10059,1142,5,
183.682,3.53455,11.7264,2.516,7.10059,1142,5,
183.682,3.53516,11.7233,2.516,7.10059,1142,5,
183.682,3.53485,11.7233,2.516,7.10059,1142,5,
183.682,3.53455,11.7249,2.516,7.10059,1142,5,
183.682,3.53455,11.7233,2.516,7.10059,1142,5,
183.682,3.53485,11.7249,2.516,7.10059,1142,5,
183.682,3.53455,11.7188,2.516,7.10059,1142,5,
183.682,3.54004,11.7218,2.516,7.10059,1142,5,
183.682,3.53943,11.7233,2.516,7.10059,1142,5,
183.682,3.53943,11.7172,2.516,7.10059,1142,5,
183.682,3.53973,11.7096,2.516,7.10059,1142,5,
183.682,3.53973,11.7081,2.516,7.10059,1142,5,
183.683,3.53912,11.7111,2.516,7.10059,1142,5,
183.683,3.53943,11.7096,2.516,7.10059,1142,5,
183.683,3.53943,11.7111,2.516,7.10059,1142,5,
183.683,3.54248,11.7111,2.516,7.10059,1142,5,
183.683,3.54492,11.7111,2.516,7.10059,1142,5,
183.683,3.54492,11.7111,2.516,7.10059,1142,5,
183.683,3.54523,11.7096,2.516,7.10059,1142,5,
183.683,3.54462,11.7126,2.516,7.10059,1142,5,
183.683,3.54401,11.7126,2.516,7.10059,1142,5,
183.683,3.54492,11.7081,2.516,7.10059,1142,5,
183.683,3.15674,11.7096,0.518,7.10059,1142,5,
183.683,0.0643921,11.7096,0.518,7.10059,1142,5,
183.683,0.178223,11.7096,0.518,7.10059,1142,5,
183.683,3.30017,11.7142,0.518,7.10059,1142,5,
183.683,3.55011,11.7096,0.518,7.10059,1142,5,
183.683,3.5498,11.7096,0.518,7.10059,1142,5,
183.683,3.5495,11.7096,0.518,7.10059,1142,5,
183.683,3.55011,11.7126,0.518,7.10059,1142,5,
183.683,3.5495,11.7081,0.518,7.10059,1142,5,
183.683,3.55377,11.7096,0.518,7.10059,1142,5,
183.683,3.55438,11.7096,0.518,7.10059,1142,5,
183.683,3.55408,11.7096,0.518,7.10059,1142,5,
183.683,3.55499,11.7096,0.518,7.10059,1142,5,
183.683,3.55469,11.7111,0.518,7.10059,1142,5,
183.683,3.55408,11.7081,0.518,7.10059,1142,5,
183.683,3.55408,11.7081,0.518,7.10059,1142,5,
183.683,3.55408,11.6989,0.518,7.10059,1142,5,
183.683,3.55927,11.6989,0.518,7.10059,1142,5,
183.683,3.55865,11.6974,0.518,7.10059,1142,5,
183.683,3.55835,11.6974,0.518,7.10059,1142,5,
183.684,3.55865,11.7004,0.518,7.10059,1142,5,
183.684,3.55927,11.702,0.518,7.10059,1142,5,
183.684,3.55927,11.6974,0.518,7.10059,1142,5,
183.684,3.55988,11.7004,0.518,7.10059,1142,5,
183.684,3.55957,11.6974,0.518,7.10059,1142,5,
183.684,3.56476,11.702,0.518,7.10059,1142,5,
183.684,3.56415,11.6989,0.518,7.10059,1142,5,
183.684,3.56445,11.6989,0.518,7.10059,1142,5,
183.684,3.56354,11.6974,0.518,7.10059,1142,5,
183.684,3.56445,11.7004,0.518,7.10059,1142,5,
183.684,3.56445,11.7004,0.518,7.10059,1142,5,
183.684,3.56354,11.6959,0.518,7.10059,1142,5,
183.684,3.56689,11.6989,0.518,7.10059,1142,5,
183.684,3.56964,11.7035,0.518,7.10059,1142,5,
183.684,3.56873,11.6989,0.518,7.10059,1142,5,
183.684,3.56903,11.7004,0.518,7.10059,1142,5,
183.684,3.56873,11.6989,0.518,7.10059,1142,5,
183.684,3.56873,11.6959,0.518,7.10059,1142,5,
183.684,3.56964,11.7004,0.518,7.10059,1142,5,
183.684,3.56873,11.6989,0.518,7.10059,1142,5,
183.684,3.5733,11.6959,0.518,7.10059,1142,5,
183.684,3.57361,11.7004,0.518,7.10059,1142,5,
183.684,3.57361,11.6989,0.518,7.10059,1142,5,
183.684,3.57391,11.7004,0.518,7.10059,1142,5,
183.684,3.57361,11.6974,0.518,7.10059,1142,5,
183.684,3.57422,11.6852,0.518,7.10059,1142,5,
183.684,3.57422,11.6882,0.518,7.10059,1142,5,
183.684,3.5733,11.6867,0.518,7.10059,1142,5,
183.684,3.57697,11.6867,0.518,7.10059,1142,5,
183.684,3.57849,11.6882,0.518,7.10059,1142,5,
183.685,3.57941,11.6867,0.518,7.10059,1142,5,
183.685,3.57849,11.6882,0.518,7.10059,1142,5,
183.685,3.57971,11.6837,0.518,7.10059,1142,5,
183.685,3.57971,11.6867,0.518,7.10059,1142,5,
183.685,3.57971,11.6852,0.518,7.10059,1142,5,
183.685,3.57941,11.6867,0.518,7.10059,1142,5,
183.685,3.5791,11.6837,0.518,7.10059,1142,5,
183.685,3.58368,11.6867,0.518,7.10059,1142,5,
183.685,3.58398,11.6852,0.518,7.10059,1142,5,
183.685,3.58398,11.6852,0.518,7.10059,1142,5,
183.685,3.58459,11.6837,0.518,7.10059,1142,5,
183.685,3.58307,11.6867,0.518,7.10059,1142,5,
183.685,3.58398,11.6852,0.518,7.10059,1142,5,
183.685,3.58398,11.6882,0.518,7.10059,1142,5,
183.685,3.58337,11.6852,0.518,7.10059,1142,5,
183.685,3.58368,11.6867,0.518,7.10059,1142,5,
183.685,3.58643,11.6837,0.518,7.10059,1142,5,
183.685,3.58826,11.6882,0.518,7.10059,1142,5,
183.685,3.58826,11.6852,0.518,7.10059,1142,5,
183.685,3.58826,11.6837,0.518,7.10059,1142,5,
183.685,3.58826,11.6837,0.518,7.10059,1142,5,
183.685,3.58887,11.6852,0.518,7.10059,1142,5,
183.685,3.58856,11.6882,0.518,7.10059,1142,5,
183.685,3.58826,11.6852,0.518,7.10059,1142,5,
183.685,3.58765,11.673,0.518,7.10059,1142,5,
183.685,3.58795,11.673,0.518,7.10059,1142,5,
183.685,3.59131,11.6776,0.518,7.10059,1142,5,
183.685,3.59344,11.6745,0.518,7.10059,1142,5,
183.685,3.59375,11.673,0.518,7.10059,1142,5,
183.685,3.59314,11.6745,0.518,7.10059,1142,5,
183.685,3.59375,11.673,0.518,7.10059,1142,5,
183.686,3.59344,11.6699,0.518,7.10059,1142,5,
183.686,3.59253,11.6745,0.518,7.10059,1142,5,
183.686,3.59344,11.673,0.518,7.10059,1142,5,
183.686,3.59375,11.6776,0.518,7.10059,1142,5,
183.686,3.59253,11.6745,0.518,7.10059,1142,5,
183.686,3.59375,11.676,0.518,7.10059,1142,5,
183.686,3.59406,11.673,0.518,7.10059,1142,5,
183.686,3.59802,11.673,0.518,7.10059,1142,5,
183.686,3.59802,11.673,0.518,7.10059,1142,5,
183.686,3.59802,11.673,0.518,7.10059,1142,5,
183.686,3.59863,11.673,0.518,7.10059,1142,5,
183.686,3.59741,11.6684,0.518,7.10059,1142,5,
183.686,3.59833,11.6745,0.518,7.10059,1142,5,
183.686,3.59833,11.6714,0.518,7.10059,1142,5,
183.686,3.59802,11.6714,0.518,7.10059,1142,5,
183.686,3.59772,11.673,0.518,7.10059,1142,5,
183.686,3.59863,11.676,0.518,7.10059,1142,5,
183.686,3.59863,11.6745,0.518,7.10059,1142,5,
183.686,3.59833,11.673,0.518,7.10059,1142,5,
183.686,3.59863,11.673,0.518,7.10059,1142,5,
183.686,3.59833,11.676,0.518,7.10059,1142,5,
183.686,3.59772,11.676,0.518,7.10059,1142,5,
183.686,3.59894,11.6608,0.518,7.10059,1142,5,
183.686,3.60077,11.6608,0.518,7.10059,1142,5,
183.686,3.60321,11.6623,0.518,7.10059,1142,5,
183.686,3.60291,11.6638,0.518,7.10059,1142,5,
183.686,3.6026,11.6623,0.518,7.10059,1142,5,
183.686,3.60291,11.6623,0.518,7.10059,1142,5,
183.686,3.60291,11.6592,0.518,7.10059,1142,5,
183.686,3.6026,11.6608,0.518,7.10059,1142,5,
183.687,3.60352,11.6623,0.518,7.10059,1142,5,
183.687,3.60291,11.6623,0.518,7.10059,1142,5,
183.687,3.60291,11.6623,0.518,7.10059,1142,5,
183.687,3.60291,11.6623,0.518,7.10059,1142,5,
183.687,3.60352,11.6623,0.518,7.10059,1142,5,
183.687,3.60321,11.6638,0.518,7.10059,1142,5,
183.687,3.6026,11.6623,0.518,7.10059,1142,5,
183.687,3.60291,11.6608,0.518,7.10059,1142,5,
183.687,3.60291,11.6608,0.518,7.10059,1142,5,
183.687,3.60352,11.6638,0.518,7.10059,1142,5,
183.687,3.6026,11.6592,0.518,7.10059,1142,5,
183.687,3.60352,11.6592,0.518,7.10059,1142,5,
183.687,3.60352,11.6592,0.518,7.10059,1142,5,
183.687,3.60291,11.6608,0.518,7.10059,1142,5,
183.687,3.60291,11.6623,0.518,7.10059,1142,5,
183.687,3.6026,11.6638,0.518,7.10059,1142,5,
183.687,3.60229,11.6577,0.518,7.10059,1142,5,
183.687,3.60382,11.6608,0.518,7.10059,1142,5,
183.687,3.60291,11.6608,0.518,7.10059,1142,5,
183.687,3.60199,11.6623,0.518,7.10059,1142,5,
183.687,3.60291,11.6623,0.518,7.10059,1142,5,
183.687,3.59833,11.6608,0.518,7.10059,1142,5,
183.687,3.59833,11.6562,0.518,7.10059,1142,5,
183.687,3.59863,11.6516,0.518,7.10059,1142,5,
183.687,3.59802,11.6486,0.518,7.10059,1142,5,
183.687,3.59833,11.6501,0.518,7.10059,1142,5,
183.687,3.59802,11.6501,0.518,7.10059,1142,5,
183.687,3.59772,11.6486,0.518,7.10059,1142,5,
183.687,3.59802,11.6486,0.518,7.10059,1142,5,
183.688,3.59802,11.6455,0.518,7.10059,1142,5,
183.688,3.59894,11.6486,0.518,7.10059,1142,5,
183.688,3.59863,11.6486,0.518,7.10059,1142,5,
183.688,3.59802,11.6501,0.518,7.10059,1142,5,
183.688,3.59802,11.6501,0.518,7.10059,1142,5,
183.688,3.59772,11.6501,0.518,7.10059,1142,5,
183.688,3.59802,11.647,0.518,7.10059,1142,5,
183.688,3.59528,11.6501,0.518,7.10059,1142,5,
183.688,3.59344,11.6486,0.518,7.10059,1142,5,
183.688,3.59375,11.6501,0.518,7.10059,1142,5,
183.688,3.59344,11.6501,0.518,7.10059,1142,5,
183.688,3.59406,11.6516,0.518,7.10059,1142,5,
183.688,3.59344,11.6501,0.518,7.10059,1142,5,
183.688,3.59375,11.6531,0.518,7.10059,1142,5,
183.688,3.59314,11.647,0.518,7.10059,1142,5,
183.688,3.59344,11.6486,0.518,7.10059,1142,5,
183.688,3.59314,11.647,0.518,7.10059,1142,5,
183.688,3.58856,11.6516,0.518,7.10059,1142,5,
183.688,3.58856,11.6486,0.518,7.10059,1142,5,
183.688,3.58887,11.6501,0.518,7.10059,1142,5,
183.688,3.58887,11.6455,0.518,7.10059,1142,5,
183.688,3.58887,11.6516,0.518,7.10059,1142,5,
183.688,3.58917,11.6394,0.518,7.10059,1142,5,
183.688,3.58887,11.6333,0.518,7.10059,1142,5,
183.688,3.58521,11.6348,0.518,7.10059,1142,5,
183.688,3.58307,11.6394,0.518,7.10059,1142,5,
183.688,3.58398,11.6379,0.518,7.10059,1142,5,
183.688,3.58368,11.6364,0.518,7.10059,1142,5,
183.688,3.58337,11.6364,0.518,7.10059,1142,5,
183.688,3.58398,11.6379,0.518,7.10059,1142,5,
183.689,3.58429,11.6348,0.518,7.10059,1142,5,
183.689,3.5791,11.6364,0.518,7.10059,1142,5,
183.689,3.5791,11.6379,0.518,7.10059,1142,5,
183.689,3.5788,11.6394,0.518,7.10059,1142,5,
183.689,3.57941,11.6364,0.518,7.10059,1142,5,
183.689,3.5791,11.6379,0.518,7.10059,1142,5,
183.689,3.5791,11.6348,0.518,7.10059,1142,5,
183.689,3.57452,11.6379,0.518,7.10059,1142,5,
183.689,3.57361,11.6364,0.518,7.10059,1142,5,
183.689,3.57452,11.6348,0.518,7.10059,1142,5,
183.689,3.57391,11.6379,0.518,7.10059,1142,5,
183.689,3.57422,11.6333,0.518,7.10059,1142,5,
183.689,3.57056,11.6364,0.518,7.10059,1142,5,
183.689,3.56873,11.6364,0.518,7.10059,1142,5,
183.689,3.56842,11.6379,0.518,7.10059,1142,5,
183.689,3.56903,11.6348,0.518,7.10059,1142,5,
183.689,3.56903,11.6379,0.518,7.10059,1142,5,
183.689,3.56598,11.6348,0.518,7.10059,1142,5,
183.689,3.56354,11.6379,0.518,7.10059,1142,5,
183.689,3.56445,11.6364,0.518,7.10059,1142,5,
183.689,3.56415,11.6394,0.518,7.10059,1142,5,
183.689,3.56415,11.6379,0.518,7.10059,1142,5,
183.689,3.56018,11.6394,0.518,7.10059,1142,5,
183.689,3.55865,11.6394,0.518,7.10059,1142,5,
183.689,3.55896,11.6379,0.518,7.10059,1142,5,
183.689,3.55865,11.6364,0.518,7.10059,1142,5,
183.689,3.55896,11.6241,0.518,7.10059,1142,5,
183.689,3.55438,11.6226,0.518,7.10059,1142,5,
183.689,3.55499,11.6257,0.518,7.10059,1142,5,
183.689,3.55438,11.6257,0.518,7.10059,1142,5,
183.69,3.55438,11.6272,0.518,7.10059,1142,5,
183.69,3.55103,11.6241,0.518,7.10059,1142,5,
183.69,3.5498,11.6272,0.518,7.10059,1142,5,
183.69,3.54889,11.6226,0.518,7.10059,1142,5,
183.69,3.5495,11.6257,0.518,7.10059,1142,5,
183.69,3.54828,11.6257,0.518,7.10059,1142,5,
183.69,3.54401,11.6272,0.518,7.10059,1142,5,
183.69,3.5437,11.6257,0.518,7.10059,1142,5,
183.69,3.54401,11.6287,0.518,7.10059,1142,5,
183.69,3.5437,11.6241,0.518,7.10059,1142,5,
183.69,3.53912,11.6272,0.518,7.10059,1142,5,
183.69,3.53943,11.6257,0.518,7.10059,1142,5,
183.69,3.53912,11.6211,0.518,7.10059,1142,5,
183.69,3.53912,11.6226,0.518,7.10059,1142,5,
183.69,3.53424,11.6241,0.518,7.10059,1142,5,
183.69,3.53455,11.6241,0.518,7.10059,1142,5,
183.69,3.53424,11.6241,0.518,7.10059,1142,5,
183.69,3.53455,11.6241,0.518,7.10059,1142,5,
183.69,3.52997,11.6287,0.518,7.10059,1142,5,
183.69,3.52936,11.6257,0.518,7.10059,1142,5,
183.69,3.52966,11.6211,0.518,7.10059,1142,5,
183.69,3.52905,11.6257,0.518,7.10059,1142,5,
183.69,3.52509,11.6287,0.518,7.10059,1142,5,
183.69,3.52448,11.6241,0.518,7.10059,1142,5,
183.69,3.52509,11.6257,0.518,7.10059,1142,5,
183.69,3.52478,11.6257,0.518,7.10059,1142,5,
183.69,3.5202,11.6226,0.518,7.10059,1142,5,
183.69,3.51959,11.6257,0.518,7.10059,1142,5,
183.69,3.51959,11.6287,0.518,7.10059,1142,5,
183.69,3.51837,11.6287,0.518,7.10059,1142,5,
183.69,3.51532,11.6272,0.518,7.10059,1142,5,
183.691,3.51501,11.6257,0.518,7.10059,1142,5,
183.691,3.51471,11.6257,0.518,7.10059,1142,5,
183.691,3.51196,11.6272,0.518,7.10059,1142,5,
183.691,3.50983,11.6241,0.518,7.10059,1142,5,
183.691,3.51074,11.6272,0.518,7.10059,1142,5,
183.691,3.51074,11.6272,0.518,7.10059,1142,5,
183.691,3.50525,11.618,0.518,7.10059,1142,5,
183.691,3.50494,11.6119,0.518,7.10059,1142,5,
183.691,3.50494,11.6089,0.518,7.10059,1142,5,
183.691,3.50525,11.6104,0.518,7.10059,1142,5,
183.691,3.50006,11.615,0.518,7.10059,1142,5,
183.691,3.50067,11.6119,0.518,7.10059,1142,5,
183.691,3.50006,11.615,0.518,7.10059,1142,5,
183.691,3.50006,11.6135,0.518,7.10059,1142,5,
183.691,3.49579,11.6104,0.518,7.10059,1142,5,
183.691,3.49609,11.6104,0.518,7.10059,1142,5,
183.691,3.49609,11.6135,0.518,7.10059,1142,5,
183.691,3.49152,11.6104,0.518,7.10059,1142,5,
183.691,3.48999,11.6119,0.518,7.10059,1142,5,
183.691,3.48969,11.6135,0.518,7.10059,1142,5,
183.691,3.4903,11.6104,0.518,7.10059,1142,5,
183.691,3.48572,11.615,0.518,7.10059,1142,5,
183.691,3.48511,11.6119,0.518,7.10059,1142,5,
183.691,3.48572,11.6104,0.518,7.10059,1142,5,
183.691,3.4848,11.6119,0.518,7.10059,1142,5,
183.691,3.48053,11.615,0.518,7.10059,1142,5,
183.691,3.48022,11.6119,0.518,7.10059,1142,5,
183.691,3.48022,11.6119,0.518,7.10059,1142,5,
183.691,3.47717,11.6089,0.518,7.10059,1142,5,
183.691,3.47534,11.6119,0.518,7.10059,1142,5,
183.692,3.47534,11.615,0.518,7.10059,1142,5,
183.692,3.47473,11.6119,0.518,7.10059,1142,5,
183.692,3.47107,11.6119,0.518,7.10059,1142,5,
183.692,3.47076,11.6135,0.518,7.10059,1142,5,
183.692,3.47046,11.6119,0.518,7.10059,1142,5,
183.692,3.47076,11.6104,0.518,7.10059,1142,5,
183.692,3.46588,11.6089,0.518,7.10059,1142,5,
183.692,3.46558,11.6119,0.518,7.10059,1142,5,
183.692,3.46558,11.6135,0.518,7.10059,1142,5,
183.692,3.46283,11.6165,0.518,7.10059,1142,5,
183.692,3.461,11.6104,0.518,7.10059,1142,5,
183.692,3.46039,11.6028,0.518,7.10059,1142,5,
183.692,3.4613,11.6028,0.518,7.10059,1142,5,
183.692,3.45612,11.5982,0.518,7.10059,1142,5,
183.692,3.45581,11.6013,0.518,7.10059,1142,5,
183.692,3.45581,11.6028,0.518,7.10059,1142,5,
183.692,3.45551,11.5997,0.518,7.10059,1142,5,
183.692,3.45154,11.5997,0.518,7.10059,1142,5,
183.692,3.45093,11.6028,0.518,7.10059,1142,5,
183.692,3.45093,11.5982,0.518,7.10059,1142,5,
183.692,3.44971,11.6013,0.518,7.10059,1142,5,
183.692,3.44604,11.6013,0.518,7.10059,1142,5,
183.692,3.44666,11.5997,0.518,7.10059,1142,5,
183.692,3.44574,11.5997,0.518,7.10059,1142,5,
183.692,3.44269,11.5997,0.518,7.10059,1142,5,
183.692,3.44177,11.6013,0.518,7.10059,1142,5,
183.692,3.44086,11.6013,0.518,7.10059,1142,5,
183.692,3.44055,11.5997,0.518,7.10059,1142,5,
183.692,3.43628,11.6013,0.518,7.10059,1142,5,
183.692,3.43689,11.6013,0.518,7.10059,1142,5,
183.693,3.43597,11.5997,0.518,7.10059,1142,5,
183.693,3.43628,11.6013,0.518,7.10059,1142,5,
183.693,3.43201,11.6013,0.518,7.10059,1142,5,
183.693,3.4314,11.6028,0.518,7.10059,1142,5,
183.693,3.43201,11.6028,0.518,7.10059,1142,5,
183.693,3.42682,11.5997,0.518,7.10059,1142,5,
183.693,3.42682,11.5967,0.518,7.10059,1142,5,
183.693,3.42682,11.5982,0.518,7.10059,1142,5,
183.693,3.42651,11.5997,0.518,7.10059,1142,5,
183.693,3.42194,11.6013,0.518,7.10059,1142,5,
183.693,3.42163,11.6043,0.518,7.10059,1142,5,
183.693,3.42163,11.5982,0.518,7.10059,1142,5,
183.693,3.41705,11.5906,0.518,7.10059,1142,5,
183.693,3.41705,11.5891,0.518,7.10059,1142,5,
183.693,3.41644,11.586,0.518,7.10059,1142,5,
183.693,3.41583,11.586,0.518,7.10059,1142,5,
183.693,3.41156,11.586,0.518,7.10059,1142,5,
183.693,3.41187,11.5875,0.518,7.10059,1142,5,
183.693,3.41187,11.5891,0.518,7.10059,1142,5,
183.693,3.40698,11.5875,0.518,7.10059,1142,5,
183.693,3.40698,11.5891,0.518,7.10059,1142,5,
183.693,3.40729,11.5875,0.518,7.10059,1142,5,
183.693,3.40454,11.5891,0.518,7.10059,1142,5,
183.693,3.4021,11.5845,0.518,7.10059,1142,5,
183.693,3.4021,11.5906,0.518,7.10059,1142,5,
183.693,3.40149,11.5875,0.518,7.10059,1142,5,
183.693,3.39813,11.5875,0.518,7.10059,1142,5,
183.693,3.39752,11.5875,0.518,7.10059,1142,5,
183.693,3.39691,11.5875,0.518,7.10059,1142,5,
183.694,3.39233,11.5906,0.518,7.10059,1142,5,
183.694,3.39203,11.5875,0.518,7.10059,1142,5,
183.694,3.39203,11.5845,0.518,7.10059,1142,5,
183.694,3.38928,11.5875,0.518,7.10059,1142,5,
183.694,3.38745,11.5906,0.518,7.10059,1142,5,
183.694,3.38776,11.586,0.518,7.10059,1142,5,
183.694,3.38654,11.5875,0.518,7.10059,1142,5,
183.694,3.38257,11.5891,0.518,7.10059,1142,5,
183.694,3.38287,11.5875,0.518,7.10059,1142,5,
183.694,3.38226,11.5891,0.518,7.10059,1142,5,
183.694,3.37769,11.5891,0.518,7.10059,1142,5,
183.694,3.37769,11.586,0.518,7.10059,1142,5,
183.694,3.37738,11.5768,0.518,7.10059,1142,5,
183.694,3.3725,11.5753,0.518,7.10059,1142,5,
183.694,3.3728,11.5753,0.518,7.10059,1142,5,
183.694,3.37311,11.5784,0.518,7.10059,1142,5,
183.694,3.36853,11.5768,0.518,7.10059,1142,5,
183.694,3.36792,11.5738,0.518,7.10059,1142,5,
183.694,3.36823,11.5768,0.518,7.10059,1142,5,
183.694,3.36487,11.5753,0.518,7.10059,1142,5,
183.694,3.36304,11.5768,0.518,7.10059,1142,5,
183.694,3.36334,11.5753,0.518,7.10059,1142,5,
183.694,3.36273,11.5768,0.518,7.10059,1142,5,
183.694,3.35815,11.5768,0.518,7.10059,1142,5,
183.694,3.35846,11.5768,0.518,7.10059,1142,5,
183.694,3.35724,11.5753,0.518,7.10059,1142,5,
183.694,3.35297,11.5799,0.518,7.10059,1142,5,
183.694,3.35358,11.5768,0.518,7.10059,1142,5,
183.694,3.35358,11.5753,0.518,7.10059,1142,5,
183.694,3.34778,11.5753,0.518,7.10059,1142,5,
183.695,3.34839,11.5738,0.518,7.10059,1142,5,
183.695,3.34839,11.5753,0.518,7.10059,1142,5,
183.695,3.3432,11.5753,0.518,7.10059,1142,5,
183.695,3.34351,11.5677,0.518,7.10059,1142,5,
183.695,3.3432,11.5646,0.518,7.10059,1142,5,
183.695,3.33862,11.5631,0.518,7.10059,1142,5,
183.695,3.33862,11.5631,0.518,7.10059,1142,5,
183.695,3.33832,11.5616,0.518,7.10059,1142,5,
183.695,3.33344,11.5631,0.518,7.10059,1142,5,
183.695,3.33374,11.5616,0.518,7.10059,1142,5,
183.695,3.33344,11.5631,0.518,7.10059,1142,5,
183.695,3.33069,11.5616,0.518,7.10059,1142,5,
183.695,3.32825,11.5631,0.518,7.10059,1142,5,
183.695,3.32855,11.5646,0.518,7.10059,1142,5,
183.695,3.3255,11.5646,0.518,7.10059,1142,5,
183.695,3.32428,11.5662,0.518,7.10059,1142,5,
183.695,3.32306,11.5631,0.518,7.10059,1142,5,
183.695,3.32092,11.5616,0.518,7.10059,1142,5,
183.695,3.31909,11.5646,0.518,7.10059,1142,5,
183.695,3.3197,11.5646,0.518,7.10059,1142,5,
183.695,3.31573,11.5631,0.518,7.10059,1142,5,
183.695,3.31421,11.5585,0.518,7.10059,1142,5,
183.695,3.3136,11.5646,0.518,7.10059,1142,5,
183.695,3.30963,11.5646,0.518,7.10059,1142,5,
183.695,3.30902,11.5616,0.518,7.10059,1142,5,
183.695,3.30872,11.5631,0.518,7.10059,1142,5,
183.695,3.30475,11.5524,0.518,7.10059,1142,5,
183.695,3.30414,11.5509,0.518,7.10059,1142,5,
183.695,3.30383,11.5524,0.518,7.10059,1142,5,
183.695,3.29987,11.5509,0.518,7.10059,1142,5,
183.696,3.29956,11.5524,0.518,7.10059,1142,5,
183.696,3.29865,11.5509,0.518,7.10059,1142,5,
183.696,3.29407,11.554,0.518,7.10059,1142,5,
183.696,3.29437,11.5494,0.518,7.10059,1142,5,
183.696,3.29102,11.5524,0.518,7.10059,1142,5,
183.696,3.28949,11.5509,0.518,7.10059,1142,5,
183.696,3.28918,11.5524,0.518,7.10059,1142,5,
183.696,3.28461,11.5524,0.518,7.10059,1142,5,
183.696,3.28491,11.5524,0.518,7.10059,1142,5,
183.696,3.28186,11.5509,0.518,7.10059,1142,5,
183.696,3.27942,11.5524,0.518,7.10059,1142,5,
183.696,3.28033,11.554,0.518,7.10059,1142,5,
183.696,3.27576,11.554,0.518,7.10059,1142,5,
183.696,3.27515,11.5509,0.518,7.10059,1142,5,
183.696,3.27057,11.5509,0.518,7.10059,1142,5,
183.696,3.27026,11.5463,0.518,7.10059,1142,5,
183.696,3.26965,11.5524,0.518,7.10059,1142,5,
183.696,3.26538,11.5509,0.518,7.10059,1142,5,
183.696,3.26569,11.554,0.518,7.10059,1142,5,
183.696,3.25989,11.5494,0.518,7.10059,1142,5,
183.696,3.2605,11.5524,0.518,7.10059,1142,5,
183.696,3.25592,11.5524,0.518,7.10059,1142,5,
183.696,3.25592,11.554,0.518,7.10059,1142,5,
183.696,3.25195,11.5509,0.518,7.10059,1142,5,
183.696,3.25043,11.5402,0.518,7.10059,1142,5,
183.696,3.24646,11.5387,0.518,7.10059,1142,5,
183.696,3.24585,11.5417,0.518,7.10059,1142,5,
183.696,3.24463,11.5417,0.518,7.10059,1142,5,
183.696,3.24066,11.5356,0.518,7.10059,1142,5,
183.696,3.24005,11.5402,0.518,7.10059,1142,5,
183.696,3.23578,11.5387,0.518,7.10059,1142,5,
183.697,3.23608,11.5387,0.518,7.10059,1142,5,
183.697,3.2309,11.5387,0.518,7.10059,1142,5,
183.697,3.23029,11.5356,0.518,7.10059,1142,5,
183.697,3.22571,11.5402,0.518,7.10059,1142,5,
183.697,3.22449,11.5387,0.518,7.10059,1142,5,
183.697,3.22144,11.5372,0.518,7.10059,1142,5,
183.697,3.22021,11.5372,0.518,7.10059,1142,5,
183.697,3.21564,11.5372,0.518,7.10059,1142,5,
183.697,3.21503,11.5387,0.518,7.10059,1142,5,
183.697,3.21136,11.5417,0.518,7.10059,1142,5,
183.697,3.21045,11.5372,0.518,7.10059,1142,5,
183.697,3.20618,11.5402,0.518,7.10059,1142,5,
183.697,3.20557,11.5402,0.518,7.10059,1142,5,
183.697,3.2016,11.5417,0.518,7.10059,1142,5,
183.697,3.19794,11.5387,0.518,7.10059,1142,5,
183.697,3.19611,11.5387,0.518,7.10059,1142,5,
183.697,3.19366,11.5387,0.518,7.10059,1142,5,
183.697,3.19061,11.5417,0.518,7.10059,1142,5,
183.697,3.18695,11.5387,0.518,7.10059,1142,5,
183.697,3.18695,11.5372,0.518,7.10059,1142,5,
183.697,3.18146,11.5402,0.518,7.10059,1142,5,
183.697,3.18176,11.5402,0.518,7.10059,1142,5,
183.697,3.17688,11.5402,0.518,7.10059,1142,5,
183.697,3.17688,11.5372,0.518,7.10059,1142,5,
183.697,3.17261,11.5402,0.518,7.10059,1142,5,
183.697,3.16895,11.5417,0.518,7.10059,1142,5,
183.697,3.16711,11.5311,0.518,7.10059,1142,5,
183.697,3.16345,11.5265,0.518,7.10059,1142,5,
183.697,3.16315,11.5265,0.518,7.10059,1142,5,
183.697,3.15826,11.5265,0.518,7.10059,1142,5,
183.698,3.15765,11.528,0.518,7.10059,1142,5,
183.698,3.15277,11.5295,0.518,7.10059,1142,5,
183.698,3.15033,11.5265,0.518,7.10059,1142,5,
183.698,3.14819,11.525,0.518,7.10059,1142,5,
183.698,3.14362,11.5295,0.518,7.10059,1142,5,
183.698,3.14301,11.525,0.518,7.10059,1142,5,
183.698,3.13843,11.5265,0.518,7.10059,1142,5,
183.698,3.13721,11.5295,0.518,7.10059,1142,5,
183.698,3.13263,11.5311,0.518,7.10059,1142,5,
183.698,3.12988,11.5265,0.518,7.10059,1142,5,
183.698,3.12775,11.5234,0.518,7.10059,1142,5,
183.698,3.12286,11.5265,0.518,7.10059,1142,5,
183.698,3.12256,11.528,0.518,7.10059,1142,5,
183.698,3.11798,11.5265,0.518,7.10059,1142,5,
183.698,3.11523,11.5234,0.518,7.10059,1142,5,
183.698,3.1134,11.5295,0.518,7.10059,1142,5,
183.698,3.10822,11.5295,0.518,7.10059,1142,5,
183.698,3.1073,11.5265,0.518,7.10059,1142,5,
183.698,3.10333,11.525,0.518,7.10059,1142,5,
183.698,3.09875,11.528,0.518,7.10059,1142,5,
183.698,3.09875,11.5311,0.518,7.10059,1142,5,
183.698,3.09326,11.5295,0.518,7.10059,1142,5,
183.698,3.09021,11.528,0.518,7.10059,1142,5,
183.698,3.08868,11.528,0.518,7.10059,1142,5,
183.698,3.08319,11.5265,0.518,7.10059,1142,5,
183.698,3.08228,11.525,0.518,7.10059,1142,5,
183.698,3.07922,11.528,0.518,7.10059,1142,5,
183.698,3.07404,11.5234,0.518,7.10059,1142,5,
183.698,3.07373,11.525,0.518,7.10059,1142,5,
183.698,3.06854,11.5311,0.518,7.10059,1142,5,
183.699,3.06671,11.5295,0.518,7.10059,1142,5,
183.699,3.06335,11.5265,0.518,7.10059,1142,5,
183.699,3.05908,11.528,0.518,7.10059,1142,5,
183.699,3.05603,11.5234,0.518,7.10059,1142,5,
183.699,3.0542,11.528,0.518,7.10059,1142,5,
183.699,3.04932,11.5128,0.518,7.10059,1142,5,
183.699,3.04565,11.5173,0.518,7.10059,1142,5,
183.699,3.04443,11.5143,0.518,7.10059,1142,5,
183.699,3.03925,11.5158,0.518,7.10059,1142,5,
183.699,3.03711,11.5128,0.518,7.10059,1142,5,
183.699,3.03467,11.5158,0.518,7.10059,1142,5,
183.699,3.0304,11.5143,0.518,7.10059,1142,5,
183.699,3.02917,11.5143,0.518,7.10059,1142,5,
183.699,3.02521,11.5158,0.518,7.10059,1142,5,
183.699,3.01971,11.5143,0.518,7.10059,1142,5,
183.699,3.0191,11.5097,0.518,7.10059,1142,5,
183.699,3.01453,11.5128,0.518,7.10059,1142,5,
183.699,3.01056,11.5173,0.518,7.10059,1142,5,
183.699,3.00934,11.5158,0.518,7.10059,1142,5,
183.699,3.00476,11.5173,0.518,7.10059,1142,5,
183.699,3.0011,11.5128,0.518,7.10059,1142,5,
183.699,3.00018,11.5158,0.518,7.10059,1142,5,
183.699,2.99591,11.5128,0.518,7.10059,1142,5,
183.699,2.99103,11.5189,0.518,7.10059,1142,5,
183.699,2.99011,11.5143,0.518,7.10059,1142,5,
183.699,2.98615,11.5173,0.518,7.10059,1142,5,
183.699,2.98157,11.5143,0.518,7.10059,1142,5,
183.699,2.98004,11.5128,0.518,7.10059,1142,5,
183.699,2.97607,11.5143,0.518,7.10059,1142,5,
183.7,2.97058,11.5173,0.518,7.10059,1142,5,
183.7,2.96814,11.5158,0.518,7.10059,1142,5,
183.7,2.9657,11.5112,0.518,7.10059,1142,5,
183.7,2.96112,11.5173,0.518,7.10059,1142,5,
183.7,2.95837,11.5128,0.518,7.10059,1142,5,
183.7,2.95624,11.5173,0.518,7.10059,1142,5,
183.7,2.95197,11.5143,0.518,7.10059,1142,5,
183.7,2.94708,11.5173,0.518,7.10059,1142,5,
183.7,2.94647,11.5189,0.518,7.10059,1142,5,
183.7,2.94159,11.5158,0.518,7.10059,1142,5,
183.7,2.93732,11.5173,0.518,7.10059,1142,5,
183.7,2.93701,11.5158,0.518,7.10059,1142,5,
183.7,2.93213,11.5173,0.518,7.10059,1142,5,
183.7,2.92725,11.5067,0.518,7.10059,1142,5,
183.7,2.92389,11.5006,0.518,7.10059,1142,5,
183.7,2.92145,11.5021,0.518,7.10059,1142,5,
183.7,2.91718,11.5036,0.518,7.10059,1142,5,
183.7,2.91321,11.5051,0.518,7.10059,1142,5,
183.7,2.90894,11.5021,0.518,7.10059,1142,5,
183.7,2.90771,11.5021,0.518,7.10059,1142,5,
183.7,2.90253,11.5006,0.518,7.10059,1142,5,
183.7,2.89825,11.5036,0.518,7.10059,1142,5,
183.7,2.89459,11.499,0.518,7.10059,1142,5,
183.7,2.89246,11.5021,0.518,7.10059,1142,5,
183.7,2.88788,11.5021,0.518,7.10059,1142,5,
183.7,2.883,11.499,0.518,7.10059,1142,5,
183.7,2.87903,11.5021,0.518,7.10059,1142,5,
183.7,2.8772,11.5067,0.518,7.10059,1142,5,
183.7,2.87262,11.5036,0.518,7.10059,1142,5,
183.7,2.86804,11.5006,0.518,7.10059,1142,5,
183.701,2.8653,11.5021,0.518,7.10059,1142,5,
183.701,2.86285,11.5051,0.518,7.10059,1142,5,
183.701,2.85858,11.5021,0.518,7.10059,1142,5,
183.701,2.85339,11.5051,0.518,7.10059,1142,5,
183.701,2.84973,11.5051,0.518,7.10059,1142,5,
183.701,2.84546,11.5051,0.518,7.10059,1142,5,
183.701,2.84332,11.5006,0.518,7.10059,1142,5,
183.701,2.83844,11.5021,0.518,7.10059,1142,5,
183.701,2.83386,11.5021,0.518,7.10059,1142,5,
183.701,2.82928,11.5021,0.518,7.10059,1142,5,
183.701,2.82562,11.5051,0.518,7.10059,1142,5,
183.701,2.82379,11.499,0.518,7.10059,1142,5,
183.701,2.81982,11.5021,0.518,7.10059,1142,5,
183.701,2.81433,11.5036,0.518,7.10059,1142,5,
183.701,2.81036,11.5021,0.518,7.10059,1142,5,
183.701,2.80487,11.5021,0.518,7.10059,1142,5,
183.701,2.80121,11.5036,0.518,7.10059,1142,5,
183.701,2.79907,11.5021,0.518,7.10059,1142,5,
183.701,2.7951,11.5036,0.518,7.10059,1142,5,
183.701,2.78931,11.5051,0.518,7.10059,1142,5,
183.701,2.78534,11.5021,0.518,7.10059,1142,5,
183.701,2.78046,11.5036,0.518,7.10059,1142,5,
183.701,2.7771,11.5036,0.518,7.10059,1142,5,
183.701,2.77435,11.4929,0.518,7.10059,1142,5,
183.701,2.77008,11.4883,0.518,7.10059,1142,5,
183.701,2.7655,11.4914,0.518,7.10059,1142,5,
183.701,2.76001,11.4899,0.518,7.10059,1142,5,
183.701,2.75665,11.4944,0.518,7.10059,1142,5,
183.701,2.75208,11.4853,0.518,7.10059,1142,5,
183.701,2.75024,11.4914,0.518,7.10059,1142,5,
183.702,2.74506,11.4899,0.518,7.10059,1142,5,
183.702,2.74078,11.4883,0.518,7.10059,1142,5,
183.702,2.73529,11.4914,0.518,7.10059,1142,5,
183.702,2.73193,11.4883,0.518,7.10059,1142,5,
183.702,2.72614,11.4929,0.518,7.10059,1142,5,
183.702,2.72278,11.4868,0.518,7.10059,1142,5,
183.702,2.72095,11.4914,0.518,7.10059,1142,5,
183.702,2.71637,11.4883,0.518,7.10059,1142,5,
183.702,2.71057,11.4883,0.518,7.10059,1142,5,
183.702,2.70599,11.4899,0.518,7.10059,1142,5,
183.702,2.70203,11.4914,0.518,7.10059,1142,5,
183.702,2.69836,11.4883,0.518,7.10059,1142,5,
183.702,2.69653,11.4914,0.518,7.10059,1142,5,
183.702,2.69043,11.4929,0.518,7.10059,1142,5,
183.702,2.68677,11.4914,0.518,7.10059,1142,5,
183.702,2.68158,11.4883,0.518,7.10059,1142,5,
183.702,2.67731,11.4914,0.518,7.10059,1142,5,
183.702,2.67365,11.4899,0.518,7.10059,1142,5,
183.702,2.66876,11.4899,0.518,7.10059,1142,5,
183.702,2.66724,11.4914,0.518,7.10059,1142,5,
183.702,2.66235,11.4899,0.518,7.10059,1142,5,
183.702,2.65747,11.4899,0.518,7.10059,1142,5,
183.702,2.65289,11.4899,0.518,7.10059,1142,5,
183.702,2.64862,11.4914,0.518,7.10059,1142,5,
183.702,2.64404,11.4899,0.518,7.10059,1142,5,
183.702,2.64191,11.4914,0.518,7.10059,1142,5,
183.702,2.63855,11.4929,0.518,7.10059,1142,5,
183.702,2.63336,11.4883,0.518,7.10059,1142,5,
183.702,2.62848,11.4883,0.518,7.10059,1142,5,
183.702,2.62482,11.4914,0.518,7.10059,1142,5,
183.702,2.62268,11.4883,0.518,7.10059,1142,5,
183.703,2.6178,11.4899,0.518,7.10059,1142,5,
183.703,2.61353,11.4777,0.518,7.10059,1142,5,
183.703,2.60834,11.4777,0.518,7.10059,1142,5,
183.703,2.60376,11.4777,0.518,7.10059,1142,5,
183.703,2.6001,11.4807,0.518,7.10059,1142,5,
183.703,2.59796,11.4792,0.518,7.10059,1142,5,
183.703,2.59338,11.4807,0.518,7.10059,1142,5,
183.703,2.5885,11.4807,0.518,7.10059,1142,5,
183.703,2.58362,11.4792,0.518,7.10059,1142,5,
183.703,2.58026,11.4777,0.518,7.10059,1142,5,
183.703,2.57843,11.4777,0.518,7.10059,1142,5,
183.703,2.57446,11.4777,0.518,7.10059,1142,5,
183.703,2.56927,11.4807,0.518,7.10059,1142,5,
183.703,2.56561,11.4792,0.518,7.10059,1142,5,
183.703,2.56165,11.4807,0.518,7.10059,1142,5,
183.703,2.5589,11.4761,0.518,7.10059,1142,5,
183.703,2.55493,11.4761,0.518,7.10059,1142,5,
183.703,2.55066,11.4807,0.518,7.10059,1142,5,
183.703,2.54639,11.4792,0.518,7.10059,1142,5,
183.703,2.54425,11.4807,0.518,7.10059,1142,5,
183.703,2.54089,11.4761,0.518,7.10059,1142,5,
183.703,2.5351,11.4792,0.518,7.10059,1142,5,
183.703,2.53204,11.4777,0.518,7.10059,1142,5,
183.703,2.5296,11.4807,0.518,7.10059,1142,5,
183.703,2.52563,11.4822,0.518,7.10059,1142,5,
183.703,2.52014,11.4777,0.518,7.10059,1142,5,
183.703,2.51587,11.4822,0.518,7.10059,1142,5,
183.703,2.51465,11.4792,0.518,7.10059,1142,5,
183.703,2.51068,11.4777,0.518,7.10059,1142,5,
183.703,2.50549,11.4792,0.518,7.10059,1142,5,
183.704,2.50244,11.4777,0.518,7.10059,1142,5,
183.704,2.5,11.4822,0.518,7.10059,1142,5,
183.704,2.49573,11.4777,0.518,7.10059,1142,5,
183.704,2.49146,11.4761,0.518,7.10059,1142,5,
183.704,2.49084,11.4792,0.518,7.10059,1142,5,
183.704,2.48627,11.4777,0.518,7.10059,1142,5,
183.704,2.48169,11.4777,0.518,7.10059,1142,5,
183.704,2.47742,11.4777,0.518,7.10059,1142,5,
183.704,2.47681,11.4639,0.518,7.10059,1142,5,
183.704,2.47192,11.4655,0.518,7.10059,1142,5,
183.704,2.46674,11.4655,0.518,7.10059,1142,5,
183.704,2.46582,11.467,0.518,7.10059,1142,5,
183.704,2.46185,11.467,0.518,7.10059,1142,5,
183.704,2.45697,11.4624,0.518,7.10059,1142,5,
183.704,2.45636,11.467,0.518,7.10059,1142,5,
183.704,2.45117,11.467,0.518,7.10059,1142,5,
183.704,2.44781,11.4655,0.518,7.10059,1142,5,
183.704,2.44629,11.4655,0.518,7.10059,1142,5,
183.704,2.44263,11.4639,0.518,7.10059,1142,5,
183.704,2.43805,11.4685,0.518,7.10059,1142,5,
183.704,2.43744,11.467,0.518,7.10059,1142,5,
183.704,2.43195,11.4685,0.518,7.10059,1142,5,
183.704,2.42859,11.47,0.518,7.10059,1142,5,
183.704,2.42767,11.4655,0.518,7.10059,1142,5,
183.704,2.42218,11.467,0.518,7.10059,1142,5,
183.704,2.42188,11.4685,0.518,7.10059,1142,5,
183.704,2.41791,11.467,0.518,7.10059,1142,5,
183.704,2.41364,11.4655,0.518,7.10059,1142,5,
183.704,2.41272,11.47,0.518,7.10059,1142,5,
183.704,2.40784,11.467,0.518,7.10059,1142,5,
183.705,2.40692,11.4685,0.518,7.10059,1142,5,
183.705,2.40265,11.4639,0.518,7.10059,1142,5,
183.705,2.39929,11.4655,0.518,7.10059,1142,5,
183.705,2.39807,11.4685,0.518,7.10059,1142,5,
183.705,2.39349,11.4685,0.518,7.10059,1142,5,
183.705,2.39227,11.467,0.518,7.10059,1142,5,
183.705,2.3877,11.4655,0.518,7.10059,1142,5,
183.705,2.38831,11.4624,0.518,7.10059,1142,5,
183.705,2.38281,11.4639,0.518,7.10059,1142,5,
183.705,2.37976,11.4655,0.518,7.10059,1142,5,
183.705,2.37762,11.4639,0.518,7.10059,1142,5,
183.705,2.37305,11.4655,0.518,7.10059,1142,5,
183.705,2.37335,11.4639,0.518,7.10059,1142,5,
183.705,2.36847,11.467,0.518,7.10059,1142,5,
183.705,2.36755,11.4685,0.518,7.10059,1142,5,
183.705,2.36359,11.4655,0.518,7.10059,1142,5,
183.705,2.36328,11.4532,0.518,7.10059,1142,5,
183.705,2.3587,11.4548,0.518,7.10059,1142,5,
183.705,2.35779,11.4517,0.518,7.10059,1142,5,
183.705,2.35352,11.4548,0.518,7.10059,1142,5,
183.705,2.3526,11.4517,0.518,7.10059,1142,5,
183.705,2.34894,11.4517,0.518,7.10059,1142,5,
183.705,2.34772,11.4548,0.518,7.10059,1142,5,
183.705,2.34375,11.4548,0.518,7.10059,1142,5,
183.705,2.34375,11.4548,0.518,7.10059,1142,5,
183.705,2.33887,11.4563,0.518,7.10059,1142,5,
183.705,2.33826,11.4532,0.518,7.10059,1142,5,
183.705,2.33429,11.4578,0.518,7.10059,1142,5,
183.705,2.33398,11.4563,0.518,7.10059,1142,5,
183.706,2.32971,11.4578,0.518,7.10059,1142,5,
183.706,2.32819,11.4563,0.518,7.10059,1142,5,
183.706,2.32422,11.4532,0.518,7.10059,1142,5,
183.706,2.32391,11.4517,0.518,7.10059,1142,5,
183.706,2.31995,11.4532,0.518,7.10059,1142,5,
183.706,2.31995,11.4548,0.518,7.10059,1142,5,
183.706,2.31506,11.4532,0.518,7.10059,1142,5,
183.706,2.31476,11.4532,0.518,7.10059,1142,5,
183.706,2.31018,11.4563,0.518,7.10059,1142,5,
183.706,2.31018,11.4487,0.518,7.10059,1142,5,
183.706,2.30499,11.4563,0.518,7.10059,1142,5,
183.706,2.3053,11.4532,0.518,7.10059,1142,5,
183.706,2.30133,11.4517,0.518,7.10059,1142,5,
183.706,2.30072,11.4532,0.518,7.10059,1142,5,
183.706,2.29919,11.4563,0.518,7.10059,1142,5,
183.706,2.29553,11.4563,0.518,7.10059,1142,5,
183.706,2.29553,11.4517,0.518,7.10059,1142,5,
183.706,2.28973,11.4532,0.518,7.10059,1142,5,
183.706,2.28973,11.4532,0.518,7.10059,1142,5,
183.706,2.28546,11.4532,0.518,7.10059,1142,5,
183.706,2.28485,11.4517,0.518,7.10059,1142,5,
183.706,2.2821,11.4548,0.518,7.10059,1142,5,
183.706,2.28088,11.4502,0.518,7.10059,1142,5,
183.706,2.28058,11.4532,0.518,7.10059,1142,5,
183.706,2.2757,11.4532,0.518,7.10059,1142,5,
183.706,2.27539,11.4548,0.518,7.10059,1142,5,
183.706,2.27112,11.4456,0.518,7.10059,1142,5,
183.706,2.26959,11.441,0.518,7.10059,1142,5,
183.706,2.26959,11.441,0.518,7.10059,1142,5,
183.706,2.26593,11.4395,0.518,7.10059,1142,5,
183.707,2.26562,11.4395,0.518,7.10059,1142,5,
183.707,2.26074,11.4395,0.518,7.10059,1142,5,
183.707,2.26074,11.4456,0.518,7.10059,1142,5,
183.707,2.25739,11.4395,0.518,7.10059,1142,5,
183.707,2.25555,11.4426,0.518,7.10059,1142,5,
183.707,2.25586,11.4426,0.518,7.10059,1142,5,
183.707,2.25037,11.4441,0.518,7.10059,1142,5,
183.707,2.25067,11.441,0.518,7.10059,1142,5,
183.707,2.24823,11.441,0.518,7.10059,1142,5,
183.707,2.24548,11.441,0.518,7.10059,1142,5,
183.707,2.24579,11.4365,0.518,7.10059,1142,5,
183.707,2.24091,11.441,0.518,7.10059,1142,5,
183.707,2.24091,11.4441,0.518,7.10059,1142,5,
183.707,2.2403,11.438,0.518,7.10059,1142,5,
183.707,2.23572,11.4426,0.518,7.10059,1142,5,
183.707,2.23541,11.441,0.518,7.10059,1142,5,
183.707,2.23297,11.4395,0.518,7.10059,1142,5,
183.707,2.23083,11.4426,0.518,7.10059,1142,5,
183.707,2.23083,11.441,0.518,7.10059,1142,5,
183.707,2.22626,11.441,0.518,7.10059,1142,5,
183.707,2.22595,11.441,0.518,7.10059,1142,5,
183.707,2.22626,11.441,0.518,7.10059,1142,5,
183.707,2.22198,11.4426,0.518,7.10059,1142,5,
183.707,2.22107,11.441,0.518,7.10059,1142,5,
183.707,2.21771,11.4426,0.518,7.10059,1142,5,
183.707,2.21649,11.4426,0.518,7.10059,1142,5,
183.707,2.21649,11.441,0.518,7.10059,1142,5,
183.707,2.21344,11.4395,0.518,7.10059,1142,5,
183.707,2.21191,11.4395,0.518,7.10059,1142,5,
183.707,2.21161,11.441,0.518,7.10059,1142,5,
183.708,2.20703,11.4395,0.518,7.10059,1142,5,
183.708,2.20642,11.4395,0.518,7.10059,1142,5,
183.708,2.20673,11.4426,0.518,7.10059,1142,5,
183.708,2.20245,11.4426,0.518,7.10059,1142,5,
183.708,2.20154,11.441,0.518,7.10059,1142,5,
183.708,2.20215,11.441,0.518,7.10059,1142,5,
183.708,2.19635,11.4441,0.518,7.10059,1142,5,
183.708,2.19666,11.4304,0.518,7.10059,1142,5,
183.708,2.19727,11.4258,0.518,7.10059,1142,5,
183.708,2.19269,11.4288,0.518,7.10059,1142,5,
183.708,2.19238,11.4273,0.518,7.10059,1142,5,
183.708,2.19208,11.4288,0.518,7.10059,1142,5,
183.708,2.18842,11.4243,0.518,7.10059,1142,5,
183.708,2.18658,11.4319,0.518,7.10059,1142,5,
183.708,2.1875,11.4334,0.518,7.10059,1142,5,
183.708,2.18689,11.4319,0.518,7.10059,1142,5,
183.708,2.18201,11.4273,0.518,7.10059,1142,5,
183.708,2.18262,11.4273,0.518,7.10059,1142,5,
183.708,2.18201,11.4273,0.518,7.10059,1142,5,
183.708,2.17712,11.4304,0.518,7.10059,1142,5,
183.708,2.17743,11.4304,0.518,7.10059,1142,5,
183.708,2.17773,11.4273,0.518,7.10059,1142,5,
183.708,2.17407,11.4288,0.518,7.10059,1142,5,
183.708,2.17255,11.4304,0.518,7.10059,1142,5,
183.708,2.17255,11.4288,0.518,7.10059,1142,5,
183.708,2.17224,11.4304,0.518,7.10059,1142,5,
183.708,2.16797,11.4319,0.518,7.10059,1142,5,
183.708,2.16736,11.4304,0.518,7.10059,1142,5,
183.708,2.16736,11.4273,0.518,7.10059,1142,5,
183.708,2.16461,11.4258,0.518,7.10059,1142,5,
183.708,2.16278,11.4273,0.518,7.10059,1142,5,
183.709,2.16278,11.4304,0.518,7.10059,1142,5,
183.709,2.16278,11.4288,0.518,7.10059,1142,5,
183.709,2.15851,11.4304,0.518,7.10059,1142,5,
183.709,2.15851,11.4304,0.518,7.10059,1142,5,
183.709,2.15698,11.4288,0.518,7.10059,1142,5,
183.709,2.15759,11.4319,0.518,7.10059,1142,5,
183.709,2.15424,11.4304,0.518,7.10059,1142,5,
183.709,2.15332,11.4319,0.518,7.10059,1142,5,
183.709,2.15271,11.4273,0.518,7.10059,1142,5,
183.709,2.15302,11.4273,0.518,7.10059,1142,5,
183.709,2.14783,11.4304,0.518,7.10059,1142,5,
183.709,2.14783,11.4273,0.518,7.10059,1142,5,
183.709,2.14783,11.4273,0.518,7.10059,1142,5,
183.709,2.14874,11.4273,0.518,7.10059,1142,5,
183.709,2.14813,11.4288,0.518,7.10059,1142,5,
183.709,2.14355,11.4288,0.518,7.10059,1142,5,
183.709,2.14325,11.4182,0.518,7.10059,1142,5,
183.709,2.14325,11.4182,0.518,7.10059,1142,5,
183.709,2.14294,11.4151,0.518,7.10059,1142,5,
183.709,2.13898,11.4151,0.518,7.10059,1142,5,
183.709,2.13806,11.4151,0.518,7.10059,1142,5,
183.709,2.13776,11.4151,0.518,7.10059,1142,5,
183.709,2.13867,11.4197,0.518,7.10059,1142,5,
183.709,2.13867,11.4166,0.518,7.10059,1142,5,
183.709,2.13409,11.4151,0.518,7.10059,1142,5,
183.709,2.13287,11.4166,0.518,7.10059,1142,5,
183.709,2.13348,11.4151,0.518,7.10059,1142,5,
183.709,2.13318,11.4197,0.518,7.10059,1142,5,
183.709,2.13318,11.4151,0.518,7.10059,1142,5,
183.709,2.13257,11.4136,0.518,7.10059,1142,5,
183.71,2.12799,11.4151,0.518,7.10059,1142,5,
183.71,2.12738,11.4166,0.518,7.10059,1142,5,
183.71,2.12769,11.4212,0.518,7.10059,1142,5,
183.71,2.12891,11.4166,0.518,7.10059,1142,5,
183.71,2.12799,11.4182,0.518,7.10059,1142,5,
183.71,2.12738,11.4151,0.518,7.10059,1142,5,
183.71,2.12341,11.4166,0.518,7.10059,1142,5,
183.71,2.1228,11.4151,0.518,7.10059,1142,5,
183.71,2.12311,11.4136,0.518,7.10059,1142,5,
183.71,2.12311,11.4166,0.518,7.10059,1142,5,
183.71,2.12402,11.4182,0.518,7.10059,1142,5,
183.71,2.12402,11.4197,0.518,7.10059,1142,5,
183.71,2.12219,11.4151,0.518,7.10059,1142,5,
183.71,2.11853,11.4166,0.518,7.10059,1142,5,
183.71,2.11853,11.4182,0.518,7.10059,1142,5,
183.71,2.11914,11.4166,0.518,7.10059,1142,5,
183.71,2.11853,11.4151,0.518,7.10059,1142,5,
183.71,2.11853,11.4166,0.518,7.10059,1142,5,
183.71,2.11823,11.4166,0.518,7.10059,1142,5,
183.71,2.11853,11.4166,0.518,7.10059,1142,5,
183.71,2.11823,11.4166,0.518,7.10059,1142,5,
183.71,2.11517,11.4197,0.518,7.10059,1142,5,
183.71,2.11334,11.4197,0.518,7.10059,1142,5,
183.71,2.11334,11.4151,0.518,7.10059,1142,5,
183.71,2.11273,11.4182,0.518,7.10059,1142,5,
183.71,2.11365,11.412,0.518,7.10059,1142,5,
183.71,2.11334,11.4014,0.518,7.10059,1142,5,
183.71,2.11426,11.4059,0.518,7.10059,1142,5,
183.71,2.11426,11.4059,0.518,7.10059,1142,5,
183.71,2.11426,11.4044,0.518,7.10059,1142,5,
183.711,2.11395,11.4044,0.518,7.10059,1142,5,
183.711,2.11395,11.4075,0.518,7.10059,1142,5,
183.711,2.11365,11.4059,0.518,7.10059,1142,5,
183.711,2.11395,11.4059,0.518,7.10059,1142,5,
183.711,2.11456,11.4029,0.518,7.10059,1142,5,
183.711,2.11029,11.4029,0.518,7.10059,1142,5,
183.711,2.10999,11.4044,0.518,7.10059,1142,5,
183.711,2.10999,11.4044,0.518,7.10059,1142,5,
183.711,2.10938,11.4044,0.518,7.10059,1142,5,
183.711,2.10968,11.4044,0.518,7.10059,1142,5,
183.711,2.10907,11.4059,0.518,7.10059,1142,5,
183.711,2.10938,11.4044,0.518,7.10059,1142,5,
183.711,2.10846,11.4059,0.518,7.10059,1142,5,
183.711,2.10876,11.4044,0.518,7.10059,1142,5,
183.711,2.10846,11.4059,0.518,7.10059,1142,5,
183.711,2.10815,11.4029,0.518,7.10059,1142,5,
183.711,2.10815,11.409,0.518,7.10059,1142,5,
183.711,2.10876,11.4029,0.518,7.10059,1142,5,
183.711,2.10846,11.4059,0.518,7.10059,1142,5,
183.711,2.10876,11.4044,0.518,7.10059,1142,5,
183.711,2.10785,11.4014,0.518,7.10059,1142,5,
183.711,2.10846,11.4029,0.518,7.10059,1142,5,
183.711,2.10815,11.4059,0.518,7.10059,1142,5,
183.711,2.10785,11.4044,0.518,7.10059,1142,5,
183.711,2.10815,11.4075,0.518,7.10059,1142,5,
183.711,2.10876,11.4044,0.518,7.10059,1142,5,
183.711,2.10815,11.4044,0.518,7.10059,1142,5,
183.711,2.10846,11.4029,0.518,7.10059,1142,5,
183.711,2.10876,11.4059,0.518,7.10059,1142,5,
183.712,2.10785,11.4075,0.518,7.10059,1142,5,
183.712,2.10876,11.4059,0.518,7.10059,1142,5,
183.712,2.10907,11.4044,0.518,7.10059,1142,5,
183.712,2.10815,11.4029,0.518,7.10059,1142,5,
183.712,2.10876,11.4075,0.518,7.10059,1142,5,
183.712,2.10938,11.409,0.518,7.10059,1142,5,
183.712,2.11334,11.4044,0.518,7.10059,1142,5,
183.712,2.11304,11.4059,0.518,7.10059,1142,5,
183.712,2.11365,11.3937,0.518,7.10059,1142,5,
183.712,2.11365,11.3907,0.518,7.10059,1142,5,
183.712,2.11304,11.3922,0.518,7.10059,1142,5,
183.712,2.11426,11.3937,0.518,7.10059,1142,5,
183.712,2.11304,11.3937,0.518,7.10059,1142,5,
183.712,2.11365,11.3953,0.518,7.10059,1142,5,
183.712,2.11365,11.3922,0.518,7.10059,1142,5,
183.712,2.11334,11.3937,0.518,7.10059,1142,5,
183.712,2.11273,11.3937,0.518,7.10059,1142,5,
183.712,2.11395,11.3922,0.518,7.10059,1142,5,
183.712,2.11365,11.3907,0.518,7.10059,1142,5,
183.712,2.11365,11.3937,0.518,7.10059,1142,5,
183.712,2.11304,11.3922,0.518,7.10059,1142,5,
183.712,2.11761,11.3937,0.518,7.10059,1142,5,
183.712,2.11853,11.3922,0.518,7.10059,1142,5,
183.712,2.11853,11.3937,0.518,7.10059,1142,5,
183.712,2.11853,11.3907,0.518,7.10059,1142,5,
183.712,2.11792,11.3953,0.518,7.10059,1142,5,
183.712,2.11823,11.3937,0.518,7.10059,1142,5,
183.712,2.11792,11.3922,0.518,7.10059,1142,5,
183.712,2.11792,11.3922,0.518,7.10059,1142,5,
183.712,2.11823,11.3907,0.518,7.10059,1142,5,
183.713,2.11853,11.3907,0.518,7.10059,1142,5,
183.713,2.11853,11.3953,0.518,7.10059,1142,5,
183.713,2.12311,11.3907,0.518,7.10059,1142,5,
183.713,2.1228,11.3937,0.518,7.10059,1142,5,
183.713,2.12372,11.3922,0.518,7.10059,1142,5,
183.713,2.12372,11.3953,0.518,7.10059,1142,5,
183.713,2.12341,11.3922,0.518,7.10059,1142,5,
183.713,2.12433,11.3922,0.518,7.10059,1142,5,
183.713,2.12311,11.3922,0.518,7.10059,1142,5,
183.713,2.12402,11.3892,0.518,7.10059,1142,5,
183.713,2.12646,11.3922,0.518,7.10059,1142,5,
183.713,2.1283,11.3922,0.518,7.10059,1142,5,
183.713,2.1283,11.3922,0.518,7.10059,1142,5,
183.713,2.12799,11.3922,0.518,7.10059,1142,5,
183.713,2.12769,11.3922,0.518,7.10059,1142,5,
183.713,2.12738,11.3907,0.518,7.10059,1142,5,
183.713,2.12769,11.3922,0.518,7.10059,1142,5,
183.713,2.12769,11.3922,0.518,7.10059,1142,5,
183.713,2.13226,11.3953,0.518,7.10059,1142,5,
183.713,2.13257,11.3907,0.518,7.10059,1142,5,
183.713,2.13379,11.3785,0.518,7.10059,1142,5,
183.713,2.13318,11.38,0.518,7.10059,1142,5,
183.713,2.13318,11.3815,0.518,7.10059,1142,5,
183.713,2.13287,11.3815,0.518,7.10059,1142,5,
183.713,2.13257,11.3831,0.518,7.10059,1142,5,
183.713,2.13715,11.377,0.518,7.10059,1142,5,
183.713,2.13745,11.38,0.518,7.10059,1142,5,
183.713,2.13806,11.3785,0.518,7.10059,1142,5,
183.713,2.13806,11.38,0.518,7.10059,1142,5,
183.713,2.13776,11.3846,0.518,7.10059,1142,5,
183.714,2.13867,11.38,0.518,7.10059,1142,5,
183.714,2.14172,11.3815,0.518,7.10059,1142,5,
183.714,2.14355,11.38,0.518,7.10059,1142,5,
183.714,2.14325,11.3815,0.518,7.10059,1142,5,
183.714,2.14294,11.377,0.518,7.10059,1142,5,
183.714,2.14294,11.3785,0.518,7.10059,1142,5,
183.714,2.14325,11.38,0.518,7.10059,1142,5,
183.714,2.14661,11.38,0.518,7.10059,1142,5,
183.714,2.14813,11.3785,0.518,7.10059,1142,5,
183.714,2.14783,11.38,0.518,7.10059,1142,5,
183.714,2.14813,11.38,0.518,7.10059,1142,5,
183.714,2.14844,11.38,0.518,7.10059,1142,5,
183.714,2.14813,11.3815,0.518,7.10059,1142,5,
183.714,2.1524,11.3785,0.518,7.10059,1142,5,
183.714,2.15271,11.38,0.518,7.10059,1142,5,
183.714,2.15271,11.3785,0.518,7.10059,1142,5,
183.714,2.15302,11.38,0.518,7.10059,1142,5,
183.714,2.15302,11.3785,0.518,7.10059,1142,5,
183.714,2.15607,11.3831,0.518,7.10059,1142,5,
183.714,2.1582,11.3785,0.518,7.10059,1142,5,
183.714,2.15759,11.3785,0.518,7.10059,1142,5,
183.714,2.1582,11.3815,0.518,7.10059,1142,5,
183.714,2.1579,11.377,0.518,7.10059,1142,5,
183.714,2.15881,11.3815,0.518,7.10059,1142,5,
183.714,2.16278,11.38,0.518,7.10059,1142,5,
183.714,2.16309,11.38,0.518,7.10059,1142,5,
183.714,2.16248,11.3815,0.518,7.10059,1142,5,
183.714,2.16248,11.38,0.518,7.10059,1142,5,
183.714,2.16583,11.3815,0.518,7.10059,1142,5,
183.714,2.16797,11.3815,0.518,7.10059,1142,5,
183.714,2.16766,11.38,0.518,7.10059,1142,5,
183.715,2.16766,11.3724,0.518,7.10059,1142,5,
183.715,2.16736,11.3678,0.518,7.10059,1142,5,
183.715,2.17194,11.3693,0.518,7.10059,1142,5,
183.715,2.17255,11.3663,0.518,7.10059,1142,5,
183.715,2.17316,11.3663,0.518,7.10059,1142,5,
183.715,2.17255,11.3678,0.518,7.10059,1142,5,
183.715,2.17682,11.3663,0.518,7.10059,1142,5,
183.715,2.17712,11.3663,0.518,7.10059,1142,5,
183.715,2.17773,11.3693,0.518,7.10059,1142,5,
183.715,2.17743,11.3647,0.518,7.10059,1142,5,
183.715,2.18079,11.3693,0.518,7.10059,1142,5,
183.715,2.18231,11.3663,0.518,7.10059,1142,5,
183.715,2.18262,11.3678,0.518,7.10059,1142,5,
183.715,2.1817,11.3678,0.518,7.10059,1142,5,
183.715,2.18597,11.3663,0.518,7.10059,1142,5,
183.715,2.18689,11.3647,0.518,7.10059,1142,5,
183.715,2.18689,11.3693,0.518,7.10059,1142,5,
183.715,2.18689,11.3693,0.518,7.10059,1142,5,
183.715,2.19177,11.3663,0.518,7.10059,1142,5,
183.715,2.19269,11.3693,0.518,7.10059,1142,5,
183.715,2.19116,11.3678,0.518,7.10059,1142,5,
183.715,2.19177,11.3709,0.518,7.10059,1142,5,
183.715,2.19635,11.3678,0.518,7.10059,1142,5,
183.715,2.19604,11.3663,0.518,7.10059,1142,5,
183.715,2.19666,11.3678,0.518,7.10059,1142,5,
183.715,2.20154,11.3678,0.518,7.10059,1142,5,
183.715,2.20123,11.3709,0.518,7.10059,1142,5,
183.715,2.20184,11.3647,0.518,7.10059,1142,5,
183.715,2.20276,11.3709,0.518,7.10059,1142,5,
183.715,2.20642,11.3663,0.518,7.10059,1142,5,
183.716,2.20642,11.3678,0.518,7.10059,1142,5,
183.716,2.20642,11.3709,0.518,7.10059,1142,5,
183.716,2.211,11.3678,0.518,7.10059,1142,5,
183.716,2.211,11.3678,0.518,7.10059,1142,5,
183.716,2.21161,11.3678,0.518,7.10059,1142,5,
183.716,2.21619,11.3678,0.518,7.10059,1142,5,
183.716,2.2168,11.3678,0.518,7.10059,1142,5,
183.716,2.21588,11.3678,0.518,7.10059,1142,5,
183.716,2.22107,11.3693,0.518,7.10059,1142,5,
183.716,2.22076,11.3663,0.518,7.10059,1142,5,
183.716,2.22137,11.3663,0.518,7.10059,1142,5,
183.716,2.22626,11.3663,0.518,7.10059,1142,5,
183.716,2.22687,11.3709,0.518,7.10059,1142,5,
183.716,2.22565,11.3556,0.518,7.10059,1142,5,
183.716,2.23083,11.3571,0.518,7.10059,1142,5,
183.716,2.23083,11.3556,0.518,7.10059,1142,5,
183.716,2.23206,11.3525,0.518,7.10059,1142,5,
183.716,2.23663,11.3571,0.518,7.10059,1142,5,
183.716,2.23541,11.3586,0.518,7.10059,1142,5,
183.716,2.23938,11.3571,0.518,7.10059,1142,5,
183.716,2.2406,11.3556,0.518,7.10059,1142,5,
183.716,2.24121,11.3571,0.518,7.10059,1142,5,
183.716,2.24579,11.3556,0.518,7.10059,1142,5,
183.716,2.2464,11.3541,0.518,7.10059,1142,5,
183.716,2.24884,11.3617,0.518,7.10059,1142,5,
183.716,2.25037,11.3571,0.518,7.10059,1142,5,
183.716,2.25037,11.3525,0.518,7.10059,1142,5,
183.716,2.25586,11.3556,0.518,7.10059,1142,5,
183.716,2.25494,11.3525,0.518,7.10059,1142,5,
183.716,2.26044,11.3525,0.518,7.10059,1142,5,
183.717,2.26074,11.3571,0.518,7.10059,1142,5,
183.717,2.26349,11.3525,0.518,7.10059,1142,5,
183.717,2.26532,11.3571,0.518,7.10059,1142,5,
183.717,2.26807,11.3586,0.518,7.10059,1142,5,
183.717,2.27081,11.3586,0.518,7.10059,1142,5,
183.717,2.27112,11.3556,0.518,7.10059,1142,5,
183.717,2.27631,11.3556,0.518,7.10059,1142,5,
183.717,2.27631,11.3571,0.518,7.10059,1142,5,
183.717,2.27966,11.3586,0.518,7.10059,1142,5,
183.717,2.28149,11.3525,0.518,7.10059,1142,5,
183.717,2.28546,11.3556,0.518,7.10059,1142,5,
183.717,2.28516,11.3556,0.518,7.10059,1142,5,
183.717,2.28943,11.3602,0.518,7.10059,1142,5,
183.717,2.29279,11.3556,0.518,7.10059,1142,5,
183.717,2.29492,11.3541,0.518,7.10059,1142,5,
183.717,2.29797,11.3586,0.518,7.10059,1142,5,
183.717,2.2995,11.3556,0.518,7.10059,1142,5,
183.717,2.30438,11.3556,0.518,7.10059,1142,5,
183.717,2.30438,11.3571,0.518,7.10059,1142,5,
183.717,2.30957,11.3556,0.518,7.10059,1142,5,
183.717,2.30988,11.3556,0.518,7.10059,1142,5,
183.717,2.31415,11.3556,0.518,7.10059,1142,5,
183.717,2.3175,11.3571,0.518,7.10059,1142,5,
183.717,2.31873,11.351,0.518,7.10059,1142,5,
183.717,2.3233,11.3541,0.518,7.10059,1142,5,
183.717,2.32452,11.3586,0.518,7.10059,1142,5,
183.717,2.3291,11.3571,0.518,7.10059,1142,5,
183.717,2.32971,11.3541,0.518,7.10059,1142,5,
183.717,2.33429,11.3419,0.518,7.10059,1142,5,
183.718,2.33795,11.3449,0.518,7.10059,1142,5,
183.718,2.33917,11.3449,0.518,7.10059,1142,5,
183.718,2.34375,11.3464,0.518,7.10059,1142,5,
183.718,2.34741,11.3434,0.518,7.10059,1142,5,
183.718,2.34772,11.3419,0.518,7.10059,1142,5,
183.718,2.35321,11.3434,0.518,7.10059,1142,5,
183.718,2.35413,11.3403,0.518,7.10059,1142,5,
183.718,2.3587,11.3419,0.518,7.10059,1142,5,
183.718,2.36328,11.3464,0.518,7.10059,1142,5,
183.718,2.36389,11.3464,0.518,7.10059,1142,5,
183.718,2.36816,11.3449,0.518,7.10059,1142,5,
183.718,2.37335,11.3419,0.518,7.10059,1142,5,
183.718,2.37366,11.3449,0.518,7.10059,1142,5,
183.718,2.37854,11.3434,0.518,7.10059,1142,5,
183.718,2.38342,11.3449,0.518,7.10059,1142,5,
183.718,2.38403,11.3449,0.518,7.10059,1142,5,
183.718,2.388,11.3434,0.518,7.10059,1142,5,
183.718,2.39166,11.3434,0.518,7.10059,1142,5,
183.718,2.39594,11.3449,0.518,7.10059,1142,5,
183.718,2.39716,11.3403,0.518,7.10059,1142,5,
183.718,2.40265,11.3419,0.518,7.10059,1142,5,
183.718,2.40509,11.3419,0.518,7.10059,1142,5,
183.718,2.40753,11.3434,0.518,7.10059,1142,5,
183.718,2.41241,11.3434,0.518,7.10059,1142,5,
183.718,2.41699,11.3434,0.518,7.10059,1142,5,
183.718,2.41852,11.3449,0.518,7.10059,1142,5,
183.718,2.42249,11.3419,0.518,7.10059,1142,5,
183.718,2.42737,11.3449,0.518,7.10059,1142,5,
183.718,2.43042,11.3449,0.518,7.10059,1142,5,
183.718,2.43347,11.3434,0.518,7.10059,1142,5,
183.719,2.43652,11.3434,0.518,7.10059,1142,5,
183.719,2.44202,11.3434,0.518,7.10059,1142,5,
183.719,2.44507,11.3434,0.518,7.10059,1142,5,
183.719,2.4469,11.3434,0.518,7.10059,1142,5,
183.719,2.45148,11.3449,0.518,7.10059,1142,5,
183.719,2.45636,11.3434,0.518,7.10059,1142,5,
183.719,2.46002,11.3434,0.518,7.10059,1142,5,
183.719,2.46185,11.3403,0.518,7.10059,1142,5,
183.719,2.46613,11.3449,0.518,7.10059,1142,5,
183.719,2.47162,11.3434,0.518,7.10059,1142,5,
183.719,2.47559,11.3449,0.518,7.10059,1142,5,
183.719,2.47681,11.3464,0.518,7.10059,1142,5,
183.719,2.48169,11.3403,0.518,7.10059,1142,5,
183.719,2.48596,11.3449,0.518,7.10059,1142,5,
183.719,2.48962,11.3419,0.518,7.10059,1142,5,
183.719,2.49176,11.3297,0.518,7.10059,1142,5,
183.719,2.49603,11.3312,0.518,7.10059,1142,5,
183.719,2.50061,11.3312,0.518,7.10059,1142,5,
183.719,2.50397,11.3312,0.518,7.10059,1142,5,
183.719,2.50641,11.3327,0.518,7.10059,1142,5,
183.719,2.5116,11.3327,0.518,7.10059,1142,5,
183.719,2.51556,11.3297,0.518,7.10059,1142,5,
183.719,2.51923,11.3297,0.518,7.10059,1142,5,
183.719,2.52075,11.3312,0.518,7.10059,1142,5,
183.719,2.52533,11.3327,0.518,7.10059,1142,5,
183.719,2.53052,11.3297,0.518,7.10059,1142,5,
183.719,2.5351,11.3281,0.518,7.10059,1142,5,
183.719,2.53845,11.3312,0.518,7.10059,1142,5,
183.719,2.54059,11.3297,0.518,7.10059,1142,5,
183.719,2.54486,11.3297,0.518,7.10059,1142,5,
183.72,2.54974,11.3297,0.518,7.10059,1142,5,
183.72,2.55432,11.3327,0.518,7.10059,1142,5,
183.72,2.55798,11.3312,0.518,7.10059,1142,5,
183.72,2.55981,11.3312,0.518,7.10059,1142,5,
183.72,2.56439,11.3312,0.518,7.10059,1142,5,
183.72,2.56927,11.3327,0.518,7.10059,1142,5,
183.72,2.57233,11.3327,0.518,7.10059,1142,5,
183.72,2.57507,11.3312,0.518,7.10059,1142,5,
183.72,2.57935,11.3312,0.518,7.10059,1142,5,
183.72,2.58423,11.3312,0.518,7.10059,1142,5,
183.72,2.58881,11.3281,0,7.10059,1142,5,
183.72,2.59277,11.3297,0,7.10059,1142,5,
183.72,2.5943,11.3297,0,7.10059,1142,5,
183.72,2.59796,11.3327,0,7.10059,1142,5,
183.72,2.60468,11.3312,0,7.10059,1142,5,
183.72,2.60803,11.3342,0,7.10059,1142,5,
183.72,2.61139,11.3312,0,7.10059,1142,5,
183.72,2.61444,11.3342,0,7.10059,1142,5,
183.72,2.61902,11.3312,0,7.10059,1142,5,
183.72,2.6236,11.3327,0,7.10059,1142,5,
183.72,2.62787,11.3312,0,7.10059,1142,5,
183.72,2.63245,11.3312,0,7.10059,1142,5,
183.72,2.63611,11.3342,0,7.10059,1142,5,
183.72,2.63824,11.3327,0,7.10059,1142,5,
183.72,2.64252,11.3312,0,7.10059,1142,5,
183.72,2.6474,11.3312,0,7.10059,1142,5,
183.72,2.65228,11.3327,0,7.10059,1142,5,
183.72,2.65625,11.3297,0,7.10059,1142,5,
183.72,2.65839,11.3327,0,7.10059,1142,5,
183.72,2.66205,11.3327,0,7.10059,1142,5,
183.72,2.66724,11.319,0,7.10059,1142,5,
183.721,2.67212,11.3174,0,7.10059,1142,5,
183.721,2.6767,11.319,0,7.10059,1142,5,
183.721,2.68127,11.319,0,7.10059,1142,5,
183.721,2.6825,11.3174,0,7.10059,1142,5,
183.721,2.68707,11.3205,0,7.10059,1142,5,
183.721,2.69196,11.319,0,7.10059,1142,5,
183.721,2.69653,11.322,0,7.10059,1142,5,
183.721,2.69958,11.3205,0,7.10059,1142,5,
183.721,2.70203,11.3174,0,7.10059,1142,5,
183.721,2.7066,11.3144,0,7.10059,1142,5,
183.721,2.71088,11.319,0,7.10059,1142,5,
183.721,2.71515,11.319,0,7.10059,1142,5,
183.721,2.72064,11.3174,0,7.10059,1142,5,
183.721,2.72491,11.3235,0,7.10059,1142,5,
183.721,2.72644,11.3205,0,7.10059,1142,5,
183.721,2.73071,11.3174,0,7.10059,1142,5,
183.721,2.7359,11.3205,0,7.10059,1142,5,
183.721,2.74017,11.319,0,7.10059,1142,5,
183.721,2.74414,11.322,0,7.10059,1142,5,
183.721,2.74628,11.3174,0,7.10059,1142,5,
183.721,2.75085,11.319,0,7.10059,1142,5,
183.721,2.75513,11.3174,0,7.10059,1142,5,
183.721,2.76031,11.322,0,7.10059,1142,5,
183.721,2.76459,11.319,0,7.10059,1142,5,
183.721,2.76855,11.3205,0,7.10059,1142,5,
183.721,2.771,11.3174,0,7.10059,1142,5,
183.721,2.77527,11.3174,0,7.10059,1142,5,
183.721,2.77924,11.3159,0,7.10059,1142,5,
183.721,2.78473,11.319,0,7.10059,1142,5,
183.721,2.78839,11.319,0,7.10059,1142,5,
183.722,2.79022,11.3174,0,7.10059,1142,5,
183.722,2.7951,11.3174,0,7.10059,1142,5,
183.722,2.79938,11.319,0,7.10059,1142,5,
183.722,2.80457,11.3174,0,7.10059,1142,5,
183.722,2.80975,11.3159,0,7.10059,1142,5,
183.722,2.81281,11.319,0,7.10059,1142,5,
183.722,2.81494,11.3205,0,7.10059,1142,5,
183.722,2.81891,11.319,0,7.10059,1142,5,
183.722,2.8244,11.3174,0,7.10059,1142,5,
183.722,2.82928,11.3174,0,7.10059,1142,5,
183.722,2.83386,11.3159,0,7.10059,1142,5,
183.722,2.83783,11.3174,0,7.10059,1142,5,
183.722,2.83936,11.322,0,7.10059,1142,5,
183.722,2.84302,11.3174,0,7.10059,1142,5,
183.722,2.84912,11.3205,0,7.10059,1142,5,
183.722,2.85248,11.3174,0,7.10059,1142,5,
183.722,2.85645,11.3113,0,7.10059,1142,5,
183.722,2.86163,11.3098,0,7.10059,1142,5,
183.722,2.86377,11.3052,0,7.10059,1142,5,
183.722,2.86835,11.3068,0,7.10059,1142,5,
183.722,2.87384,11.3052,0,7.10059,1142,5,
183.722,2.8775,11.3052,0,7.10059,1142,5,
183.722,2.88147,11.3083,0,7.10059,1142,5,
183.722,2.88269,11.3083,0,7.10059,1142,5,
183.722,2.88757,11.3083,0,7.10059,1142,5,
183.722,2.89276,11.3052,0,7.10059,1142,5,
183.722,2.89703,11.3068,0,7.10059,1142,5,
183.722,2.90039,11.3083,0,7.10059,1142,5,
183.722,2.90314,11.3098,0,7.10059,1142,5,
183.722,2.9071,11.3068,0,7.10059,1142,5,
183.723,2.91229,11.3037,0,7.10059,1142,5,
183.723,2.91718,11.3068,0,7.10059,1142,5,
183.723,2.92053,11.3113,0,7.10059,1142,5,
183.723,2.92236,11.3083,0,7.10059,1142,5,
183.723,2.92694,11.3083,0,7.10059,1142,5,
183.723,2.93152,11.3052,0,7.10059,1142,5,
183.723,2.93671,11.3068,0,7.10059,1142,5,
183.723,2.94067,11.3098,0,7.10059,1142,5,
183.723,2.9422,11.3052,0,7.10059,1142,5,
183.723,2.94647,11.3068,0,7.10059,1142,5,
183.723,2.95166,11.3037,0,7.10059,1142,5,
183.723,2.95471,11.3052,0,7.10059,1142,5,
183.723,2.95746,11.3068,0,7.10059,1142,5,
183.723,2.96143,11.3083,0,7.10059,1142,5,
183.723,2.96631,11.3098,0,7.10059,1142,5,
183.723,2.97089,11.3052,0,7.10059,1142,5,
183.723,2.97455,11.3068,0,7.10059,1142,5,
183.723,2.97577,11.3052,0,7.10059,1142,5,
183.723,2.98065,11.3083,0,7.10059,1142,5,
183.723,2.98584,11.3068,0,7.10059,1142,5,
183.723,2.9892,11.3083,0,7.10059,1142,5,
183.723,2.99011,11.3083,0,7.10059,1142,5,
183.723,2.9953,11.3068,0,7.10059,1142,5,
183.723,3.00079,11.3083,0,7.10059,1142,5,
183.723,3.00415,11.3098,0,7.10059,1142,5,
183.723,3.00507,11.3083,0,7.10059,1142,5,
183.723,3.01025,11.3098,0,7.10059,1142,5,
183.723,3.01422,11.3068,0,7.10059,1142,5,
183.723,3.01544,11.3052,0,7.10059,1142,5,
183.724,3.01971,11.3083,0,7.10059,1142,5,
183.724,3.0249,11.3052,0,7.10059,1142,5,
183.724,3.02826,11.3052,0,7.10059,1142,5,
183.724,3.03101,11.3083,0,7.10059,1142,5,
183.724,3.03436,11.3083,0,7.10059,1142,5,
183.724,3.03986,11.3068,0,7.10059,1142,5,
183.724,3.04077,11.2976,0,7.10059,1142,5,
183.724,3.04535,11.2961,0,7.10059,1142,5,
183.724,3.05054,11.293,0,7.10059,1142,5,
183.724,3.05389,11.293,0,7.10059,1142,5,
183.724,3.05542,11.2961,0,7.10059,1142,5,
183.724,3.0603,11.2961,0,7.10059,1142,5,
183.724,3.06396,11.2946,0,7.10059,1142,5,
183.724,3.06519,11.2946,0,7.10059,1142,5,
183.724,3.06946,11.2976,0,7.10059,1142,5,
183.724,3.07373,11.293,0,7.10059,1142,5,
183.724,3.07404,11.2946,0,7.10059,1142,5,
183.724,3.07953,11.293,0,7.10059,1142,5,
183.724,3.0838,11.2946,0,7.10059,1142,5,
183.724,3.08441,11.2946,0,7.10059,1142,5,
183.724,3.08838,11.293,0,7.10059,1142,5,
183.724,3.09296,11.2946,0,7.10059,1142,5,
183.724,3.09326,11.2961,0,7.10059,1142,5,
183.724,3.09784,11.293,0,7.10059,1142,5,
183.724,3.10181,11.2915,0,7.10059,1142,5,
183.724,3.10333,11.2976,0,7.10059,1142,5,
183.724,3.10791,11.293,0,7.10059,1142,5,
183.724,3.11188,11.2946,0,7.10059,1142,5,
183.724,3.1131,11.2915,0,7.10059,1142,5,
183.724,3.11798,11.2946,0,7.10059,1142,5,
183.725,3.12164,11.2946,0,7.10059,1142,5,
183.725,3.12286,11.2961,0,7.10059,1142,5,
183.725,3.12775,11.2961,0,7.10059,1142,5,
183.725,3.12744,11.2946,0,7.10059,1142,5,
183.725,3.13263,11.2961,0,7.10059,1142,5,
183.725,3.13721,11.2946,0,7.10059,1142,5,
183.725,3.13782,11.2946,0,7.10059,1142,5,
183.725,3.14178,11.2915,0,7.10059,1142,5,
183.725,3.14575,11.2946,0,7.10059,1142,5,
183.725,3.14697,11.2946,0,7.10059,1142,5,
183.725,3.15186,11.2946,0,7.10059,1142,5,
183.725,3.15308,11.2915,0,7.10059,1142,5,
183.725,3.15674,11.2946,0,7.10059,1142,5,
183.725,3.15979,11.29,0,7.10059,1142,5,
183.725,3.16162,11.2961,0,7.10059,1142,5,
183.725,3.16711,11.293,0,7.10059,1142,5,
183.725,3.16742,11.293,0,7.10059,1142,5,
183.725,3.17169,11.2961,0,7.10059,1142,5,
183.725,3.17596,11.2961,0,7.10059,1142,5,
183.725,3.17719,11.293,0,7.10059,1142,5,
183.725,3.18146,11.2961,0,7.10059,1142,5,
183.725,3.18268,11.29,0,7.10059,1142,5,
183.725,3.18604,11.2946,0,7.10059,1142,5,
183.725,3.19092,11.293,0,7.10059,1142,5,
183.725,3.19122,11.293,0,7.10059,1142,5,
183.725,3.19611,11.2991,0,7.10059,1142,5,
183.725,3.19611,11.29,0,7.10059,1142,5,
183.725,3.2016,11.2808,0,7.10059,1142,5,
183.725,3.20435,11.2839,0,7.10059,1142,5,
183.725,3.20618,11.2823,0,7.10059,1142,5,
183.726,3.21167,11.2854,0,7.10059,1142,5,
183.726,3.21167,11.2808,0,7.10059,1142,5,
183.726,3.21625,11.2808,0,7.10059,1142,5,
183.726,3.21899,11.2823,0,7.10059,1142,5,
183.726,3.22052,11.2823,0,7.10059,1142,5,
183.726,3.22479,11.2793,0,7.10059,1142,5,
183.726,3.22571,11.2808,0,7.10059,1142,5,
183.726,3.23059,11.2823,0,7.10059,1142,5,
183.726,3.2312,11.2854,0,7.10059,1142,5,
183.726,3.23547,11.2839,0,7.10059,1142,5,
183.726,3.23914,11.2839,0,7.10059,1142,5,
183.726,3.24066,11.2839,0,7.10059,1142,5,
183.726,3.24341,11.2808,0,7.10059,1142,5,
183.726,3.24524,11.2839,0,7.10059,1142,5,
183.726,3.24951,11.2823,0,7.10059,1142,5,
183.726,3.25043,11.2808,0,7.10059,1142,5,
183.726,3.255,11.2823,0,7.10059,1142,5,
183.726,3.25592,11.2869,0,7.10059,1142,5,
183.726,3.25958,11.2823,0,7.10059,1142,5,
183.726,3.26111,11.2823,0,7.10059,1142,5,
183.726,3.26508,11.2808,0,7.10059,1142,5,
183.726,3.26813,11.2823,0,7.10059,1142,5,
183.726,3.26935,11.2823,0,7.10059,1142,5,
183.726,3.27301,11.2823,0,7.10059,1142,5,
183.726,3.27484,11.2823,0,7.10059,1142,5,
183.726,3.2782,11.2839,0,7.10059,1142,5,
183.726,3.28033,11.2839,0,7.10059,1142,5,
183.726,3.28461,11.2823,0,7.10059,1142,5,
183.726,3.2843,11.2823,0,7.10059,1142,5,
183.726,3.28857,11.2823,0,7.10059,1142,5,
183.726,3.2901,11.2823,0,7.10059,1142,5,
183.727,3.29407,11.2823,0,7.10059,1142,5,
183.727,3.29376,11.2808,0,7.10059,1142,5,
183.727,3.29956,11.2793,0,7.10059,1142,5,
183.727,3.29865,11.2808,0,7.10059,1142,5,
183.727,3.30353,11.2839,0,7.10059,1142,5,
183.727,3.30475,11.2823,0,7.10059,1142,5,
183.727,3.30933,11.2839,0,7.10059,1142,5,
183.727,3.30902,11.2839,0,7.10059,1142,5,
183.727,3.3136,11.2839,0,7.10059,1142,5,
183.727,3.31421,11.2808,0,7.10059,1142,5,
183.727,3.31879,11.2793,0,7.10059,1142,5,
183.727,3.31848,11.2793,0,7.10059,1142,5,
183.727,3.32367,11.2823,0,7.10059,1142,5,
183.727,3.32306,11.2839,0,7.10059,1142,5,
183.727,3.32703,11.2839,0,7.10059,1142,5,
183.727,3.32825,11.2823,0,7.10059,1142,5,
183.727,3.32916,11.2686,0,7.10059,1142,5,
183.727,3.33374,11.2717,0,7.10059,1142,5,
183.727,3.33374,11.2701,0,7.10059,1142,5,
183.727,3.33862,11.2701,0,7.10059,1142,5,
183.727,3.33893,11.2701,0,7.10059,1142,5,
183.727,3.3432,11.2701,0,7.10059,1142,5,
183.727,3.34351,11.2701,0,7.10059,1142,5,
183.727,3.34839,11.2686,0,7.10059,1142,5,
183.727,3.34808,11.2732,0,7.10059,1142,5,
183.727,3.35114,11.2671,0,7.10059,1142,5,
183.727,3.35358,11.2686,0,7.10059,1142,5,
183.727,3.35388,11.2671,0,7.10059,1142,5,
183.727,3.35846,11.2732,0,7.10059,1142,5,
183.727,3.35846,11.2717,0,7.10059,1142,5,
183.728,3.36273,11.2701,0,7.10059,1142,5,
183.728,3.36273,11.2717,0,7.10059,1142,5,
183.728,3.36609,11.2671,0,7.10059,1142,5,
183.728,3.367,11.2701,0,7.10059,1142,5,
183.728,3.36792,11.2686,0,7.10059,1142,5,
183.728,3.37311,11.2701,0,7.10059,1142,5,
183.728,3.3725,11.2732,0,7.10059,1142,5,
183.728,3.37616,11.2701,0,7.10059,1142,5,
183.728,3.37708,11.2701,0,7.10059,1142,5,
183.728,3.37738,11.2732,0,7.10059,1142,5,
183.728,3.38287,11.2701,0,7.10059,1142,5,
183.728,3.38287,11.2686,0,7.10059,1142,5,
183.728,3.38531,11.2656,0,7.10059,1142,5,
183.728,3.38745,11.2671,0,7.10059,1142,5,
183.728,3.38776,11.2701,0,7.10059,1142,5,
183.728,3.39233,11.2686,0,7.10059,1142,5,
183.728,3.39233,11.2549,0,7.10059,1142,5,
183.728,3.39355,11.2564,0,7.10059,1142,5,
183.728,3.39783,11.2579,0,7.10059,1142,5,
183.728,3.39691,11.2595,0,7.10059,1142,5,
183.728,3.40149,11.2564,0,7.10059,1142,5,
183.728,3.4021,11.2579,0,7.10059,1142,5,
183.728,3.4024,11.2579,0,7.10059,1142,5,
183.728,3.40698,11.2564,0,7.10059,1142,5,
183.728,3.40698,11.2564,0,7.10059,1142,5,
183.728,3.40942,11.2595,0,7.10059,1142,5,
183.728,3.41156,11.2579,0,7.10059,1142,5,
183.728,3.41248,11.261,0,7.10059,1142,5,
183.728,3.41644,11.2595,0,7.10059,1142,5,
183.728,3.41675,11.2595,0,7.10059,1142,5,
183.729,3.41675,11.2564,0,7.10059,1142,5,
183.729,3.42133,11.2595,0,7.10059,1142,5,
183.729,3.42194,11.2579,0,7.10059,1142,5,
183.729,3.42285,11.2595,0,7.10059,1142,5,
183.729,3.42682,11.2549,0,7.10059,1142,5,
183.729,3.42651,11.2579,0,7.10059,1142,5,
183.729,3.42987,11.2564,0,7.10059,1142,5,
183.729,3.43262,11.2579,0,7.10059,1142,5,
183.729,3.43201,11.2564,0,7.10059,1142,5,
183.729,3.43536,11.2595,0,7.10059,1142,5,
183.729,3.43658,11.2579,0,7.10059,1142,5,
183.729,3.43658,11.2549,0,7.10059,1142,5,
183.729,3.44147,11.2549,0,7.10059,1142,5,
183.729,3.44177,11.2579,0,7.10059,1142,5,
183.729,3.44086,11.2564,0,7.10059,1142,5,
183.729,3.44482,11.2595,0,7.10059,1142,5,
183.729,3.44635,11.261,0,7.10059,1142,5,
183.729,3.44604,11.2595,0,7.10059,1142,5,
183.729,3.45123,11.2595,0,7.10059,1142,5,
183.729,3.45093,11.2473,0,7.10059,1142,5,
183.729,3.45123,11.2442,0,7.10059,1142,5,
183.729,3.45551,11.2457,0,7.10059,1142,5,
183.729,3.45612,11.2412,0,7.10059,1142,5,
183.729,3.45612,11.2473,0,7.10059,1142,5,
183.729,3.461,11.2488,0,7.10059,1142,5,
183.729,3.46069,11.2442,0,7.10059,1142,5,
183.729,3.46039,11.2442,0,7.10059,1142,5,
183.729,3.46527,11.2442,0,7.10059,1142,5,
183.729,3.46558,11.2427,0,7.10059,1142,5,
183.73,3.46558,11.2473,0,7.10059,1142,5,
183.73,3.47076,11.2457,0,7.10059,1142,5,
183.73,3.47137,11.2473,0,7.10059,1142,5,
183.73,3.47015,11.2457,0,7.10059,1142,5,
183.73,3.47565,11.2457,0,7.10059,1142,5,
183.73,3.47595,11.2473,0,7.10059,1142,5,
183.73,3.47565,11.2503,0,7.10059,1142,5,
183.73,3.48022,11.2473,0,7.10059,1142,5,
183.73,3.47992,11.2488,0,7.10059,1142,5,
183.73,3.48022,11.2457,0,7.10059,1142,5,
183.73,3.4848,11.2457,0,7.10059,1142,5,
183.73,3.48572,11.2427,0,7.10059,1142,5,
183.73,3.48541,11.2427,0,7.10059,1142,5,
183.73,3.48999,11.2442,0,7.10059,1142,5,
183.73,3.49121,11.2442,0,7.10059,1142,5,
183.73,3.4906,11.2457,0,7.10059,1142,5,
183.73,3.49487,11.2442,0,7.10059,1142,5,
183.73,3.49457,11.2442,0,7.10059,1142,5,
183.73,3.49548,11.2457,0,7.10059,1142,5,
183.73,3.49884,11.2442,0,7.10059,1142,5,
183.73,3.49976,11.2442,0,7.10059,1142,5,
183.73,3.50067,11.2457,0,7.10059,1142,5,
183.73,3.50342,11.2457,0,7.10059,1142,5,
183.73,3.50586,11.2427,0,7.10059,1142,5,
183.73,3.50433,11.2442,0,7.10059,1142,5,
183.73,3.50586,11.2442,0,7.10059,1142,5,
183.73,3.50983,11.2457,0,7.10059,1142,5,
183.73,3.51044,11.2412,0,7.10059,1142,5,
183.73,3.50952,11.2442,0,7.10059,1142,5,
183.73,3.5141,11.2473,0,7.10059,1142,5,
183.731,3.51471,11.2457,0,7.10059,1142,5,
183.731,3.51471,11.2442,0,7.10059,1142,5,
183.731,3.5202,11.2457,0,7.10059,1142,5,
183.731,3.52081,11.2396,0,7.10059,1142,5,
183.731,3.5199,11.2488,0,7.10059,1142,5,
183.731,3.52478,11.2457,0,7.10059,1142,5,
183.731,3.52386,11.2442,0,7.10059,1142,5,
183.731,3.52478,11.2457,0,7.10059,1142,5,
183.731,3.52783,11.2381,0,7.10059,1142,5,
183.731,3.52936,11.2366,0,7.10059,1142,5,
183.731,3.52905,11.232,0,7.10059,1142,5,
183.731,3.53027,11.2335,0,7.10059,1142,5,
183.731,3.53394,11.232,0,7.10059,1142,5,
183.731,3.53455,11.232,0,7.10059,1142,5,
183.731,3.53424,11.2335,0,7.10059,1142,5,
183.731,3.53912,11.235,0,7.10059,1142,5,
183.731,3.53943,11.235,0,7.10059,1142,5,
183.731,3.53943,11.2289,0,7.10059,1142,5,
183.731,3.54401,11.2335,0,7.10059,1142,5,
183.731,3.54431,11.2335,0,7.10059,1142,5,
183.731,3.54401,11.235,0,7.10059,1142,5,
183.731,3.54736,11.232,0,7.10059,1142,5,
183.731,3.54919,11.235,0,7.10059,1142,5,
183.731,3.5495,11.2335,0,7.10059,1142,5,
183.731,3.54919,11.2335,0,7.10059,1142,5,
183.731,3.55469,11.235,0,7.10059,1142,5,
183.731,3.55469,11.235,0,7.10059,1142,5,
183.731,3.55469,11.2335,0,7.10059,1142,5,
183.731,3.55865,11.232,0,7.10059,1142,5,
183.731,3.55865,11.232,0,7.10059,1142,5,
183.732,3.55896,11.232,0,7.10059,1142,5,
183.732,3.55957,11.232,0,7.10059,1142,5,
183.732,3.56384,11.232,0,7.10059,1142,5,
183.732,3.56476,11.232,0,7.10059,1142,5,
183.732,3.56476,11.2366,0,7.10059,1142,5,
183.732,3.56934,11.235,0,7.10059,1142,5,
183.732,3.56873,11.232,0,7.10059,1142,5,
183.732,3.56903,11.2335,0,7.10059,1142,5,
183.732,3.57208,11.2335,0,7.10059,1142,5,
183.732,3.57361,11.2305,0,7.10059,1142,5,
183.732,3.57422,11.2335,0,7.10059,1142,5,
183.732,3.57452,11.2335,0,7.10059,1142,5,
183.732,3.57849,11.232,0,7.10059,1142,5,
183.732,3.57819,11.235,0,7.10059,1142,5,
183.732,3.57788,11.2335,0,7.10059,1142,5,
183.732,3.58307,11.2305,0,7.10059,1142,5,
183.732,3.58307,11.2335,0,7.10059,1142,5,
183.732,3.58307,11.235,0,7.10059,1142,5,
183.732,3.58459,11.235,0,7.10059,1142,5,
183.732,3.58917,11.2335,0,7.10059,1142,5,
183.732,3.58795,11.232,0,7.10059,1142,5,
183.732,3.58948,11.232,0,7.10059,1142,5,
183.732,3.59314,11.2335,0,7.10059,1142,5,
183.732,3.59375,11.235,0,7.10059,1142,5,
183.732,3.59375,11.235,0,7.10059,1142,5,
183.732,3.59344,11.2335,0,7.10059,1142,5,
183.732,3.59772,11.232,0,7.10059,1142,5,
183.732,3.59802,11.232,0,7.10059,1142,5,
183.732,3.59924,11.2335,0,7.10059,1142,5,
183.732,3.6026,11.232,0,7.10059,1142,5,
183.732,3.60291,11.235,0,7.10059,1142,5,
