2900-SECPT.acq
2 msec/sample
6 channels
RSP, X, RSPEC-R
Volts
EDA, Y, PPGED-R
microsiemens
ECG R-R
Seconds
Respiration Rate
BPM
C7 - EDR
Peaks
C14 - Control
Volts
min,CH1,CH14,CH40,CH42,CH47,CH54,
,56204,56204,56204,56204,56204,56204,
79.3865,6.93359,11.8149,0.454,8.6881,338,0,
79.3865,6.93359,11.8195,0.454,8.6881,338,0,
79.3865,6.93298,11.8195,1.994,8.6881,338,0,
79.3866,6.93787,11.8179,1.994,8.6881,338,0,
79.3866,6.93817,11.8149,1.994,8.6881,338,0,
79.3866,6.93878,11.8179,1.994,8.6881,338,0,
79.3867,6.93787,11.8164,1.994,8.6881,338,0,
79.3867,6.93848,11.8179,1.994,8.6881,338,0,
79.3867,6.93787,11.8195,1.994,8.6881,338,0,
79.3868,6.93787,11.8195,1.994,8.6881,338,0,
79.3868,6.93787,11.8179,1.994,8.6881,338,0,
79.3868,6.94366,11.8179,1.994,8.6881,338,0,
79.3869,6.94244,11.821,1.994,8.6881,338,0,
79.3869,6.94244,11.8179,1.994,8.6881,338,0,
79.3869,6.94244,11.8179,1.994,8.6881,338,0,
79.387,6.94275,11.8195,1.994,8.6881,338,0,
79.387,6.94336,11.8179,1.994,8.6881,338,0,
79.387,6.94305,11.8179,1.994,8.6881,338,0,
79.3871,6.94275,11.821,1.994,8.6881,338,0,
79.3871,6.94397,11.8195,1.994,8.6881,338,0,
79.3871,6.94763,11.8164,1.994,8.6881,338,0,
79.3872,6.94824,11.8164,1.994,8.6881,338,0,
79.3872,6.94824,11.8164,1.994,8.6881,338,0,
79.3872,6.94794,11.8149,1.994,8.6881,338,0,
79.3873,6.94824,11.8195,1.994,8.6881,338,0,
79.3873,6.94824,11.8195,1.994,8.6881,338,0,
79.3873,6.94794,11.8179,1.994,8.6881,338,0,
79.3874,6.94763,11.8164,1.994,8.6881,338,0,
79.3874,6.94885,11.8164,1.994,8.6881,338,0,
79.3874,6.94794,11.8179,1.994,8.6881,338,0,
79.3875,6.94733,11.8179,1.994,8.6881,338,0,
79.3875,6.9519,11.8195,1.994,8.6881,338,0,
79.3875,6.95251,11.8164,1.994,8.6881,338,0,
79.3876,6.95312,11.8134,1.994,8.6881,338,0,
79.3876,6.95343,11.8195,1.994,8.6881,338,0,
79.3876,6.95282,11.821,1.994,8.6881,338,0,
79.3877,6.95282,11.8164,1.994,8.6881,338,0,
79.3877,6.95282,11.821,1.994,8.6881,338,0,
79.3877,6.95221,11.8195,1.994,8.6881,338,0,
79.3878,6.95312,11.8164,1.994,8.6881,338,0,
79.3878,6.95221,11.8179,1.994,8.6881,338,0,
79.3878,6.95221,11.8164,1.994,8.6881,338,0,
79.3879,6.95282,11.8195,1.994,8.6881,338,0,
79.3879,6.95343,11.8179,1.994,8.6881,338,0,
79.3879,6.95251,11.8195,1.994,8.6881,338,0,
79.388,6.95618,11.821,1.994,8.6881,338,0,
79.388,6.9574,11.8164,1.994,8.6881,338,0,
79.388,6.9577,11.8195,1.994,8.6881,338,0,
79.3881,6.9574,11.8195,1.994,8.6881,338,0,
79.3881,6.95709,11.8164,1.994,8.6881,338,0,
79.3881,6.9574,11.8286,1.994,8.6881,338,0,
79.3882,6.95801,11.8317,1.994,8.6881,338,0,
79.3882,6.9574,11.8317,1.994,8.6881,338,0,
79.3882,6.95801,11.8301,1.994,8.6881,338,0,
79.3883,6.95801,11.8301,1.994,8.6881,338,0,
79.3883,6.95709,11.8301,1.994,8.6881,338,0,
79.3883,6.95679,11.8301,1.994,8.6881,338,0,
79.3884,6.9574,11.8286,1.994,8.6881,338,0,
79.3884,6.9577,11.8301,1.994,8.6881,338,0,
79.3884,6.9574,11.8286,1.994,8.6881,338,0,
79.3885,6.9574,11.8301,1.994,8.6881,338,0,
79.3885,6.9574,11.8347,1.994,8.6881,338,0,
79.3885,6.96289,11.8317,1.994,8.6881,338,0,
79.3886,6.96228,11.8301,1.994,8.6881,338,0,
79.3886,6.96259,11.8286,1.994,8.6881,338,0,
79.3886,6.9632,11.8301,1.994,8.6881,338,0,
79.3887,6.96228,11.8301,1.994,8.6881,338,0,
79.3887,6.96198,11.8286,1.994,8.6881,338,0,
79.3887,6.96259,11.8286,1.994,8.6881,338,0,
79.3888,6.96289,11.8286,1.994,8.6881,338,0,
79.3888,6.96289,11.8317,1.994,8.6881,338,0,
79.3888,6.96289,11.8271,1.994,8.6881,338,0,
79.3889,6.96289,11.8317,1.994,8.6881,338,0,
79.3889,6.9632,11.8317,1.994,8.6881,338,0,
79.3889,6.96198,11.8301,1.994,8.6881,338,0,
79.389,6.96289,11.8317,1.994,8.6881,338,0,
79.389,6.96167,11.8301,1.994,8.6881,338,0,
79.389,6.96289,11.8301,1.994,8.6881,338,0,
79.3891,6.96716,11.8317,1.994,8.6881,338,0,
79.3891,6.96808,11.8317,1.994,8.6881,338,0,
79.3891,6.96686,11.8317,1.994,8.6881,338,0,
79.3892,6.96716,11.824,1.994,8.6881,338,0,
79.3892,6.96747,11.8301,1.994,8.6881,338,0,
79.3892,6.96747,11.8301,1.994,8.6881,338,0,
79.3893,6.96686,11.8286,1.994,8.6881,338,0,
79.3893,6.96747,11.8317,1.994,8.6881,338,0,
79.3893,6.96716,11.8286,1.994,8.6881,338,0,
79.3894,6.96686,11.8301,1.994,8.6881,338,0,
79.3894,6.96716,11.8317,1.994,8.6881,338,0,
79.3894,6.96777,11.8317,1.994,8.6881,338,0,
79.3895,6.96655,11.8271,1.994,8.6881,338,0,
79.3895,6.97235,11.8271,1.994,8.6881,338,0,
79.3895,6.97205,11.8271,1.994,8.6881,338,0,
79.3896,6.97174,11.8332,1.994,8.6881,338,0,
79.3896,6.97174,11.8286,1.994,8.6881,338,0,
79.3896,6.97113,11.8256,1.994,8.6881,338,0,
79.3897,6.97174,11.8286,1.994,8.6881,338,0,
79.3897,6.97174,11.8286,1.994,8.6881,338,0,
79.3897,6.97174,11.8317,1.994,8.6881,338,0,
79.3898,6.97235,11.8317,1.994,8.6881,338,0,
79.3898,6.97174,11.8317,1.994,8.6881,338,0,
79.3898,6.97235,11.8332,1.994,8.6881,338,0,
79.3899,6.97693,11.8317,1.994,8.6881,338,0,
79.3899,6.97662,11.8271,1.994,8.6881,338,0,
79.3899,6.97723,11.8301,1.994,8.6881,338,0,
79.39,6.97754,11.8301,1.994,8.6881,338,0,
79.39,6.97632,11.8271,1.994,8.6881,338,0,
79.39,6.97754,11.8301,1.994,8.6881,338,0,
79.3901,6.97693,11.8271,1.994,8.6881,338,0,
79.3901,6.97693,11.8317,1.994,8.6881,338,0,
79.3901,6.97601,11.8271,1.994,8.6881,338,0,
79.3902,6.9812,11.8286,1.994,8.6881,338,0,
79.3902,6.98242,11.8362,1.994,8.6881,338,0,
79.3902,6.98242,11.8271,1.994,8.6881,338,0,
79.3903,6.98242,11.8286,1.994,8.6881,338,0,
79.3903,6.98242,11.8317,1.994,8.6881,338,0,
79.3903,6.98151,11.8286,1.994,8.6881,338,0,
79.3904,6.98181,11.8301,1.994,8.6881,338,0,
79.3904,6.98181,11.8301,1.994,8.6881,338,0,
79.3904,6.98669,11.8271,1.994,8.6881,338,0,
79.3905,6.987,11.8271,1.994,8.6881,338,0,
79.3905,6.987,11.8286,1.994,8.6881,338,0,
79.3905,6.987,11.8332,1.994,8.6881,338,0,
79.3906,6.987,11.8301,1.994,8.6881,338,0,
79.3906,6.9873,11.8301,1.994,8.6881,338,0,
79.3906,6.98669,11.8317,1.994,8.6881,338,0,
79.3907,6.99005,11.8286,1.994,8.6881,338,0,
79.3907,6.9928,11.8301,1.994,8.6881,338,0,
79.3907,6.9928,11.8256,1.994,8.6881,338,0,
79.3908,6.99219,11.8256,1.994,8.6881,338,0,
79.3908,6.99219,11.8317,1.994,8.6881,338,0,
79.3908,6.99219,11.8286,1.994,8.6881,338,0,
79.3909,6.99219,11.8301,1.994,8.6881,338,0,
79.3909,6.99707,11.8286,1.994,8.6881,338,0,
79.3909,6.99646,11.8301,1.994,8.6881,338,0,
79.391,6.99738,11.8301,1.994,8.6881,338,0,
79.391,6.99738,11.8286,1.994,8.6881,338,0,
79.391,6.99738,11.8423,1.994,8.6881,338,0,
79.3911,6.99738,11.8439,1.994,8.6881,338,0,
79.3911,7.00226,11.8393,1.994,8.6881,338,0,
79.3911,7.00256,11.8423,1.994,8.6881,338,0,
79.3912,7.00256,11.8408,1.994,8.6881,338,0,
79.3912,7.00195,11.8439,1.994,8.6881,338,0,
79.3912,7.00134,11.8423,1.994,8.6881,338,0,
79.3913,7.00623,11.8439,1.994,8.6881,338,0,
79.3913,7.00653,11.8423,1.994,8.6881,338,0,
79.3913,7.00592,11.8423,1.994,8.6881,338,0,
79.3914,7.00653,11.8408,1.994,8.6881,338,0,
79.3914,7.00623,11.8408,1.994,8.6881,338,0,
79.3914,7.00958,11.8423,1.994,8.6881,338,0,
79.3915,7.01111,11.8423,1.994,8.6881,338,0,
79.3915,7.01172,11.8439,1.994,8.6881,338,0,
79.3915,7.0108,11.8423,1.994,8.6881,338,0,
79.3916,7.01172,11.8408,1.994,8.6881,338,0,
79.3916,7.01477,11.8423,1.994,8.6881,338,0,
79.3916,7.01538,11.8423,1.994,8.6881,338,0,
79.3917,7.0166,11.8454,1.994,8.6881,338,0,
79.3917,7.0163,11.8469,1.994,8.6881,338,0,
79.3917,7.01721,11.8393,1.994,8.6881,338,0,
79.3918,7.01935,11.8423,1.994,8.6881,338,0,
79.3918,7.02148,11.8439,1.994,8.6881,338,0,
79.3918,7.02148,11.8423,1.994,8.6881,338,0,
79.3919,7.02179,11.8393,1.994,8.6881,338,0,
79.3919,7.02118,11.8423,1.994,8.6881,338,0,
79.3919,7.02576,11.8408,1.994,8.6881,338,0,
79.392,7.02667,11.8439,1.994,8.6881,338,0,
79.392,7.02576,11.8408,1.994,8.6881,338,0,
79.392,7.02637,11.8408,1.994,8.6881,338,0,
79.3921,7.02972,11.8423,1.994,8.6881,338,0,
79.3921,7.03064,11.8423,1.994,8.6881,338,0,
79.3921,7.03125,11.8408,1.994,8.6881,338,0,
79.3922,7.03094,11.8439,1.994,8.6881,338,0,
79.3922,7.03033,11.8378,1.994,8.6881,338,0,
79.3922,7.03552,11.8423,1.994,8.6881,338,0,
79.3923,7.03552,11.8423,1.994,8.6881,338,0,
79.3923,7.03583,11.8439,1.994,8.6881,338,0,
79.3923,7.03583,11.8408,1.994,8.6881,338,0,
79.3924,7.03857,11.8423,1.994,8.6881,338,0,
79.3924,7.04102,11.8423,1.994,8.6881,338,0,
79.3924,7.04102,11.8423,1.994,8.6881,338,0,
79.3925,7.04102,11.8439,1.994,8.6881,338,0,
79.3925,7.04132,11.8408,1.994,8.6881,338,0,
79.3925,7.0459,11.8423,1.994,8.6881,338,0,
79.3926,7.04559,11.8423,1.994,8.6881,338,0,
79.3926,7.0459,11.8393,1.994,8.6881,338,0,
79.3926,7.04529,11.8393,1.994,8.6881,338,0,
79.3927,7.05017,11.8408,1.994,8.6881,338,0,
79.3927,7.05017,11.8393,1.994,8.6881,338,0,
79.3927,7.05109,11.8439,1.994,8.6881,338,0,
79.3928,7.05017,11.8423,1.994,8.6881,338,0,
79.3928,7.05109,11.8408,1.994,8.6881,338,0,
79.3928,7.05505,11.8439,1.994,8.6881,338,0,
79.3929,7.05566,11.8393,1.994,8.6881,338,0,
79.3929,7.05505,11.8469,1.994,8.6881,338,0,
79.3929,7.05566,11.8439,1.994,8.6881,338,0,
79.393,7.05963,11.8423,1.994,8.6881,338,0,
79.393,7.06024,11.8408,1.994,8.6881,338,0,
79.393,7.06024,11.8408,1.994,8.6881,338,0,
79.3931,7.05994,11.8408,1.994,8.6881,338,0,
79.3931,7.0636,11.8439,1.994,8.6881,338,0,
79.3931,7.06512,11.8393,1.994,8.6881,338,0,
79.3932,7.06543,11.8423,1.994,8.6881,338,0,
79.3932,7.06512,11.8393,1.994,8.6881,338,0,
79.3932,7.06482,11.8439,1.994,8.6881,338,0,
79.3933,7.0694,11.8408,1.994,8.6881,338,0,
79.3933,7.07001,11.8408,1.994,8.6881,338,0,
79.3933,7.0697,11.8408,1.994,8.6881,338,0,
79.3934,7.07031,11.8378,1.994,8.6881,338,0,
79.3934,7.07336,11.8439,1.994,8.6881,338,0,
79.3934,7.07489,11.8408,1.994,8.6881,338,0,
79.3935,7.0752,11.8469,1.994,8.6881,338,0,
79.3935,7.07458,11.8439,1.994,8.6881,338,0,
79.3935,7.0752,11.8423,1.994,8.6881,338,0,
79.3936,7.07947,11.8393,1.994,8.6881,338,0,
79.3936,7.08069,11.8423,1.994,8.6881,338,0,
79.3936,7.08008,11.8469,1.994,8.6881,338,0,
79.3937,7.08069,11.8408,1.994,8.6881,338,0,
79.3937,7.08282,11.8393,1.994,8.6881,338,0,
79.3937,7.08496,11.8423,1.994,8.6881,338,0,
79.3938,7.08466,11.8423,1.994,8.6881,338,0,
79.3938,7.08527,11.8408,1.994,8.6881,338,0,
79.3938,7.08496,11.8408,1.994,8.6881,338,0,
79.3939,7.08923,11.8469,1.994,8.6881,338,0,
79.3939,7.09045,11.8423,1.994,8.6881,338,0,
79.3939,7.08923,11.8423,1.994,8.6881,338,0,
79.394,7.08984,11.8439,1.994,8.6881,338,0,
79.394,7.09015,11.8423,1.994,8.6881,338,0,
79.394,7.09412,11.8423,1.994,8.6881,338,0,
79.3941,7.09534,11.8393,1.994,8.6881,338,0,
79.3941,7.09442,11.8423,1.994,8.6881,338,0,
79.3941,7.09503,11.8439,1.994,8.6881,338,0,
79.3942,7.09503,11.8439,1.994,8.6881,338,0,
79.3942,7.09961,11.8454,1.994,8.6881,338,0,
79.3942,7.09961,11.8439,1.994,8.6881,338,0,
79.3943,7.09961,11.8439,1.994,8.6881,338,0,
79.3943,7.09961,11.8393,1.994,8.6881,338,0,
79.3943,7.099,11.8408,1.994,8.6881,338,0,
79.3944,7.1048,11.8408,1.994,8.6881,338,0,
79.3944,7.1048,11.8423,1.994,8.6881,338,0,
79.3944,7.1048,11.8393,1.994,8.6881,338,0,
79.3945,7.1051,11.8439,1.994,8.6881,338,0,
79.3945,7.1048,11.8423,1.994,8.6881,338,0,
79.3945,7.10907,11.8408,1.994,8.6881,338,0,
79.3946,7.10938,11.8439,1.994,8.6881,338,0,
79.3946,7.10907,11.8439,1.994,8.6881,338,0,
79.3946,7.10907,11.8408,1.994,8.6881,338,0,
79.3947,7.10876,11.8408,1.994,8.6881,338,0,
79.3947,7.10999,11.8423,1.994,8.6881,338,0,
79.3947,7.11395,11.8393,1.994,8.6881,338,0,
79.3948,7.11426,11.8408,1.994,8.6881,338,0,
79.3948,7.11365,11.8454,1.994,8.6881,338,0,
79.3948,7.11426,11.8439,1.994,8.6881,338,0,
79.3949,7.11426,11.8423,1.994,8.6881,338,0,
79.3949,7.11884,11.8439,1.994,8.6881,338,0,
79.3949,7.12036,11.8423,1.994,8.6881,338,0,
79.395,7.11945,11.8408,1.994,8.6881,338,0,
79.395,7.11884,11.8408,1.994,8.6881,338,0,
79.395,7.11853,11.8439,1.994,8.6881,338,0,
79.3951,7.12006,11.8408,1.994,8.6881,338,0,
79.3951,7.12433,11.8408,1.994,8.6881,338,0,
79.3951,7.12433,11.8423,1.994,8.6881,338,0,
79.3952,7.12463,11.8454,1.994,8.6881,338,0,
79.3952,7.12433,11.8469,1.994,8.6881,338,0,
79.3952,7.12433,11.8408,1.994,8.6881,338,0,
79.3953,7.12708,11.8439,1.994,8.6881,338,0,
79.3953,7.12891,11.8423,1.994,8.6881,338,0,
79.3953,7.12891,11.8423,1.994,8.6881,338,0,
79.3954,7.12799,11.8439,1.994,8.6881,338,0,
79.3954,7.12891,11.8423,1.994,8.6881,338,0,
79.3954,7.1283,11.8378,1.994,8.6881,338,0,
79.3955,7.13348,11.8423,1.994,8.6881,338,0,
79.3955,7.13379,11.8393,1.994,8.6881,338,0,
79.3955,7.13409,11.8439,1.994,8.6881,338,0,
79.3956,7.1344,11.8408,1.994,8.6881,338,0,
79.3956,7.13379,11.8393,1.994,8.6881,338,0,
79.3956,7.13318,11.8469,1.994,8.6881,338,0,
79.3957,7.13898,11.8439,1.994,8.6881,338,0,
79.3957,7.13928,11.8423,1.994,8.6881,338,0,
79.3957,7.13867,11.8408,1.994,8.6881,338,0,
79.3958,7.13898,11.8439,1.994,8.6881,338,0,
79.3958,7.13928,11.8423,1.994,8.6881,338,0,
79.3958,7.13959,11.8454,1.994,8.6881,338,0,
79.3959,7.14325,11.8423,1.994,8.6881,338,0,
79.3959,7.14417,11.8408,1.994,8.6881,338,0,
79.3959,7.14355,11.8423,1.994,8.6881,338,0,
79.396,7.14325,11.8454,1.994,8.6881,338,0,
79.396,7.14386,11.8439,1.994,8.6881,338,0,
79.396,7.14325,11.8408,1.994,8.6881,338,0,
79.3961,7.14844,11.8423,1.994,8.6881,338,0,
79.3961,7.14813,11.8408,1.994,8.6881,338,0,
79.3961,7.14844,11.8393,1.994,8.6881,338,0,
79.3962,7.14874,11.8439,1.994,8.6881,338,0,
79.3962,7.14844,11.8408,1.994,8.6881,338,0,
79.3962,7.14874,11.8439,1.994,8.6881,338,0,
79.3963,7.15332,11.8393,1.994,8.6881,338,0,
79.3963,7.15332,11.8454,1.994,8.6881,338,0,
79.3963,7.15332,11.8439,1.994,8.6881,338,0,
79.3964,7.15424,11.8408,1.994,8.6881,338,0,
79.3964,7.15332,11.8439,1.994,8.6881,338,0,
79.3964,7.15393,11.8423,1.994,8.6881,338,0,
79.3965,7.1582,11.8423,1.994,8.6881,338,0,
79.3965,7.15851,11.8423,1.994,8.6881,338,0,
79.3965,7.15851,11.8423,1.994,8.6881,338,0,
79.3966,7.15881,11.8439,1.994,8.6881,338,0,
79.3966,7.15851,11.8393,1.994,8.6881,338,0,
79.3966,7.16064,11.8393,1.994,8.6881,338,0,
79.3967,7.16339,11.8408,1.994,8.6881,338,0,
79.3967,7.16309,11.8408,1.994,8.6881,338,0,
79.3967,7.16309,11.8408,1.994,8.6881,338,0,
79.3968,7.164,11.8393,1.994,8.6881,338,0,
79.3968,7.16278,11.8439,1.994,8.6881,338,0,
79.3968,7.16644,11.8408,1.994,8.6881,338,0,
79.3969,7.16827,11.8423,1.994,8.6881,338,0,
79.3969,7.16827,11.8423,1.994,8.6881,338,0,
79.3969,7.16858,11.8454,1.994,8.6881,338,0,
79.397,7.16736,11.8423,1.994,8.6881,338,0,
79.397,7.16858,11.8393,1.994,8.6881,338,0,
79.397,7.17224,11.8408,1.994,8.6881,338,0,
79.3971,7.17285,11.8439,1.994,8.6881,338,0,
79.3971,7.17316,11.8408,1.994,8.6881,338,0,
79.3971,7.17346,11.8439,1.994,8.6881,338,0,
79.3972,7.17224,11.8439,1.994,8.6881,338,0,
79.3972,7.17285,11.8454,1.994,8.6881,338,0,
79.3972,7.17682,11.8423,1.994,8.6881,338,0,
79.3973,7.17804,11.8408,1.994,8.6881,338,0,
79.3973,7.17773,11.8423,1.994,8.6881,338,0,
79.3973,7.17773,11.8439,1.994,8.6881,338,0,
79.3974,7.17804,11.8408,1.994,8.6881,338,0,
79.3974,7.17773,11.8408,1.994,8.6881,338,0,
79.3974,7.18262,11.8423,1.994,8.6881,338,0,
79.3975,7.18262,11.8423,1.994,8.6881,338,0,
79.3975,7.18262,11.8423,1.994,8.6881,338,0,
79.3975,7.18262,11.8408,1.994,8.6881,338,0,
79.3976,7.18292,11.8408,1.994,8.6881,338,0,
79.3976,7.18262,11.8408,1.994,8.6881,338,0,
79.3976,7.18658,11.8423,1.994,8.6881,338,0,
79.3977,7.18781,11.8408,1.994,8.6881,338,0,
79.3977,7.18689,11.8423,1.994,8.6881,338,0,
79.3977,7.18781,11.8408,1.994,8.6881,338,0,
79.3978,7.1875,11.8423,1.994,8.6881,338,0,
79.3978,7.18811,11.8454,1.994,8.6881,338,0,
79.3978,7.19177,11.8423,1.994,8.6881,338,0,
79.3979,7.19238,11.8408,1.994,8.6881,338,0,
79.3979,7.19177,11.8439,1.994,8.6881,338,0,
79.3979,7.19238,11.8408,1.994,8.6881,338,0,
79.398,7.19269,11.8408,1.994,8.6881,338,0,
79.398,7.19635,11.8454,1.994,8.6881,338,0,
79.398,7.19604,11.8439,1.994,8.6881,338,0,
79.3981,7.19818,11.8408,1.994,8.6881,338,0,
79.3981,7.19666,11.8439,1.994,8.6881,338,0,
79.3981,7.19727,11.8439,1.994,8.6881,338,0,
79.3982,7.19757,11.8454,1.994,8.6881,338,0,
79.3982,7.20154,11.8423,1.994,8.6881,338,0,
79.3982,7.20245,11.8454,1.994,8.6881,338,0,
79.3983,7.20184,11.8408,1.994,8.6881,338,0,
79.3983,7.20276,11.8408,1.994,8.6881,338,0,
79.3983,7.20245,11.8439,1.994,8.6881,338,0,
79.3984,7.20215,11.8423,1.994,8.6881,338,0,
79.3984,7.20734,11.8423,1.994,8.6881,338,0,
79.3984,7.20703,11.8423,1.994,8.6881,338,0,
79.3985,7.20764,11.8408,1.994,8.6881,338,0,
79.3985,7.20642,11.8439,1.994,8.6881,338,0,
79.3985,7.20673,11.8454,1.994,8.6881,338,0,
79.3986,7.21191,11.8439,1.994,8.6881,338,0,
79.3986,7.21222,11.8439,1.994,8.6881,338,0,
79.3986,7.21191,11.8454,1.994,8.6881,338,0,
79.3987,7.21161,11.8423,1.994,8.6881,338,0,
79.3987,7.21191,11.8408,1.994,8.6881,338,0,
79.3987,7.21771,11.8423,1.994,8.6881,338,0,
79.3988,7.21741,11.8439,1.994,8.6881,338,0,
79.3988,7.2168,11.8423,1.994,8.6881,338,0,
79.3988,7.21619,11.8408,1.994,8.6881,338,0,
79.3989,7.2168,11.8423,1.994,8.6881,338,0,
79.3989,7.22168,11.8423,1.994,8.6881,338,0,
79.3989,7.22137,11.8408,1.994,8.6881,338,0,
79.399,7.22229,11.8408,1.994,8.6881,338,0,
79.399,7.22168,11.8439,1.994,8.6881,338,0,
79.399,7.22107,11.8423,1.994,8.6881,338,0,
79.3991,7.22656,11.8439,1.994,8.6881,338,0,
79.3991,7.22687,11.8439,1.994,8.6881,338,0,
79.3991,7.22717,11.8439,1.994,8.6881,338,0,
79.3992,7.22626,11.8439,1.994,8.6881,338,0,
79.3992,7.22656,11.8408,1.994,8.6881,338,0,
79.3992,7.23175,11.8423,1.994,8.6881,338,0,
79.3993,7.23114,11.8423,1.994,8.6881,338,0,
79.3993,7.23145,11.8378,1.994,8.6881,338,0,
79.3993,7.23175,11.8439,1.994,8.6881,338,0,
79.3994,7.23236,11.8423,1.994,8.6881,338,0,
79.3994,7.23602,11.8408,1.994,8.6881,338,0,
79.3994,7.23633,11.8439,1.994,8.6881,338,0,
79.3995,7.23694,11.8423,1.994,8.6881,338,0,
79.3995,7.23663,11.8393,1.994,8.6881,338,0,
79.3995,7.24182,11.8408,1.994,8.6881,338,0,
79.3996,7.24121,11.8439,1.994,8.6881,338,0,
79.3996,7.24121,11.8439,1.994,8.6881,338,0,
79.3996,7.24182,11.8439,1.994,8.6881,338,0,
79.3997,7.24182,11.8423,1.994,8.6881,338,0,
79.3997,7.24548,11.8454,1.994,8.6881,338,0,
79.3997,7.2464,11.8454,1.994,8.6881,338,0,
79.3998,7.2467,11.8423,1.994,8.6881,338,0,
79.3998,7.24609,11.8393,1.994,8.6881,338,0,
79.3998,7.25128,11.8393,1.994,8.6881,338,0,
79.3999,7.25098,11.8454,1.994,8.6881,338,0,
79.3999,7.25067,11.8408,1.994,8.6881,338,0,
79.3999,7.25067,11.8423,1.994,8.6881,338,0,
79.4,7.25525,11.8408,1.994,8.6881,338,0,
79.4,7.25586,11.8439,1.994,8.6881,338,0,
79.4,7.25586,11.8469,1.994,8.6881,338,0,
79.4001,7.25647,11.8423,1.994,8.6881,338,0,
79.4001,7.25891,11.8454,1.994,8.6881,338,0,
79.4001,7.26074,11.8423,1.994,8.6881,338,0,
79.4002,7.26135,11.8454,1.994,8.6881,338,0,
79.4002,7.26105,11.8423,1.994,8.6881,338,0,
79.4002,7.2644,11.8408,1.994,8.6881,338,0,
79.4003,7.26593,11.8408,1.994,8.6881,338,0,
79.4003,7.26593,11.8439,1.994,8.6881,338,0,
79.4003,7.26593,11.8439,1.994,8.6881,338,0,
79.4004,7.2702,11.8439,1.994,8.6881,338,0,
79.4004,7.27081,11.8408,1.994,8.6881,338,0,
79.4004,7.27081,11.8423,1.994,8.6881,338,0,
79.4005,7.27112,11.8408,1.994,8.6881,338,0,
79.4005,7.27539,11.8439,1.994,8.6881,338,0,
79.4005,7.276,11.8408,1.06,8.6881,338,0,
79.4006,7.2757,11.8423,1.06,8.6881,338,0,
79.4006,7.27509,11.8423,1.06,8.6881,338,0,
79.4006,7.28058,11.8439,1.06,8.6881,338,0,
79.4007,7.28088,11.853,1.06,8.6881,338,0,
79.4007,7.28088,11.853,1.06,8.6881,338,0,
79.4007,7.28088,11.8515,1.06,8.6881,338,0,
79.4008,7.28546,11.853,1.06,8.6881,338,0,
79.4008,7.28516,11.853,1.06,8.6881,338,0,
79.4008,7.28546,11.8561,1.06,8.6881,338,0,
79.4009,7.29004,11.853,1.06,8.6881,338,0,
79.4009,7.29065,11.8561,1.06,8.6881,338,0,
79.4009,7.29126,11.8561,1.06,8.6881,338,0,
79.401,7.29065,11.853,1.06,8.6881,338,0,
79.401,7.29523,11.8515,1.06,8.6881,338,0,
79.401,7.29523,11.8576,1.06,8.6881,338,0,
79.4011,7.29523,11.8561,1.06,8.6881,338,0,
79.4011,7.30042,11.8546,1.06,8.6881,338,0,
79.4011,7.30042,11.8561,1.06,8.6881,338,0,
79.4012,7.30072,11.853,1.06,8.6881,338,0,
79.4012,7.30103,11.8546,1.06,8.6881,338,0,
79.4012,7.3053,11.8546,1.06,8.6881,338,0,
79.4013,7.30499,11.8485,1.06,8.6881,338,0,
79.4013,7.3056,11.8561,1.06,8.6881,338,0,
79.4013,7.30988,11.8561,1.06,8.6881,338,0,
79.4014,7.31049,11.8561,1.06,8.6881,338,0,
79.4014,7.31018,11.8561,1.06,8.6881,338,0,
79.4014,7.31445,11.853,1.06,8.6881,338,0,
79.4015,7.31537,11.853,1.06,8.6881,338,0,
79.4015,7.31567,11.8546,1.06,8.6881,338,0,
79.4015,7.31812,11.8561,1.06,8.6881,338,0,
79.4016,7.31995,11.853,1.06,8.6881,338,0,
79.4016,7.31995,11.8546,1.06,8.6881,338,0,
79.4016,7.31964,11.85,1.06,8.6881,338,0,
79.4017,7.32513,11.8561,1.06,8.6881,338,0,
79.4017,7.32483,11.8561,1.06,8.6881,338,0,
79.4017,7.32483,11.8546,1.06,8.6881,338,0,
79.4018,7.32971,11.8561,1.06,8.6881,338,0,
79.4018,7.3291,11.8561,1.06,8.6881,338,0,
79.4018,7.32971,11.8576,1.06,8.6881,338,0,
79.4019,7.3349,11.85,1.06,8.6881,338,0,
79.4019,7.33459,11.8561,1.06,8.6881,338,0,
79.4019,7.33521,11.8561,1.06,8.6881,338,0,
79.402,7.33917,11.8561,1.06,8.6881,338,0,
79.402,7.33948,11.8515,1.06,8.6881,338,0,
79.402,7.34009,11.8546,1.06,8.6881,338,0,
79.4021,7.34436,11.853,1.06,8.6881,338,0,
79.4021,7.34406,11.8561,1.06,8.6881,338,0,
79.4021,7.34375,11.8561,1.06,8.6881,338,0,
79.4022,7.34711,11.8561,1.06,8.6881,338,0,
79.4022,7.34955,11.8561,1.06,8.6881,338,0,
79.4022,7.34985,11.8515,1.06,8.6881,338,0,
79.4023,7.35229,11.8546,1.06,8.6881,338,0,
79.4023,7.35382,11.853,1.06,8.6881,338,0,
79.4023,7.35474,11.8576,1.06,8.6881,338,0,
79.4024,7.35718,11.8561,1.06,8.6881,338,0,
79.4024,7.3587,11.8561,1.06,8.6881,338,0,
79.4024,7.35901,11.853,1.06,8.6881,338,0,
79.4025,7.36267,11.853,1.06,8.6881,338,0,
79.4025,7.36328,11.8561,1.06,8.6881,338,0,
79.4025,7.3642,11.853,1.06,8.6881,338,0,
79.4026,7.36725,11.853,1.06,8.6881,338,0,
79.4026,7.36877,11.8561,1.06,8.6881,338,0,
79.4026,7.36847,11.853,1.06,8.6881,338,0,
79.4027,7.37183,11.8576,1.06,8.6881,338,0,
79.4027,7.37366,11.8515,1.06,8.6881,338,0,
79.4027,7.37427,11.8546,1.06,8.6881,338,0,
79.4028,7.37671,11.8561,1.06,8.6881,338,0,
79.4028,7.37854,11.853,1.06,8.6881,338,0,
79.4028,7.37915,11.8561,1.06,8.6881,338,0,
79.4029,7.38373,11.8561,1.06,8.6881,338,0,
79.4029,7.38373,11.853,1.06,8.6881,338,0,
79.4029,7.38312,11.853,1.06,8.6881,338,0,
79.403,7.38831,11.85,1.06,8.6881,338,0,
79.403,7.38831,11.8515,1.06,8.6881,338,0,
79.403,7.38861,11.8576,1.06,8.6881,338,0,
79.4031,7.39227,11.853,1.06,8.6881,338,0,
79.4031,7.3938,11.853,1.06,8.6881,338,0,
79.4031,7.39349,11.853,1.06,8.6881,338,0,
79.4032,7.39349,11.8546,1.06,8.6881,338,0,
79.4032,7.39319,11.8561,1.06,8.6881,338,0,
79.4032,7.39349,11.8515,1.06,8.6881,338,0,
79.4033,7.39349,11.8561,1.06,8.6881,338,0,
79.4033,7.39349,11.8515,1.06,8.6881,338,0,
79.4033,7.3941,11.853,1.06,8.6881,338,0,
79.4034,7.39349,11.8561,1.06,8.6881,338,0,
79.4034,7.39319,11.8561,1.06,8.6881,338,0,
79.4034,7.3938,11.8576,1.06,8.6881,338,0,
79.4035,7.3938,11.8515,1.06,18.7735,338,0,
79.4035,7.39258,11.8561,1.06,18.7735,338,0,
79.4035,7.3938,11.853,1.06,18.7735,338,0,
79.4036,7.39349,11.8546,1.06,18.7735,338,0,
79.4036,7.4173,11.8561,1.06,18.7735,338,0,
79.4036,7.41852,11.853,1.06,18.7735,338,0,
79.4037,7.42218,11.8576,1.06,18.7735,338,0,
79.4037,7.42218,11.8546,1.06,18.7735,338,0,
79.4037,7.42279,11.853,1.06,18.7735,338,0,
79.4038,7.42737,11.853,1.06,18.7735,338,0,
79.4038,7.42737,11.8515,1.06,18.7735,338,0,
79.4038,7.42798,11.8515,1.06,18.7735,338,0,
79.4039,7.43256,11.8561,1.06,18.7735,338,0,
79.4039,7.43195,11.853,1.06,18.7735,338,0,
79.4039,7.43225,11.8546,1.06,18.7735,338,0,
79.404,7.43652,11.8561,1.06,18.7735,338,0,
79.404,7.43774,11.8561,1.06,18.7735,338,0,
79.404,7.43835,11.8515,1.06,18.7735,338,0,
79.4041,7.44049,11.8668,1.06,18.7735,338,0,
79.4041,7.44324,11.8637,1.06,18.7735,338,0,
79.4041,7.44202,11.8668,1.06,18.7735,338,0,
79.4042,7.44629,11.8652,1.06,18.7735,338,0,
79.4042,7.4472,11.8622,1.06,18.7735,338,0,
79.4042,7.4469,11.8637,1.06,18.7735,338,0,
79.4043,7.44781,11.8668,1.06,18.7735,338,0,
79.4043,7.45209,11.8652,1.06,18.7735,338,0,
79.4043,7.45239,11.8652,1.06,18.7735,338,0,
79.4044,7.45178,11.8652,1.06,18.7735,338,0,
79.4044,7.45728,11.8652,1.06,18.7735,338,0,
79.4044,7.45697,11.8668,1.06,18.7735,338,0,
79.4045,7.45728,11.8668,1.06,18.7735,338,0,
79.4045,7.46033,11.8698,1.06,18.7735,338,0,
79.4045,7.46185,11.8683,1.06,18.7735,338,0,
79.4046,7.46185,11.8668,1.06,18.7735,338,0,
79.4046,7.46216,11.8698,1.06,18.7735,338,0,
79.4046,7.46674,11.8668,1.06,18.7735,338,0,
79.4047,7.46704,11.8668,1.06,18.7735,338,0,
79.4047,7.46674,11.8652,1.06,18.7735,338,0,
79.4047,7.47192,11.8683,1.06,18.7735,338,0,
79.4048,7.47162,11.8668,1.06,18.7735,338,0,
79.4048,7.47253,11.8668,1.06,18.7735,338,0,
79.4048,7.47192,11.8698,1.06,18.7735,338,0,
79.4049,7.47711,11.8668,1.06,18.7735,338,0,
79.4049,7.47681,11.8668,1.06,18.7735,338,0,
79.4049,7.4765,11.8652,1.06,18.7735,338,0,
79.405,7.47772,11.8668,1.06,18.7735,338,0,
79.405,7.4823,11.8683,1.06,18.7735,338,0,
79.405,7.48169,11.8668,1.06,18.7735,338,0,
79.4051,7.48199,11.8652,1.06,18.7735,338,0,
79.4051,7.48199,11.8683,1.06,18.7735,338,0,
79.4051,7.48779,11.8652,1.06,18.7735,338,0,
79.4052,7.48749,11.8668,1.06,18.7735,338,0,
79.4052,7.48718,11.8668,1.06,18.7735,338,0,
79.4052,7.48749,11.8698,1.06,18.7735,338,0,
79.4053,7.49207,11.8698,1.06,18.7735,338,0,
79.4053,7.49146,11.8668,1.06,18.7735,338,5,
79.4053,7.49146,11.8698,1.06,18.7735,338,5,
79.4054,7.49176,11.8668,1.06,18.7735,338,5,
79.4054,7.49603,11.8652,1.06,18.7735,338,5,
79.4054,7.49664,11.8683,1.06,18.7735,338,5,
79.4055,7.49573,11.8637,1.06,18.7735,338,5,
79.4055,7.49603,11.8698,1.06,18.7735,338,5,
79.4055,7.49695,11.8652,1.06,18.7735,338,5,
79.4056,7.50061,11.8698,1.06,18.7735,338,5,
79.4056,7.5,11.8668,1.06,18.7735,338,5,
79.4056,7.50061,11.8668,1.06,18.7735,338,5,
79.4057,7.50153,11.8683,1.06,18.7735,338,5,
79.4057,7.50122,11.8637,1.06,18.7735,338,5,
79.4057,7.50549,11.8668,1.06,18.7735,338,5,
79.4058,7.5061,11.8683,1.06,18.7735,338,5,
79.4058,7.5058,11.8683,1.06,18.7735,338,5,
79.4058,7.50549,11.8668,1.06,18.7735,338,5,
79.4059,7.5058,11.8729,1.06,18.7735,338,5,
79.4059,7.50977,11.8805,1.06,18.7735,338,5,
79.4059,7.51129,11.879,1.06,18.7735,338,5,
79.406,7.51099,11.8774,1.06,18.7735,338,5,
79.406,7.51099,11.8759,1.06,18.7735,338,5,
79.406,7.51068,11.879,1.06,18.7735,338,5,
79.4061,7.51129,11.8744,1.06,18.7735,338,5,
79.4061,7.51099,11.8805,1.06,18.7735,338,5,
79.4061,7.51648,11.879,1.06,18.7735,338,5,
79.4062,7.51556,11.8805,1.06,18.7735,338,5,
79.4062,7.51648,11.8774,1.06,18.7735,338,5,
79.4062,7.51587,11.879,1.06,18.7735,338,5,
79.4063,7.51648,11.879,1.06,18.7735,338,5,
79.4063,7.51587,11.8805,1.06,18.7735,338,5,
79.4063,7.51587,11.8759,1.06,18.7735,338,5,
79.4064,7.52014,11.8805,1.06,18.7735,338,5,
79.4064,7.52136,11.8805,1.06,18.7735,338,5,
79.4064,7.52014,11.8805,1.06,18.7735,338,5,
79.4065,7.52167,11.882,1.06,18.7735,338,5,
79.4065,7.52014,11.882,1.06,18.7735,338,5,
79.4065,7.52045,11.879,1.06,18.7735,338,5,
79.4066,7.51984,11.8805,1.06,18.7735,338,5,
79.4066,7.52045,11.8774,1.06,18.7735,338,5,
79.4066,7.51984,11.879,1.06,18.7735,338,5,
79.4067,7.52106,11.8759,1.06,18.7735,338,5,
79.4067,7.52594,11.8744,1.06,18.7735,338,5,
79.4067,7.52563,11.8759,1.06,18.7735,338,5,
79.4068,7.52533,11.879,1.06,18.7735,338,5,
79.4068,7.52594,11.8866,1.06,18.7735,338,5,
79.4068,7.52533,11.8912,1.06,18.7735,338,5,
79.4069,7.52563,11.8881,1.06,18.7735,338,5,
79.4069,7.52533,11.8912,1.06,18.7735,338,5,
79.4069,7.52563,11.8927,1.06,18.7735,338,5,
79.407,7.52502,11.8942,1.06,18.7735,338,5,
79.407,7.52563,11.8896,1.06,18.7735,338,5,
79.407,7.52563,11.8912,1.06,18.7735,338,5,
79.4071,7.52533,11.8896,1.06,18.7735,338,5,
79.4071,7.52533,11.8881,1.06,18.7735,338,5,
79.4071,7.52533,11.8927,1.06,18.7735,338,5,
79.4072,7.52563,11.8881,1.06,18.7735,338,5,
79.4072,7.52594,11.8912,1.06,18.7735,338,5,
79.4072,7.52594,11.8942,1.06,18.7735,338,5,
79.4073,7.52563,11.8881,1.06,18.7735,338,5,
79.4073,7.52533,11.8912,1.06,18.7735,338,5,
79.4073,7.52533,11.8896,1.06,18.7735,338,5,
79.4074,7.52563,11.8881,1.06,18.7735,338,5,
79.4074,7.52625,11.8927,1.06,18.7735,338,5,
79.4074,7.52502,11.8866,1.06,18.7735,338,5,
79.4075,7.52625,11.8912,1.06,18.7735,338,5,
79.4075,7.52563,11.8927,1.06,18.7735,338,5,
79.4075,7.52533,11.8881,1.06,18.7735,338,5,
79.4076,7.52625,11.8896,1.06,18.7735,338,5,
79.4076,7.52594,11.8927,1.06,18.7735,338,5,
79.4076,7.52502,11.8896,1.06,18.7735,338,5,
79.4077,7.52533,11.8881,1.06,18.7735,338,5,
79.4077,7.52625,11.8958,1.06,18.7735,338,5,
79.4077,7.52594,11.9034,1.06,18.7735,338,5,
79.4078,7.52563,11.9034,1.06,18.7735,338,5,
79.4078,7.52533,11.9003,1.06,18.7735,338,5,
79.4078,7.52594,11.9003,1.06,18.7735,338,5,
79.4079,7.52533,11.9019,1.06,18.7735,338,5,
79.4079,7.52533,11.9019,1.06,18.7735,338,5,
79.4079,7.52625,11.8988,1.06,18.7735,338,5,
79.408,7.52533,11.908,1.06,18.7735,338,5,
79.408,7.52533,11.9003,1.06,18.7735,338,5,
79.408,7.52594,11.8988,1.06,18.7735,338,5,
79.4081,7.52533,11.9034,1.06,18.7735,338,5,
79.4081,7.52533,11.9019,1.06,18.7735,338,5,
79.4081,7.52594,11.9049,1.06,18.7735,338,5,
79.4082,7.52625,11.9003,1.06,18.7735,338,5,
79.4082,7.52533,11.9019,1.06,18.7735,338,5,
79.4082,7.52045,11.9049,1.06,18.7735,338,5,
79.4083,7.52075,11.9003,1.06,18.7735,338,5,
79.4083,7.52045,11.9003,1.06,18.7735,338,5,
79.4083,7.52014,11.9034,1.06,18.7735,338,5,
79.4084,7.52045,11.9003,1.06,18.7735,338,5,
79.4084,7.52106,11.8973,1.06,18.7735,338,5,
79.4084,7.52045,11.9019,1.06,18.7735,338,5,
79.4085,7.52136,11.9049,1.06,18.7735,338,5,
79.4085,7.52136,11.9019,1.06,18.7735,338,5,
79.4085,7.52075,11.9034,1.06,18.7735,338,5,
79.4086,7.52106,11.9049,1.06,18.7735,338,5,
79.4086,7.51587,11.9034,1.06,18.7735,338,5,
79.4086,7.51587,11.9034,1.06,18.7735,338,5,
79.4087,7.51587,11.9125,1.06,18.7735,338,5,
79.4087,7.51617,11.9141,1.06,18.7735,338,5,
79.4087,7.51617,11.9141,1.06,18.7735,338,5,
79.4088,7.51648,11.9125,1.06,18.7735,338,5,
79.4088,7.51556,11.9156,1.06,18.7735,338,5,
79.4088,7.51617,11.9125,1.06,18.7735,338,5,
79.4089,7.51526,11.9156,1.06,18.7735,338,5,
79.4089,7.51099,11.9156,1.06,18.7735,338,5,
79.4089,7.51129,11.9156,1.06,18.7735,338,5,
79.409,7.51129,11.9156,1.06,18.7735,338,5,
79.409,7.51068,11.9125,1.06,18.7735,338,5,
79.409,7.51068,11.9141,1.06,18.7735,338,5,
79.4091,7.51038,11.9156,1.06,18.7735,338,5,
79.4091,7.51099,11.9141,1.06,18.7735,338,5,
79.4091,7.51068,11.9156,1.06,18.7735,338,5,
79.4092,7.5061,11.9125,1.06,18.7735,338,5,
79.4092,7.50641,11.9141,1.06,18.7735,338,5,
79.4092,7.50671,11.9156,1.06,18.7735,338,5,
79.4093,7.50671,11.9125,1.06,18.7735,338,5,
79.4093,7.50641,11.9156,1.06,18.7735,338,5,
79.4093,7.5061,11.9171,1.06,18.7735,338,5,
79.4094,7.50519,11.9156,1.06,18.7735,338,5,
79.4094,7.50153,11.9125,1.06,18.7735,338,5,
79.4094,7.50122,11.9156,1.06,18.7735,338,5,
79.4095,7.50183,11.9156,1.06,18.7735,338,5,
79.4095,7.50092,11.9141,1.06,18.7735,338,5,
79.4095,7.50061,11.9141,1.06,18.7735,338,5,
79.4096,7.50122,11.9141,1.06,18.7735,338,5,
79.4096,7.49725,11.9308,1.06,18.7735,338,5,
79.4096,7.49634,11.9232,1.06,18.7735,338,5,
79.4097,7.49725,11.9263,1.06,18.7735,338,5,
79.4097,7.49664,11.9263,1.06,18.7735,338,5,
79.4097,7.49634,11.9232,1.06,18.7735,338,5,
79.4098,7.49634,11.9278,1.06,18.7735,338,5,
79.4098,7.49359,11.9232,1.06,18.7735,338,5,
79.4098,7.49176,11.9308,1.06,18.7735,338,5,
79.4099,7.49146,11.9293,1.06,18.7735,338,5,
79.4099,7.49237,11.9263,1.06,18.7735,338,5,
79.4099,7.49146,11.9278,1.06,18.7735,338,5,
79.41,7.49237,11.9247,1.06,18.7735,338,5,
79.41,7.48779,11.9263,1.06,18.7735,338,5,
79.41,7.48688,11.9247,1.06,18.7735,338,5,
79.4101,7.48657,11.9263,1.06,18.7735,338,5,
79.4101,7.48627,11.9278,1.06,18.7735,338,5,
79.4101,7.48627,11.9293,1.06,18.7735,338,5,
79.4102,7.48657,11.9278,1.06,18.7735,338,5,
79.4102,7.48138,11.9247,1.06,18.7735,338,5,
79.4102,7.4823,11.9278,1.06,18.7735,338,5,
79.4103,7.48169,11.9324,1.06,18.7735,338,5,
79.4103,7.48169,11.9293,1.06,18.7735,338,5,
79.4103,7.48169,11.9278,1.06,18.7735,338,5,
79.4104,7.4823,11.9293,1.06,18.7735,338,5,
79.4104,7.47589,11.9232,1.06,18.7735,338,5,
79.4104,7.47711,11.937,1.06,18.7735,338,5,
79.4105,7.47711,11.9385,1.06,18.7735,338,5,
79.4105,7.4765,11.9415,1.06,18.7735,338,5,
79.4105,7.47681,11.94,1.06,18.7735,338,5,
79.4106,7.47284,11.9385,1.06,18.7735,338,5,
79.4106,7.47162,11.9385,1.06,18.7735,338,5,
79.4106,7.47223,11.94,1.06,18.7735,338,5,
79.4107,7.47223,11.9385,1.06,18.7735,338,5,
79.4107,7.47162,11.9385,1.06,18.7735,338,5,
79.4107,7.47101,11.94,1.06,18.7735,338,5,
79.4108,7.46765,11.937,1.06,18.7735,338,5,
79.4108,7.46735,11.9385,1.06,18.7735,338,5,
79.4108,7.46613,11.937,1.06,18.7735,338,5,
79.4109,7.46674,11.937,1.06,18.7735,338,5,
79.4109,7.46674,11.9385,1.06,18.7735,338,5,
79.4109,7.46674,11.94,1.06,18.7735,338,5,
79.411,7.46185,11.94,1.06,18.7735,338,5,
79.411,7.46185,11.937,1.06,18.7735,338,5,
79.411,7.46216,11.94,1.06,18.7735,338,5,
79.4111,7.46216,11.9415,1.06,18.7735,338,5,
79.4111,7.46185,11.94,1.06,18.7735,338,5,
79.4111,7.4585,11.9385,1.06,18.7735,338,5,
79.4112,7.45728,11.9492,1.06,18.7735,338,5,
79.4112,7.45728,11.9537,1.06,18.7735,338,5,
79.4112,7.45667,11.9507,1.06,18.7735,338,5,
79.4113,7.45728,11.9492,1.06,18.7735,338,5,
79.4113,7.45697,11.9461,1.06,18.7735,338,5,
79.4113,7.45331,11.9522,1.06,18.7735,338,5,
79.4114,7.45239,11.9507,1.06,18.7735,338,5,
79.4114,7.45178,11.9507,1.06,18.7735,338,5,
79.4114,7.45178,11.9507,1.06,18.7735,338,5,
79.4115,7.453,11.9537,1.06,18.7735,338,5,
79.4115,7.45209,11.9507,1.06,18.7735,338,5,
79.4115,7.44751,11.9507,1.06,18.7735,338,5,
79.4116,7.44659,11.9507,1.06,18.7735,338,5,
79.4116,7.44781,11.9537,1.06,18.7735,338,5,
79.4116,7.44659,11.9507,1.06,18.7735,338,5,
79.4117,7.4469,11.9522,1.06,18.7735,338,5,
79.4117,7.44629,11.9537,1.06,18.7735,338,5,
79.4117,7.44232,11.9492,1.06,18.7735,338,5,
79.4118,7.44263,11.9492,1.06,18.7735,338,5,
79.4118,7.44232,11.9598,1.06,18.7735,338,5,
79.4118,7.44171,11.9614,1.06,18.7735,338,5,
79.4119,7.44232,11.9629,1.06,18.7735,338,5,
79.4119,7.4411,11.9644,1.06,18.7735,338,5,
79.4119,7.43744,11.9629,1.06,18.7735,338,5,
79.412,7.43744,11.9659,1.06,18.7735,338,5,
79.412,7.43744,11.9614,1.06,18.7735,338,5,
79.412,7.43774,11.9644,1.06,18.7735,338,5,
79.4121,7.43683,11.9629,1.06,18.7735,338,5,
79.4121,7.43744,11.9659,1.06,18.7735,338,5,
79.4121,7.43225,11.9629,1.06,18.7735,338,5,
79.4122,7.43225,11.9659,1.06,18.7735,338,5,
79.4122,7.43286,11.9675,1.06,18.7735,338,5,
79.4122,7.43256,11.9659,1.06,18.7735,338,5,
79.4123,7.43256,11.9614,1.06,18.7735,338,5,
79.4123,7.43286,11.9644,1.06,18.7735,338,5,
79.4123,7.42737,11.9675,1.06,18.7735,338,5,
79.4124,7.42737,11.9629,1.06,18.7735,338,5,
79.4124,7.42767,11.9705,1.06,18.7735,338,5,
79.4124,7.42798,11.9736,1.06,18.7735,338,5,
79.4125,7.42767,11.9751,1.06,18.7735,338,5,
79.4125,7.42737,11.9751,1.06,18.7735,338,5,
79.4125,7.42401,11.9766,1.06,18.7735,338,5,
79.4126,7.42279,11.9751,1.06,18.7735,338,5,
79.4126,7.42218,11.9751,1.06,18.7735,338,5,
79.4126,7.4234,11.9736,1.06,18.7735,338,5,
79.4127,7.42249,11.9751,1.06,18.7735,338,5,
79.4127,7.42249,11.9782,1.06,18.7735,338,5,
79.4127,7.42279,11.9766,1.06,18.7735,338,5,
79.4128,7.41852,11.9782,1.06,18.7735,338,5,
79.4128,7.41791,11.9782,1.06,18.7735,338,5,
79.4128,7.4176,11.9782,1.06,18.7735,338,5,
79.4129,7.41791,11.9736,1.06,18.7735,338,5,
79.4129,7.41791,11.9766,1.06,18.7735,338,5,
79.4129,7.4176,11.9797,1.06,18.7735,338,5,
79.413,7.41882,11.9782,1.06,18.7735,338,5,
79.413,7.41394,11.9873,1.06,18.7735,338,5,
79.413,7.41333,11.9888,1.06,18.7735,338,5,
79.4131,7.41333,11.9888,1.06,18.7735,338,5,
79.4131,7.41302,11.9888,1.06,18.7735,338,5,
79.4131,7.41302,11.9888,1.06,18.7735,338,5,
79.4132,7.41241,11.9904,1.06,18.7735,338,5,
79.4132,7.41211,11.9904,1.06,18.7735,338,5,
79.4132,7.41028,11.9888,1.06,18.7735,338,5,
79.4133,7.40845,11.9873,1.06,18.7735,338,5,
79.4133,7.40845,11.9873,1.06,18.7735,338,5,
79.4133,7.40814,11.9888,1.06,18.7735,338,5,
79.4134,7.40814,11.9904,1.06,18.7735,338,5,
79.4134,7.40845,11.9919,1.06,18.7735,338,5,
79.4134,7.40814,11.9873,1.06,18.7735,338,5,
79.4135,7.40753,11.9858,1.06,18.7735,338,5,
79.4135,7.40387,11.9873,1.06,18.7735,338,5,
79.4135,7.40326,12.0041,1.06,18.7735,338,5,
79.4136,7.40234,11.9995,1.06,18.7735,338,5,
79.4136,7.40295,12.001,1.06,18.7735,338,5,
79.4136,7.40326,12.0026,1.06,18.7735,338,5,
79.4137,7.40326,12.0026,1.06,18.7735,338,5,
79.4137,7.40356,12.001,1.06,18.7735,338,5,
79.4137,7.40265,11.9995,1.06,18.7735,338,5,
79.4138,7.39929,11.9995,1.06,18.7735,338,5,
79.4138,7.39838,11.9995,1.06,18.7735,338,5,
79.4138,7.39807,12.0056,1.06,18.7735,338,5,
79.4139,7.39838,11.9995,1.06,18.7735,338,5,
79.4139,7.39807,12.001,1.06,18.7735,338,5,
79.4139,7.39807,12.0026,1.06,18.7735,338,5,
79.414,7.39777,12.001,1.06,18.7735,338,5,
79.414,7.39777,11.9995,1.06,18.7735,338,5,
79.414,7.39319,12.001,1.06,18.7735,338,5,
79.4141,7.39349,12.0117,1.06,18.7735,338,5,
79.4141,7.39258,12.0163,1.06,18.7735,338,5,
79.4141,7.39319,12.0163,1.06,18.7735,338,5,
79.4142,7.39319,12.0163,1.06,18.7735,338,5,
79.4142,7.39288,12.0132,1.06,18.7735,338,5,
79.4142,7.3938,12.0132,1.06,18.7735,338,5,
79.4143,7.39288,12.0117,1.06,18.7735,338,5,
79.4143,7.3938,12.0163,1.06,18.7735,338,5,
79.4143,7.38861,12.0117,1.06,18.7735,338,5,
79.4144,7.38892,12.0117,1.06,18.7735,338,5,
79.4144,7.38922,12.0117,1.06,18.7735,338,5,
79.4144,7.38892,12.0117,1.06,18.7735,338,5,
79.4145,7.38892,12.0117,1.06,18.7735,338,5,
79.4145,7.38831,12.0117,1.06,18.7735,338,5,
79.4145,7.38861,12.0132,1.06,18.7735,338,5,
79.4146,7.38892,12.0224,1.06,18.7735,338,5,
79.4146,7.38861,12.0224,1.06,18.7735,338,5,
79.4146,7.38342,12.0255,1.06,18.7735,338,5,
79.4147,7.38373,12.027,1.06,18.7735,338,5,
79.4147,7.38342,12.0255,1.06,18.7735,338,5,
79.4147,7.38403,12.0255,1.06,18.7735,338,5,
79.4148,7.38312,12.0239,1.06,18.7735,338,5,
79.4148,7.38342,12.0224,1.06,18.7735,338,5,
79.4148,7.38312,12.0209,1.06,18.7735,338,5,
79.4149,7.38373,12.027,1.06,18.7735,338,5,
79.4149,7.38434,12.0239,1.06,18.7735,338,5,
79.4149,7.38007,12.0239,1.06,18.7735,338,5,
79.415,7.37854,12.0224,1.06,18.7735,338,5,
79.415,7.37823,12.027,1.06,18.7735,338,5,
79.415,7.37885,12.0224,1.06,18.7735,338,5,
79.4151,7.37915,12.0377,1.06,18.7735,338,5,
79.4151,7.37915,12.0377,1.06,18.7735,338,5,
79.4151,7.37885,12.0346,1.06,18.7735,338,5,
79.4152,7.37885,12.0392,1.06,18.7735,338,5,
79.4152,7.37854,12.0377,1.06,18.7735,338,5,
79.4152,7.37946,12.0361,1.06,18.7735,338,5,
79.4153,7.37427,12.0407,1.06,18.7735,338,5,
79.4153,7.37427,12.0377,1.06,18.7735,338,5,
79.4153,7.37396,12.0361,1.06,18.7735,338,5,
79.4154,7.37335,12.0407,1.06,18.7735,338,5,
79.4154,7.37366,12.0377,1.06,18.7735,338,5,
79.4154,7.37366,12.0377,1.06,18.7735,338,5,
79.4155,7.37366,12.0392,1.06,18.7735,338,5,
79.4155,7.37335,12.0377,1.06,18.7735,338,5,
79.4155,7.37396,12.0346,1.06,18.7735,338,5,
79.4156,7.37366,12.0499,1.06,18.7735,338,5,
79.4156,7.37305,12.0483,1.06,18.7735,338,5,
79.4156,7.36847,12.0468,1.06,18.7735,338,5,
79.4157,7.36877,12.0483,1.06,18.7735,338,5,
79.4157,7.36877,12.0514,1.06,18.7735,338,5,
79.4157,7.36877,12.0499,1.06,18.7735,338,5,
79.4158,7.36938,12.0514,1.06,18.7735,338,5,
79.4158,7.36877,12.0529,1.06,18.7735,338,5,
79.4158,7.36908,12.0499,1.06,18.7735,338,5,
79.4159,7.36877,12.0453,1.06,18.7735,338,5,
79.4159,7.36908,12.0514,1.06,18.7735,338,5,
79.4159,7.36877,12.0468,1.06,18.7735,338,5,
79.416,7.36877,12.0483,1.06,18.7735,338,5,
79.416,7.36389,12.0483,1.06,18.7735,338,5,
79.416,7.36389,12.0621,1.06,18.7735,338,5,
79.4161,7.3642,12.0636,1.06,18.7735,338,5,
79.4161,7.3642,12.0621,1.06,18.7735,338,5,
79.4161,7.3642,12.059,1.06,18.7735,338,5,
79.4162,7.3642,12.0605,1.06,18.7735,338,5,
79.4162,7.36481,12.0636,1.06,18.7735,338,5,
79.4162,7.3642,12.0651,1.06,18.7735,338,5,
79.4163,7.3642,12.0605,1.06,18.7735,338,5,
79.4163,7.36389,12.0605,1.06,18.7735,338,5,
79.4163,7.3642,12.0605,1.06,18.7735,338,5,
79.4164,7.36023,12.0621,1.06,18.7735,338,5,
79.4164,7.35901,12.0605,1.06,18.7735,338,5,
79.4164,7.3587,12.0636,1.06,18.7735,338,5,
79.4165,7.35931,12.0636,1.06,18.7735,338,5,
79.4165,7.35962,12.0712,1.06,18.7735,338,5,
79.4165,7.35901,12.0712,1.06,18.7735,338,5,
79.4166,7.35901,12.0758,1.06,18.7735,338,5,
79.4166,7.35901,12.0773,1.06,18.7735,338,5,
79.4166,7.35962,12.0728,1.06,18.7735,338,5,
79.4167,7.35962,12.0743,1.06,18.7735,338,5,
79.4167,7.35931,12.0743,1.06,18.7735,338,5,
79.4167,7.35931,12.0712,1.06,18.7735,338,5,
79.4168,7.35901,12.0728,1.06,18.7735,338,5,
79.4168,7.35382,12.0728,1.06,18.7735,338,5,
79.4168,7.35443,12.0743,1.06,18.7735,338,5,
79.4169,7.35443,12.0758,1.06,18.7735,338,5,
79.4169,7.35413,12.0728,1.06,18.7735,338,5,
79.4169,7.35443,12.0819,1.06,18.7735,338,5,
79.417,7.35413,12.085,1.06,18.7735,338,5,
79.417,7.35382,12.0865,1.06,18.7735,338,5,
79.417,7.35413,12.088,1.06,18.7735,338,5,
79.4171,7.35443,12.0865,1.06,18.7735,338,5,
79.4171,7.35413,12.085,1.06,18.7735,338,5,
79.4171,7.35413,12.0865,1.06,18.7735,338,5,
79.4172,7.35352,12.088,1.06,18.7735,338,5,
79.4172,7.35443,12.0865,1.06,18.7735,338,5,
79.4172,7.35413,12.085,1.06,18.7735,338,5,
79.4173,7.34894,12.0834,1.06,18.7735,338,5,
79.4173,7.34924,12.0865,1.06,18.7735,338,5,
79.4173,7.34985,12.088,1.06,18.7735,338,5,
79.4174,7.34894,12.0941,1.06,18.7735,338,5,
79.4174,7.34955,12.1002,1.06,18.7735,338,5,
79.4174,7.34924,12.0987,1.06,18.7735,338,5,
79.4175,7.34955,12.1017,1.06,18.7735,338,5,
79.4175,7.34955,12.0972,1.06,18.7735,338,5,
79.4175,7.34924,12.1002,1.06,18.7735,338,5,
79.4176,7.34985,12.0987,1.06,18.7735,338,5,
79.4176,7.34985,12.1002,1.06,18.7735,338,5,
79.4176,7.34924,12.1017,1.06,18.7735,338,5,
79.4177,7.34894,12.1017,1.06,18.7735,338,5,
79.4177,7.34894,12.0972,1.06,18.7735,338,5,
79.4177,7.34894,12.0956,1.06,18.7735,338,5,
79.4178,7.34406,12.1002,1.06,18.7735,338,5,
79.4178,7.34436,12.1109,1.06,18.7735,338,5,
79.4178,7.34406,12.1094,1.06,18.7735,338,5,
79.4179,7.34406,12.1109,1.06,18.7735,338,5,
79.4179,7.34467,12.1109,1.06,18.7735,338,5,
79.4179,7.34436,12.1109,1.06,18.7735,338,5,
79.418,7.34375,12.1063,1.06,18.7735,338,5,
79.418,7.34436,12.1094,1.06,18.7735,338,5,
79.418,7.34406,12.1094,1.06,18.7735,338,5,
79.4181,7.34436,12.114,1.06,18.7735,338,5,
79.4181,7.34436,12.1094,1.06,18.7735,338,5,
79.4181,7.34375,12.1124,1.06,18.7735,338,5,
79.4182,7.34375,12.1109,1.06,18.7735,338,5,
79.4182,7.34344,12.1124,1.06,18.7735,338,5,
79.4182,7.34436,12.1246,1.06,18.7735,338,5,
79.4183,7.34375,12.1216,1.06,18.7735,338,5,
79.4183,7.34009,12.1246,1.06,18.7735,338,5,
79.4183,7.33917,12.1201,1.06,18.7735,338,5,
79.4184,7.33978,12.1246,1.06,18.7735,338,5,
79.4184,7.34039,12.1231,1.06,18.7735,338,5,
79.4184,7.33978,12.1231,1.06,18.7735,338,5,
79.4185,7.33978,12.1246,1.06,18.7735,338,5,
79.4185,7.34009,12.1216,1.06,18.7735,338,5,
79.4185,7.33887,12.1231,1.06,18.7735,338,5,
79.4186,7.33917,12.1216,1.06,18.7735,338,5,
79.4186,7.33948,12.1216,1.06,18.7735,338,5,
79.4186,7.33978,12.1353,1.06,18.7735,338,5,
79.4187,7.33948,12.1368,1.06,18.7735,338,5,
79.4187,7.33948,12.1353,1.06,18.7735,338,5,
79.4187,7.33948,12.1353,1.06,18.7735,338,5,
79.4188,7.33978,12.1353,1.06,18.7735,338,5,
79.4188,7.33978,12.1353,1.06,18.7735,338,5,
79.4188,7.33917,12.1353,1.06,18.7735,338,5,
79.4189,7.33521,12.1353,1.06,18.7735,338,5,
79.4189,7.33521,12.1368,1.06,18.7735,338,5,
79.4189,7.3349,12.1338,1.06,18.7735,338,5,
79.419,7.33521,12.1368,1.06,18.7735,338,5,
79.419,7.33429,12.1353,1.06,18.7735,338,5,
79.419,7.33459,12.1521,1.06,18.7735,338,5,
79.4191,7.3349,12.1475,1.06,18.7735,338,5,
79.4191,7.3349,12.1506,1.06,18.7735,338,5,
79.4191,7.33429,12.1475,1.06,18.7735,338,5,
79.4192,7.3349,12.149,1.06,18.7735,338,5,
79.4192,7.3349,12.1521,1.06,18.7735,338,5,
79.4192,7.3349,12.149,1.06,18.7735,338,5,
79.4193,7.3349,12.146,1.06,18.7735,338,5,
79.4193,7.33459,12.146,1.06,18.7735,338,5,
79.4193,7.33398,12.146,1.06,18.7735,338,5,
79.4194,7.3349,12.146,1.06,18.7735,338,5,
79.4194,7.33459,12.1674,1.06,18.7735,338,5,
79.4194,7.33032,12.1613,1.06,18.7735,338,5,
79.4195,7.33063,12.1628,1.06,18.7735,338,5,
79.4195,7.33063,12.1597,1.06,18.7735,338,5,
79.4195,7.33002,12.1597,1.06,18.7735,338,5,
79.4196,7.33063,12.1613,1.06,18.7735,338,5,
79.4196,7.33002,12.1582,1.06,18.7735,338,5,
79.4196,7.32971,12.1582,1.06,18.7735,338,5,
79.4197,7.33002,12.1613,1.06,18.7735,338,5,
79.4197,7.32941,12.1628,1.06,18.7735,338,5,
79.4197,7.33032,12.1735,1.06,18.7735,338,5,
79.4198,7.33032,12.1689,1.06,18.7735,338,5,
79.4198,7.33002,12.1765,1.06,18.7735,338,5,
79.4198,7.32941,12.1704,1.06,18.7735,338,5,
79.4199,7.32971,12.1735,1.06,18.7735,338,5,
79.4199,7.33032,12.1704,1.06,18.7735,338,5,
79.4199,7.32941,12.1735,1.06,18.7735,338,5,
79.42,7.32666,12.1704,1.06,18.7735,338,5,
79.42,7.32513,12.1719,1.06,18.7735,338,5,
79.42,7.32483,12.1796,1.06,18.7735,338,5,
79.4201,7.32422,12.1857,1.06,18.7735,338,5,
79.4201,7.32483,12.1826,1.06,18.7735,338,5,
79.4201,7.32544,12.1841,1.06,18.7735,338,5,
79.4202,7.32513,12.1872,1.06,18.7735,338,5,
79.4202,7.32452,12.1872,1.06,18.7735,338,5,
79.4202,7.32513,12.1811,1.06,18.7735,338,5,
79.4203,7.32452,12.1857,1.06,18.7735,338,5,
79.4203,7.32513,12.1872,1.06,18.7735,338,5,
79.4203,7.32544,12.1857,1.06,18.7735,338,5,
79.4204,7.32574,12.1948,1.06,18.7735,338,5,
79.4204,7.32544,12.1979,1.06,18.7735,338,5,
79.4204,7.32544,12.1948,1.06,18.7735,338,5,
79.4205,7.32513,12.1948,1.06,18.7735,338,5,
79.4205,7.32452,12.1964,1.06,18.7735,338,5,
79.4205,7.31995,12.1979,1.06,18.7735,338,5,
79.4206,7.32056,12.1979,1.06,18.7735,338,5,
79.4206,7.32025,12.1948,1.06,18.7735,338,5,
79.4206,7.31995,12.1964,1.06,18.7735,338,5,
79.4207,7.32025,12.1964,1.06,18.7735,338,5,
79.4207,7.31964,12.2101,1.06,18.7735,338,5,
79.4207,7.31995,12.2101,1.06,18.7735,338,5,
79.4208,7.31995,12.2101,1.06,18.7735,338,5,
79.4208,7.31995,12.2086,1.06,18.7735,338,5,
79.4208,7.31934,12.2101,1.06,18.7735,338,5,
79.4209,7.32056,12.2101,1.06,18.7735,338,5,
79.4209,7.31964,12.2101,1.06,18.7735,338,5,
79.4209,7.31964,12.2116,1.06,18.7735,338,5,
79.421,7.32025,12.207,1.06,18.7735,338,5,
79.421,7.32056,12.2101,1.06,18.7735,338,5,
79.421,7.31598,12.2223,1.06,18.7735,338,5,
79.4211,7.31506,12.2223,1.06,18.7735,338,5,
79.4211,7.31506,12.2238,1.06,18.7735,338,5,
79.4211,7.31506,12.2238,1.06,18.7735,338,5,
79.4212,7.31476,12.2223,1.06,18.7735,338,5,
79.4212,7.31445,12.2177,1.06,18.7735,338,5,
79.4212,7.31537,12.2223,1.06,18.7735,338,5,
79.4213,7.31506,12.2177,1.06,18.7735,338,5,
79.4213,7.31537,12.2253,1.06,18.7735,338,5,
79.4213,7.31567,12.2208,1.06,18.7735,338,5,
79.4214,7.31537,12.2345,1.06,18.7735,338,5,
79.4214,7.31598,12.233,1.06,18.7735,338,5,
79.4214,7.31506,12.2314,1.06,18.7735,338,5,
79.4215,7.30988,12.236,1.06,18.7735,338,5,
79.4215,7.31049,12.233,1.06,18.7735,338,5,
79.4215,7.30957,12.2345,1.06,18.7735,338,5,
79.4216,7.30988,12.2345,1.06,18.7735,338,5,
79.4216,7.31079,12.2345,1.06,18.7735,338,5,
79.4216,7.31079,12.2345,1.06,18.7735,338,5,
79.4217,7.31079,12.2314,1.06,18.7735,338,5,
79.4217,7.31049,12.2345,1.06,18.7735,338,5,
79.4217,7.31049,12.2437,1.06,18.7735,338,5,
79.4218,7.31049,12.2482,1.06,18.7735,338,5,
79.4218,7.31018,12.2498,1.06,18.7735,338,5,
79.4218,7.3056,12.2498,1.06,18.7735,338,5,
79.4219,7.3056,12.2467,1.06,18.7735,338,5,
79.4219,7.3056,12.2452,1.06,18.7735,338,5,
79.4219,7.30499,12.2482,1.06,18.7735,338,5,
79.422,7.3056,12.2437,1.06,18.7735,338,5,
79.422,7.3056,12.2437,1.06,18.7735,338,5,
79.422,7.3056,12.2498,1.06,18.7735,338,5,
79.4221,7.3056,12.2482,1.06,18.7735,338,5,
79.4221,7.3056,12.2589,1.06,18.7735,338,5,
79.4221,7.30591,12.2604,1.06,18.7735,338,5,
79.4222,7.30011,12.2574,1.06,18.7735,338,5,
79.4222,7.30072,12.2604,1.06,18.7735,338,5,
79.4222,7.30042,12.2604,1.06,18.7735,338,5,
79.4223,7.30072,12.2604,1.06,18.7735,338,5,
79.4223,7.30103,12.262,1.06,18.7735,338,5,
79.4223,7.30072,12.2559,1.06,18.7735,338,5,
79.4224,7.30103,12.262,1.06,18.7735,338,5,
79.4224,7.2998,12.2604,1.06,18.7735,338,5,
79.4224,7.30133,12.2559,1.06,18.7735,338,5,
79.4225,7.30042,12.2696,1.06,18.7735,338,5,
79.4225,7.29553,12.2711,1.06,18.7735,338,5,
79.4225,7.29584,12.2726,1.06,18.7735,338,5,
79.4226,7.29523,12.2711,1.06,18.7735,338,5,
79.4226,7.29584,12.2726,1.06,18.7735,338,5,
79.4226,7.29553,12.2726,1.06,18.7735,338,5,
79.4227,7.29614,12.2696,1.06,18.7735,338,5,
79.4227,7.29553,12.2711,1.06,18.7735,338,5,
79.4227,7.29462,12.2726,1.06,18.7735,338,5,
79.4228,7.29614,12.2726,1.06,18.7735,338,5,
79.4228,7.29187,12.2726,1.06,18.7735,338,5,
79.4228,7.29126,12.2726,1.06,18.7735,338,5,
79.4229,7.29126,12.2849,1.06,18.7735,338,5,
79.4229,7.29065,12.2849,1.06,18.7735,338,5,
79.4229,7.29095,12.2849,1.06,18.7735,338,5,
79.423,7.29065,12.2849,1.06,18.7735,338,5,
79.423,7.29065,12.2818,1.06,18.7735,338,5,
79.423,7.29065,12.2849,1.06,18.7735,338,5,
79.4231,7.29034,12.2833,1.06,18.7735,338,5,
79.4231,7.29095,12.2833,1.06,18.7735,338,5,
79.4231,7.28577,12.2849,1.06,18.7735,338,5,
79.4232,7.28577,12.2833,1.06,18.7735,338,5,
79.4232,7.28607,12.2849,1.06,18.7735,338,5,
79.4232,7.28607,12.2833,1.06,18.7735,338,5,
79.4233,7.28546,12.2955,1.06,18.7735,338,5,
79.4233,7.28546,12.294,1.06,18.7735,338,5,
79.4233,7.28638,12.2971,1.06,18.7735,338,5,
79.4234,7.28668,12.2955,1.06,18.7735,338,5,
79.4234,7.28607,12.294,1.06,18.7735,338,5,
79.4234,7.28302,12.2925,1.06,18.7735,338,5,
79.4235,7.28149,12.2955,1.06,18.7735,338,5,
79.4235,7.28058,12.2971,1.06,18.7735,338,5,
79.4235,7.28058,12.2971,1.06,18.7735,338,5,
79.4236,7.28119,12.2955,1.06,18.7735,338,5,
79.4236,7.28119,12.2955,1.06,18.7735,338,5,
79.4236,7.28058,12.2971,1.06,18.7735,338,5,
79.4237,7.28058,12.3077,1.06,18.7735,338,5,
79.4237,7.28027,12.3093,1.06,18.7735,338,5,
79.4237,7.2818,12.3093,1.06,18.7735,338,5,
79.4238,7.27722,12.3138,1.06,18.7735,338,5,
79.4238,7.27692,12.3093,1.06,18.7735,338,5,
79.4238,7.27631,12.3077,1.06,18.7735,338,5,
79.4239,7.27631,12.3123,1.06,18.7735,338,5,
79.4239,7.27661,12.3093,1.06,18.7735,338,5,
79.4239,7.27631,12.3108,1.06,18.7735,338,5,
79.424,7.276,12.3077,1.06,18.7735,338,5,
79.424,7.276,12.3062,1.06,18.7735,338,5,
79.424,7.2757,12.3062,1.06,18.7735,338,5,
79.4241,7.27509,12.3093,1.06,18.7735,338,5,
79.4241,7.27142,12.323,1.06,18.7735,338,5,
79.4241,7.27112,12.3215,1.06,18.7735,338,5,
79.4242,7.27081,12.3199,1.06,18.7735,338,5,
79.4242,7.27142,12.323,1.06,18.7735,338,5,
79.4242,7.27112,12.3169,1.06,18.7735,338,5,
79.4243,7.27203,12.3199,1.06,18.7735,338,5,
79.4243,7.27112,12.3199,1.06,18.7735,338,5,
79.4243,7.27112,12.3184,1.06,18.7735,338,5,
79.4244,7.27081,12.3184,1.06,18.7735,338,5,
79.4244,7.27112,12.323,1.06,18.7735,338,5,
79.4244,7.26685,12.323,1.06,18.7735,338,5,
79.4245,7.26624,12.3199,1.06,18.7735,338,5,
79.4245,7.26624,12.3306,1.06,18.7735,338,5,
79.4245,7.26593,12.3291,1.06,18.7735,338,5,
79.4246,7.26624,12.3322,1.06,18.7735,338,5,
79.4246,7.26624,12.3337,1.06,18.7735,338,5,
79.4246,7.26532,12.3367,1.06,18.7735,338,5,
79.4247,7.26593,12.3306,1.06,18.7735,338,5,
79.4247,7.26562,12.3322,1.06,18.7735,338,5,
79.4247,7.26624,12.3352,1.06,18.7735,338,5,
79.4248,7.26624,12.3337,1.06,18.7735,338,5,
79.4248,7.26166,12.3322,1.06,18.7735,338,5,
79.4248,7.26074,12.3322,1.06,18.7735,338,5,
79.4249,7.26074,12.3322,1.06,18.7735,338,5,
79.4249,7.26135,12.3322,1.06,18.7735,338,5,
79.4249,7.26074,12.3474,1.06,18.7735,338,5,
79.425,7.26044,12.3474,1.06,18.7735,338,5,
79.425,7.26135,12.3459,1.06,18.7735,338,5,
79.425,7.26074,12.3413,1.06,18.7735,338,5,
79.4251,7.26135,12.3459,1.06,18.7735,338,5,
79.4251,7.26044,12.3459,1.06,18.7735,338,5,
79.4251,7.26135,12.3474,1.06,18.7735,338,5,
79.4252,7.26074,12.3459,1.06,18.7735,338,5,
79.4252,7.25525,12.3444,1.06,18.7735,338,5,
79.4252,7.25555,12.3459,1.06,18.7735,338,5,
79.4253,7.25586,12.3459,1.06,18.7735,338,5,
79.4253,7.25677,12.3474,1.06,18.7735,338,5,
79.4253,7.25616,12.3459,1.06,18.7735,338,5,
79.4254,7.25586,12.3566,1.06,18.7735,338,5,
79.4254,7.25647,12.3581,1.06,18.7735,338,5,
79.4254,7.25586,12.3566,1.06,18.7735,338,5,
79.4255,7.25586,12.3566,1.06,18.7735,338,5,
79.4255,7.25616,12.3596,1.06,18.7735,338,5,
79.4255,7.25555,12.355,1.06,18.7735,338,5,
79.4256,7.25647,12.3566,1.06,18.7735,338,5,
79.4256,7.25281,12.3566,1.06,18.7735,338,5,
79.4256,7.25189,12.3581,1.06,18.7735,338,5,
79.4257,7.25067,12.355,1.06,18.7735,338,5,
79.4257,7.25067,12.3566,1.06,18.7735,338,5,
79.4257,7.25037,12.3581,1.06,18.7735,338,5,
79.4258,7.25128,12.3566,1.06,18.7735,338,5,
79.4258,7.25128,12.3718,1.06,18.7735,338,5,
79.4258,7.25128,12.3703,1.06,18.7735,338,5,
79.4259,7.25037,12.3703,1.06,18.7735,338,5,
79.4259,7.25098,12.3672,1.06,18.7735,338,5,
79.4259,7.25128,12.3703,1.06,18.7735,338,5,
79.426,7.25067,12.3642,1.06,18.7735,338,5,
79.426,7.25128,12.3688,1.06,18.7735,338,5,
79.426,7.24792,12.3688,1.06,18.7735,338,5,
79.4261,7.24701,12.3688,1.06,18.7735,338,5,
79.4261,7.24579,12.3703,1.06,18.7735,338,5,
79.4261,7.24548,12.3688,1.06,18.7735,338,5,
79.4262,7.2464,12.3688,1.06,18.7735,338,5,
79.4262,7.24701,12.3734,1.06,18.7735,338,5,
79.4262,7.24609,12.3764,1.06,18.7735,338,5,
79.4263,7.2464,12.3795,1.06,18.7735,338,5,
79.4263,7.24731,12.3795,1.06,18.7735,338,5,
79.4263,7.2467,12.3779,1.06,18.7735,338,5,
79.4264,7.24731,12.3856,1.06,18.7735,338,5,
79.4264,7.2467,12.3795,1.06,18.7735,338,5,
79.4264,7.24609,12.3795,1.06,18.7735,338,5,
79.4265,7.24304,12.3795,1.06,18.7735,338,5,
79.4265,7.24121,12.381,1.06,18.7735,338,5,
79.4265,7.24091,12.3795,1.06,18.7735,338,5,
79.4266,7.24213,12.381,1.06,18.7735,338,5,
79.4266,7.24152,12.381,1.06,18.7735,338,5,
79.4266,7.24152,12.381,1.06,18.7735,338,5,
79.4267,7.24182,12.3825,1.06,18.7735,338,5,
79.4267,7.24182,12.3962,1.06,18.7735,338,5,
79.4267,7.24152,12.3932,1.06,18.7735,338,5,
79.4268,7.24091,12.3947,1.06,18.7735,338,5,
79.4268,7.24182,12.3962,1.06,18.7735,338,5,
79.4268,7.24182,12.3932,1.06,18.7735,338,5,
79.4269,7.24152,12.3947,1.06,18.7735,338,5,
79.4269,7.2406,12.3932,1.06,18.7735,338,5,
79.4269,7.23663,12.3932,1.06,18.7735,338,5,
79.427,7.23572,12.3978,1.06,18.7735,338,5,
79.427,7.23663,12.3962,1.06,18.7735,338,5,
79.427,7.23633,12.3917,1.06,18.7735,338,5,
79.4271,7.23694,12.3932,1.06,18.7735,338,5,
79.4271,7.23694,12.3947,1.06,18.7735,338,5,
79.4271,7.23694,12.4039,1.06,18.7735,338,5,
79.4272,7.23663,12.4069,1.06,18.7735,338,5,
79.4272,7.23694,12.4069,1.06,18.7735,338,5,
79.4272,7.23724,12.4054,1.06,18.7735,338,5,
79.4273,7.23724,12.4054,1.06,18.7735,338,5,
79.4273,7.23633,12.4069,1.06,18.7735,338,5,
79.4273,7.23633,12.4069,1.06,18.7735,338,5,
79.4274,7.23602,12.4054,1.06,18.7735,338,5,
79.4274,7.23694,12.4084,1.06,18.7735,338,5,
79.4274,7.23145,12.4054,1.06,18.7735,338,5,
79.4275,7.23236,12.4069,1.06,18.7735,338,5,
79.4275,7.23175,12.4084,1.06,18.7735,338,5,
79.4275,7.23114,12.4054,1.06,18.7735,338,5,
79.4276,7.23206,12.4054,1.06,18.7735,338,5,
79.4276,7.23083,12.4176,1.06,18.7735,338,5,
79.4276,7.23083,12.4176,1.06,18.7735,338,5,
79.4277,7.23114,12.4146,1.06,18.7735,338,5,
79.4277,7.23206,12.4207,1.06,18.7735,338,5,
79.4277,7.23145,12.4191,1.06,18.7735,338,5,
79.4278,7.23206,12.4176,1.06,18.7735,338,5,
79.4278,7.23175,12.4207,1.06,18.7735,338,5,
79.4278,7.23175,12.4191,1.06,18.7735,338,5,
79.4279,7.23145,12.4191,1.06,18.7735,338,5,
79.4279,7.23206,12.4191,1.06,18.7735,338,5,
79.4279,7.22717,12.413,1.06,18.7735,338,5,
79.428,7.22656,12.4207,1.06,18.7735,338,5,
79.428,7.22656,12.4191,1.06,18.7735,338,5,
79.428,7.22626,12.4176,1.06,18.7735,338,5,
79.4281,7.22656,12.4252,1.06,18.7735,338,5,
79.4281,7.22687,12.4298,1.06,18.7735,338,5,
79.4281,7.22687,12.4329,1.06,18.7735,338,5,
79.4282,7.22626,12.4329,1.06,18.7735,338,5,
79.4282,7.22687,12.4298,1.06,18.7735,338,5,
79.4282,7.22565,12.4313,1.06,18.7735,338,5,
79.4283,7.22687,12.4313,1.06,18.7735,338,5,
79.4283,7.22687,12.4298,1.06,18.7735,338,5,
79.4283,7.22656,12.4298,1.06,18.7735,338,5,
79.4284,7.22687,12.4298,1.06,18.7735,338,5,
79.4284,7.22382,12.4313,1.06,18.7735,338,5,
79.4284,7.22076,12.4298,1.06,18.7735,338,5,
79.4285,7.22168,12.4298,1.06,18.7735,338,5,
79.4285,7.22229,12.4252,1.06,18.7735,338,5,
79.4285,7.22168,12.4313,1.06,18.7735,338,5,
79.4286,7.22137,12.4405,1.06,18.7735,338,5,
79.4286,7.22168,12.4451,1.06,18.7735,338,5,
79.4286,7.22198,12.4435,1.06,18.7735,338,5,
79.4287,7.22137,12.4405,1.06,18.7735,338,5,
79.4287,7.2226,12.4405,1.06,18.7735,338,5,
79.4287,7.22229,12.4405,1.06,18.7735,338,5,
79.4288,7.22198,12.439,1.06,18.7735,338,5,
79.4288,7.22198,12.4405,1.06,18.7735,338,5,
79.4288,7.22198,12.442,1.06,18.7735,338,5,
79.4289,7.22137,12.4405,1.06,18.7735,338,5,
79.4289,7.22168,12.4435,1.06,18.7735,338,5,
79.4289,7.2168,12.4435,1.06,18.7735,338,5,
79.429,7.2171,12.4435,1.06,18.7735,338,5,
79.429,7.2171,12.4435,1.06,18.7735,338,5,
79.429,7.2171,12.4451,1.06,18.7735,338,5,
79.4291,7.2171,12.4527,1.06,18.7735,338,5,
79.4291,7.2171,12.4573,1.06,18.7735,338,5,
79.4291,7.21649,12.4558,1.06,18.7735,338,5,
79.4292,7.2171,12.4527,1.06,18.7735,338,5,
79.4292,7.2168,12.4527,1.06,18.7735,338,5,
79.4292,7.21619,12.4512,1.06,18.7735,338,5,
79.4293,7.21771,12.4542,1.06,18.7735,338,5,
79.4293,7.21741,12.4512,1.06,18.7735,338,5,
79.4293,7.2171,12.4542,1.06,18.7735,338,5,
79.4294,7.2171,12.4542,1.06,18.7735,338,5,
79.4294,7.21741,12.4558,1.06,18.7735,338,5,
79.4294,7.21741,12.4542,1.06,18.7735,338,5,
79.4295,7.21619,12.4573,1.06,18.7735,338,5,
79.4295,7.21252,12.4573,1.06,18.7735,338,5,
79.4295,7.21222,12.4695,1.06,18.7735,338,5,
79.4296,7.21191,12.4649,1.06,18.7735,338,5,
79.4296,7.21252,12.4664,1.06,18.7735,338,5,
79.4296,7.21191,12.4664,1.06,18.7735,338,5,
79.4297,7.21222,12.4695,1.06,18.7735,338,5,
79.4297,7.21283,12.4649,1.06,18.7735,338,5,
79.4297,7.21191,12.4664,1.06,18.7735,338,5,
79.4298,7.21252,12.4664,1.06,18.7735,338,5,
79.4298,7.21161,12.4664,1.06,18.7735,338,5,
79.4298,7.21191,12.4664,1.06,18.7735,338,5,
79.4299,7.21252,12.4649,1.06,18.7735,338,5,
79.4299,7.21252,12.4634,1.06,18.7735,338,5,
79.4299,7.21222,12.4664,1.06,18.7735,338,5,
79.43,7.21222,12.4817,1.06,18.7735,338,5,
79.43,7.21161,12.4786,1.06,18.7735,338,5,
79.43,7.21191,12.4771,1.06,18.7735,338,5,
79.4301,7.21222,12.4817,1.06,18.7735,338,5,
79.4301,7.2113,12.4786,1.06,18.7735,338,5,
79.4301,7.20703,12.4802,1.06,18.7735,338,5,
79.4302,7.20703,12.4786,1.06,18.7735,338,5,
79.4302,7.20764,12.4817,1.06,18.7735,338,5,
79.4302,7.20734,12.4786,1.06,18.7735,338,5,
79.4303,7.20764,12.4802,1.06,18.7735,338,5,
79.4303,7.20764,12.4786,1.06,18.7735,338,5,
79.4303,7.20703,12.4771,1.06,18.7735,338,5,
79.4304,7.20734,12.4771,1.06,18.7735,338,5,
79.4304,7.20703,12.4908,1.06,18.7735,338,5,
79.4304,7.20703,12.4939,1.06,18.7735,338,5,
79.4305,7.20703,12.4908,1.06,18.7735,338,5,
79.4305,7.20703,12.4908,1.06,18.7735,338,5,
79.4305,7.20703,12.4924,1.06,18.7735,338,5,
79.4306,7.20581,12.4924,1.06,18.7735,338,5,
79.4306,7.20734,12.4893,1.06,18.7735,338,5,
79.4306,7.20734,12.4878,1.06,18.7735,338,5,
79.4307,7.20612,12.4893,1.06,18.7735,338,5,
79.4307,7.20673,12.4893,1.06,18.7735,338,5,
79.4307,7.20734,12.4908,1.06,18.7735,338,5,
79.4308,7.20642,12.4954,1.06,18.7735,338,5,
79.4308,7.20642,12.4939,1.06,18.7735,338,5,
79.4308,7.20276,12.4924,1.06,18.7735,338,5,
79.4309,7.20245,12.5031,1.06,18.7735,338,5,
79.4309,7.20154,12.5046,1.06,18.7735,338,5,
79.4309,7.20184,12.5046,1.06,18.7735,338,5,
79.431,7.20215,12.5076,1.06,18.7735,338,5,
79.431,7.20245,12.5046,1.06,18.7735,338,5,
79.431,7.20215,12.5015,1.06,18.7735,338,5,
79.4311,7.20215,12.5046,1.06,18.7735,338,5,
79.4311,7.20215,12.5031,1.06,18.7735,338,5,
79.4311,7.20123,12.5,1.06,18.7735,338,5,
79.4312,7.20215,12.5046,1.06,18.7735,338,5,
79.4312,7.20245,12.5046,1.06,18.7735,338,5,
79.4312,7.20215,12.5046,1.06,18.7735,338,5,
79.4313,7.20215,12.5061,1.06,18.7735,338,5,
79.4313,7.20215,12.5031,1.06,18.7735,338,5,
79.4313,7.20215,12.5122,1.06,18.7735,338,5,
79.4314,7.20276,12.5153,1.06,18.7735,338,5,
79.4314,7.20245,12.5183,1.06,18.7735,338,5,
79.4314,7.20215,12.5153,1.06,18.7735,338,5,
79.4315,7.20154,12.5168,1.06,18.7735,338,5,
79.4315,7.20245,12.5107,1.06,18.7735,338,5,
79.4315,7.20215,12.5153,1.06,18.7735,338,5,
79.4316,7.20245,12.5183,1.06,18.7735,338,5,
79.4316,7.19727,12.5168,1.06,18.7735,338,5,
79.4316,7.19727,12.5168,1.06,18.7735,338,5,
79.4317,7.19727,12.5153,1.06,18.7735,338,5,
79.4317,7.19727,12.5168,1.06,18.7735,338,5,
79.4317,7.19696,12.5137,1.06,18.7735,338,5,
79.4318,7.19696,12.5168,1.06,18.7735,338,5,
79.4318,7.19757,12.5168,1.06,18.7735,338,5,
79.4318,7.19727,12.5168,1.06,18.7735,338,5,
79.4319,7.19757,12.5198,1.06,18.7735,338,5,
79.4319,7.19788,12.5275,1.06,18.7735,338,5,
79.4319,7.19788,12.5305,1.06,18.7735,338,5,
79.432,7.19727,12.529,1.06,18.7735,338,5,
79.432,7.19727,12.5305,1.06,18.7735,338,5,
79.432,7.19727,12.5275,1.06,18.7735,338,5,
79.4321,7.19727,12.5275,1.06,18.7735,338,5,
79.4321,7.19788,12.5275,1.06,18.7735,338,5,
79.4321,7.19757,12.5259,1.06,18.7735,338,5,
79.4322,7.19757,12.5305,1.06,18.7735,338,5,
79.4322,7.19757,12.5305,1.06,18.7735,338,5,
79.4322,7.19788,12.5305,1.06,18.7735,338,5,
79.4323,7.19788,12.5275,1.06,18.7735,338,5,
79.4323,7.19818,12.5305,1.06,18.7735,338,5,
79.4323,7.19635,12.5259,1.06,18.7735,338,5,
79.4324,7.19666,12.5275,1.06,18.7735,338,5,
79.4324,7.19727,12.529,1.06,18.7735,338,5,
79.4324,7.19727,12.532,1.06,18.7735,338,5,
79.4325,7.19727,12.5259,1.06,18.7735,338,5,
79.4325,7.19269,12.5412,1.06,18.7735,338,5,
79.4325,7.19269,12.5412,1.06,18.7735,338,5,
79.4326,7.19269,12.5381,1.06,18.7735,338,5,
79.4326,7.19299,12.5397,1.06,18.7735,338,5,
79.4326,7.19269,12.5397,1.06,18.7735,338,5,
79.4327,7.19299,12.5397,1.06,18.7735,338,5,
79.4327,7.19299,12.5397,1.06,18.7735,338,5,
79.4327,7.19269,12.5412,1.06,18.7735,338,5,
79.4328,7.19238,12.5443,1.06,18.7735,338,5,
79.4328,7.19299,12.5381,1.06,18.7735,338,5,
79.4328,7.19269,12.5412,1.06,18.7735,338,5,
79.4329,7.1933,12.5427,1.06,18.7735,338,5,
79.4329,7.19238,12.5443,1.06,18.7735,338,5,
79.4329,7.19299,12.5412,1.06,18.7735,338,5,
79.433,7.19299,12.5397,1.06,18.7735,338,5,
79.433,7.19269,12.5412,1.06,18.7735,338,5,
79.433,7.19269,12.5397,1.06,18.7735,338,5,
79.4331,7.19299,12.5366,1.06,18.7735,338,5,
79.4331,7.19299,12.5427,1.06,18.7735,338,5,
79.4331,7.19269,12.5381,1.06,18.7735,338,5,
79.4332,7.19269,12.5397,1.06,18.7735,338,5,
79.4332,7.19269,12.5443,1.06,18.7735,338,5,
79.4332,7.19238,12.5534,1.06,18.7735,338,5,
79.4333,7.19299,12.5519,1.06,18.7735,338,5,
79.4333,7.19269,12.5488,1.06,18.7735,338,5,
79.4333,7.19299,12.5519,1.06,18.7735,338,5,
79.4334,7.19238,12.5519,1.06,18.7735,338,5,
79.4334,7.19238,12.5519,1.06,18.7735,338,5,
79.4334,7.18781,12.5549,1.06,18.7735,338,5,
79.4335,7.1875,12.5534,1.06,18.7735,338,5,
79.4335,7.1875,12.5504,1.06,18.7735,338,5,
79.4335,7.18719,12.5534,1.06,18.7735,338,5,
79.4336,7.1875,12.5534,1.06,18.7735,338,5,
79.4336,7.18781,12.5549,1.06,18.7735,338,5,
79.4336,7.1875,12.5534,1.06,18.7735,338,5,
79.4337,7.18811,12.5519,1.06,18.7735,338,5,
79.4337,7.18658,12.5534,1.06,18.7735,338,5,
79.4337,7.18781,12.5519,1.06,18.7735,338,5,
79.4338,7.18781,12.5519,1.06,18.7735,338,5,
79.4338,7.18719,12.5534,1.06,18.7735,338,5,
79.4338,7.1875,12.5519,1.06,18.7735,338,5,
79.4339,7.1875,12.5534,1.06,18.7735,338,5,
79.4339,7.1875,12.5504,1.06,18.7735,338,5,
79.4339,7.18781,12.5504,1.06,18.7735,338,5,
79.434,7.18781,12.561,1.06,18.7735,338,5,
79.434,7.18719,12.5656,1.06,18.7735,338,5,
79.434,7.1875,12.5717,1.06,18.7735,338,5,
79.4341,7.1875,12.5656,1.06,18.7735,338,5,
79.4341,7.18811,12.5656,1.06,18.7735,338,5,
79.4341,7.18689,12.5656,1.06,18.7735,338,5,
79.4342,7.18781,12.5656,1.06,18.7735,338,5,
79.4342,7.18719,12.5641,1.06,18.7735,338,5,
79.4342,7.18781,12.5626,1.06,18.7735,338,5,
79.4343,7.18658,12.5671,1.06,18.7735,338,5,
79.4343,7.18781,12.5656,1.06,18.7735,338,5,
79.4343,7.1875,12.5671,1.06,18.7735,338,5,
79.4344,7.18842,12.5641,1.06,18.7735,338,5,
79.4344,7.18811,12.5626,1.06,18.7735,338,5,
79.4344,7.18719,12.5656,1.06,18.7735,338,5,
79.4345,7.1875,12.5641,1.06,18.7735,338,5,
79.4345,7.18719,12.5641,1.06,18.7735,338,5,
79.4345,7.18781,12.5671,1.06,18.7735,338,5,
79.4346,7.18262,12.5641,1.06,18.7735,338,5,
79.4346,7.18262,12.5641,1.06,18.7735,338,5,
79.4346,7.18292,12.5641,1.06,18.7735,338,5,
79.4347,7.18262,12.5626,1.06,18.7735,338,5,
79.4347,7.18292,12.5763,1.06,18.7735,338,5,
79.4347,7.18292,12.5732,1.06,18.7735,338,5,
79.4348,7.18323,12.5793,1.06,18.7735,338,5,
79.4348,7.18262,12.5778,1.06,18.7735,338,5,
79.4348,7.18292,12.5748,1.06,18.7735,338,5,
79.4349,7.18262,12.5778,1.06,18.7735,338,5,
79.4349,7.18262,12.5778,1.06,18.7735,338,5,
79.4349,7.18292,12.5778,1.06,18.7735,338,5,
79.435,7.18262,12.5778,1.06,18.7735,338,5,
79.435,7.18323,12.5748,1.06,18.7735,338,5,
79.435,7.18262,12.5793,1.06,18.7735,338,5,
79.4351,7.18384,12.5748,1.06,18.7735,338,5,
79.4351,7.18292,12.5778,1.06,18.7735,338,5,
79.4351,7.18292,12.5748,1.06,18.7735,338,5,
79.4352,7.18292,12.5763,1.06,18.7735,338,5,
79.4352,7.18292,12.5748,1.06,18.7735,338,5,
79.4352,7.18231,12.5763,1.06,18.7735,338,5,
79.4353,7.18262,12.5748,1.06,18.7735,338,5,
79.4353,7.18262,12.5778,1.06,18.7735,338,5,
79.4353,7.18292,12.5763,1.06,18.7735,338,5,
79.4354,7.18384,12.587,1.06,18.7735,338,5,
79.4354,7.18292,12.59,1.06,18.7735,338,5,
79.4354,7.18323,12.59,1.06,18.7735,338,5,
79.4355,7.18323,12.5885,1.06,18.7735,338,5,
79.4355,7.18323,12.587,1.06,18.7735,338,5,
79.4355,7.18323,12.5916,1.06,18.7735,338,5,
79.4356,7.18292,12.587,1.06,18.7735,338,5,
79.4356,7.18384,12.5916,1.06,18.7735,338,5,
79.4356,7.18323,12.59,1.06,18.7735,338,5,
79.4357,7.18292,12.5916,1.06,18.7735,338,0,
79.4357,7.18323,12.5885,1.06,18.7735,338,0,
79.4357,7.18353,12.5931,1.06,18.7735,338,0,
79.4358,7.18231,12.5885,1.06,18.7735,338,0,
79.4358,7.18201,12.59,1.06,18.7735,338,0,
79.4358,7.18231,12.587,1.06,18.7735,338,0,
79.4359,7.18323,12.59,1.06,18.7735,338,0,
79.4359,7.18292,12.5885,1.06,18.7735,338,0,
79.4359,7.18323,12.59,1.06,18.7735,338,0,
79.436,7.18262,12.59,1.06,18.7735,338,0,
79.436,7.18262,12.59,1.06,18.7735,338,0,
79.436,7.18231,12.5885,1.06,18.7735,338,0,
79.4361,7.18323,12.6022,1.06,18.7735,338,0,
79.4361,7.18262,12.6007,1.06,18.7735,338,0,
79.4361,7.18292,12.6022,1.06,18.7735,338,0,
79.4362,7.18323,12.5977,1.06,18.7735,338,0,
79.4362,7.18262,12.6007,1.06,18.7735,338,0,
79.4362,7.18353,12.6038,1.06,18.7735,338,0,
79.4363,7.18262,12.6038,1.06,18.7735,338,0,
79.4363,7.18292,12.6022,1.06,18.7735,338,0,
79.4363,7.18323,12.6022,1.06,18.7735,338,0,
79.4364,7.18262,12.5992,1.06,18.7735,338,0,
79.4364,7.18292,12.5992,1.06,18.7735,338,0,
79.4364,7.18262,12.6038,1.06,18.7735,338,0,
79.4365,7.18262,12.6007,1.06,18.7735,338,0,
79.4365,7.18231,12.6007,1.06,18.7735,338,0,
79.4365,7.18262,12.6022,1.06,18.7735,338,0,
79.4366,7.18262,12.6007,1.06,18.7735,338,0,
79.4366,7.18292,12.6022,1.06,18.7735,338,0,
79.4366,7.18292,12.6022,1.06,18.7735,338,0,
79.4367,7.18323,12.6007,1.06,18.7735,338,0,
79.4367,7.18262,12.6144,1.06,18.7735,338,0,
79.4367,7.18323,12.6144,1.06,18.7735,338,0,
79.4368,7.18292,12.6144,1.06,18.7735,338,0,
79.4368,7.18292,12.6114,1.06,18.7735,338,0,
79.4368,7.18292,12.6114,1.06,18.7735,338,0,
79.4369,7.18201,12.6129,1.06,18.7735,338,0,
79.4369,7.18323,12.6144,1.06,18.7735,338,0,
79.4369,7.18323,12.6099,1.06,18.7735,338,0,
79.437,7.18292,12.6114,1.06,18.7735,338,0,
79.437,7.18292,12.6099,1.06,18.7735,338,0,
79.437,7.18323,12.6144,1.06,18.7735,338,0,
79.4371,7.18292,12.6129,1.06,18.7735,338,0,
79.4371,7.18292,12.6129,1.06,18.7735,338,0,
79.4371,7.18323,12.6099,1.06,18.7735,338,0,
79.4372,7.18292,12.6129,1.06,18.7735,338,0,
79.4372,7.18323,12.6129,1.06,18.7735,338,0,
79.4372,7.18323,12.616,1.06,18.7735,338,0,
79.4373,7.18323,12.6129,1.06,18.7735,338,0,
79.4373,7.18353,12.6114,1.06,18.7735,338,0,
79.4373,7.18323,12.6236,1.06,18.7735,338,0,
79.4374,7.18231,12.6251,1.06,18.7735,338,0,
79.4374,7.18292,12.6205,1.06,18.7735,338,0,
79.4374,7.18323,12.6236,1.06,18.7735,338,0,
79.4375,7.18292,12.6266,1.06,18.7735,338,0,
79.4375,7.18262,12.6251,1.06,18.7735,338,0,
79.4375,7.18292,12.6266,1.06,18.7735,338,0,
79.4376,7.18292,12.6236,1.06,18.7735,338,0,
79.4376,7.18262,12.6251,1.06,18.7735,338,0,
79.4376,7.18323,12.6236,1.06,18.7735,338,0,
79.4377,7.18201,12.6251,1.06,18.7735,338,0,
79.4377,7.18323,12.6266,1.06,18.7735,338,0,
79.4377,7.18262,12.6282,1.06,18.7735,338,0,
79.4378,7.18292,12.6266,1.06,18.7735,338,0,
79.4378,7.18353,12.6282,1.06,18.7735,338,0,
79.4378,7.18201,12.6251,1.06,18.7735,338,0,
79.4379,7.18384,12.6266,1.06,18.7735,338,0,
79.4379,7.18292,12.6221,1.06,18.7735,338,0,
79.4379,7.18353,12.6236,1.06,18.7735,338,0,
79.438,7.18262,12.6266,1.06,18.7735,338,0,
79.438,7.18323,12.6389,0,18.7735,338,0,
79.438,7.18292,12.6389,0,18.7735,338,0,
79.4381,7.18323,12.6404,0,18.7735,338,0,
79.4381,7.18353,12.6373,0,18.7735,338,0,
79.4381,7.18292,12.6343,0,18.7735,338,0,
79.4382,7.18323,12.6358,0,18.7735,338,0,
79.4382,7.18231,12.6328,2.254,18.7735,338,0,
79.4382,7.18353,12.6389,2.254,18.7735,338,0,
79.4383,7.18323,12.6343,2.254,18.7735,338,0,
79.4383,7.18262,12.6404,2.254,18.7735,338,0,
79.4383,7.18262,12.6389,2.254,18.7735,338,0,
79.4384,7.18292,12.6389,2.254,18.7735,338,0,
79.4384,7.18323,12.6358,2.254,18.7735,338,0,
79.4384,7.18323,12.6404,2.254,18.7735,338,0,
79.4385,7.18262,12.6389,2.254,18.7735,338,0,
79.4385,7.18292,12.6389,2.254,18.7735,338,0,
79.4385,7.18292,12.6373,2.254,18.7735,338,0,
79.4386,7.18323,12.6373,2.254,18.7735,338,0,
79.4386,7.18353,12.6389,2.254,18.7735,338,0,
79.4386,7.18323,12.645,2.254,18.7735,338,0,
79.4387,7.18323,12.6495,2.254,18.7735,338,0,
79.4387,7.18262,12.6511,2.254,18.7735,338,0,
79.4387,7.18262,12.6495,2.254,18.7735,338,0,
79.4388,7.18231,12.6495,2.254,18.7735,338,0,
79.4388,7.18292,12.6495,2.254,18.7735,338,0,
79.4388,7.18292,12.6495,2.254,18.7735,338,0,
79.4389,7.18323,12.648,2.254,18.7735,338,0,
79.4389,7.18292,12.6511,2.254,18.7735,338,0,
79.4389,7.18262,12.6495,2.254,18.7735,338,0,
79.439,7.18262,12.648,2.254,18.7735,338,0,
79.439,7.18323,12.6511,2.254,18.7735,338,0,
79.439,7.18323,12.6511,2.254,18.7735,338,0,
79.4391,7.18323,12.648,2.254,18.7735,338,0,
79.4391,7.18292,12.648,2.254,18.7735,338,0,
79.4391,7.18262,12.648,2.254,18.7735,338,0,
79.4392,7.18292,12.648,2.254,18.7735,338,0,
79.4392,7.18323,12.648,2.254,18.7735,338,0,
79.4392,7.18262,12.6495,2.254,18.7735,338,0,
79.4393,7.18384,12.6602,2.254,18.7735,338,0,
79.4393,7.18262,12.6633,2.254,18.7735,338,0,
79.4393,7.18262,12.6633,2.254,18.7735,338,0,
79.4394,7.18323,12.6633,2.254,18.7735,338,0,
79.4394,7.18292,12.6617,2.254,18.7735,338,0,
79.4394,7.18262,12.6663,2.254,18.7735,338,0,
79.4395,7.18323,12.6633,2.254,18.7735,338,0,
79.4395,7.18323,12.6633,2.254,18.7735,338,0,
79.4395,7.18292,12.6648,2.254,18.7735,338,0,
79.4396,7.18262,12.6648,2.254,18.7735,338,0,
79.4396,7.18262,12.6617,2.254,18.7735,338,0,
79.4396,7.18323,12.6648,2.254,18.7735,338,0,
79.4397,7.18292,12.6602,2.254,18.7735,338,0,
79.4397,7.18384,12.6602,2.254,18.7735,338,0,
79.4397,7.18384,12.6633,2.254,18.7735,338,0,
79.4398,7.18811,12.6602,2.254,18.7735,338,0,
79.4398,7.18781,12.6617,2.254,18.7735,338,0,
79.4398,7.1875,12.6587,2.254,18.7735,338,0,
79.4399,7.18719,12.6633,2.254,18.7735,338,0,
79.4399,7.1875,12.6617,2.254,18.7735,338,0,
79.4399,7.18781,12.6709,2.254,18.7735,338,0,
79.44,7.18842,12.674,2.254,18.7735,338,0,
79.44,7.1875,12.6755,2.254,18.7735,338,0,
79.44,7.1875,12.6694,2.254,18.7735,338,0,
79.4401,7.18781,12.6755,2.254,18.7735,338,0,
79.4401,7.18781,12.6724,2.254,18.7735,338,0,
79.4401,7.18872,12.6755,2.254,18.7735,338,0,
79.4402,7.18811,12.677,2.254,18.7735,338,0,
79.4402,7.18781,12.6755,2.254,18.7735,338,0,
79.4402,7.18781,12.6724,2.254,18.7735,338,0,
79.4403,7.18689,12.6724,2.254,18.7735,338,0,
79.4403,7.18811,12.6755,2.254,18.7735,338,0,
79.4403,7.18689,12.674,2.254,18.7735,338,0,
79.4404,7.1875,12.674,2.254,18.7735,338,0,
79.4404,7.18781,12.6755,2.254,18.7735,338,0,
79.4404,7.18781,12.6755,2.254,18.7735,338,0,
79.4405,7.1875,12.674,2.254,18.7735,338,0,
79.4405,7.18811,12.6755,2.254,18.7735,338,0,
79.4405,7.18781,12.674,2.254,18.7735,338,0,
79.4406,7.1875,12.6877,2.254,18.7735,338,0,
79.4406,7.18781,12.6862,2.254,18.7735,338,0,
79.4406,7.18719,12.6831,2.254,18.7735,338,0,
79.4407,7.1875,12.6892,2.254,18.7735,338,0,
79.4407,7.18719,12.6877,2.254,18.7735,338,0,
79.4407,7.1875,12.6846,2.254,18.7735,338,0,
79.4408,7.18811,12.6892,2.254,18.7735,338,0,
79.4408,7.18719,12.6862,2.254,18.7735,338,0,
79.4408,7.1875,12.6862,2.254,18.7735,338,0,
79.4409,7.18781,12.6877,2.254,18.7735,338,0,
79.4409,7.1875,12.6907,2.254,18.7735,338,0,
79.4409,7.18781,12.6862,2.254,18.7735,338,0,
79.441,7.18719,12.6877,2.254,18.7735,338,0,
79.441,7.1875,12.6846,2.254,18.7735,338,0,
79.441,7.18689,12.6892,2.254,18.7735,338,0,
79.4411,7.1875,12.6862,2.254,18.7735,338,0,
79.4411,7.1875,12.6907,2.254,18.7735,338,0,
79.4411,7.18781,12.6892,2.254,18.7735,338,0,
79.4412,7.19238,12.6984,2.254,18.7735,338,0,
79.4412,7.19238,12.6968,2.254,18.7735,338,0,
79.4412,7.19177,12.7014,2.254,18.7735,338,0,
79.4413,7.19238,12.6968,2.254,18.7735,338,0,
79.4413,7.19269,12.6984,2.254,18.7735,338,0,
79.4413,7.19238,12.6984,2.254,18.7735,338,0,
79.4414,7.19147,12.6984,2.254,18.7735,338,0,
79.4414,7.19238,12.6984,2.254,18.7735,338,0,
79.4414,7.1933,12.6968,2.254,18.7735,338,0,
79.4415,7.19208,12.6984,2.254,18.7735,338,0,
79.4415,7.19269,12.6999,2.254,18.7735,338,0,
79.4415,7.19208,12.6968,2.254,18.7735,338,0,
79.4416,7.19177,12.6999,2.254,18.7735,338,0,
79.4416,7.19238,12.6968,2.254,18.7735,338,0,
79.4416,7.19269,12.6984,2.254,18.7735,338,0,
79.4417,7.19269,12.6968,2.254,18.7735,338,0,
79.4417,7.19177,12.6999,2.254,18.7735,338,0,
79.4417,7.19208,12.6968,2.254,18.7735,338,0,
79.4418,7.19269,12.7075,2.254,18.7735,338,0,
79.4418,7.19299,12.7121,2.254,18.7735,338,0,
79.4418,7.19238,12.7121,2.254,18.7735,338,0,
79.4419,7.19269,12.7121,2.254,18.7735,338,0,
79.4419,7.19269,12.7136,2.254,18.7735,338,0,
79.4419,7.19238,12.7121,2.254,18.7735,338,0,
79.442,7.19269,12.7106,2.254,18.7735,338,0,
79.442,7.19208,12.7121,2.254,18.7735,338,0,
79.442,7.19666,12.7121,2.254,18.7735,338,0,
79.4421,7.19757,12.706,2.254,18.7735,338,0,
79.4421,7.19757,12.7106,2.254,18.7735,338,0,
79.4421,7.19757,12.7106,2.254,18.7735,338,0,
79.4422,7.19727,12.7136,2.254,18.7735,338,0,
79.4422,7.19757,12.7121,2.254,18.7735,338,0,
79.4422,7.19757,12.709,2.254,18.7735,338,0,
79.4423,7.19635,12.7075,2.254,18.7735,338,0,
79.4423,7.19757,12.7106,2.254,18.7735,338,0,
79.4423,7.19727,12.7106,2.254,18.7735,338,0,
79.4424,7.19757,12.7213,2.254,18.7735,338,0,
79.4424,7.19727,12.7228,2.254,18.7735,338,0,
79.4424,7.19757,12.7228,2.254,18.7735,338,0,
79.4425,7.19757,12.7228,2.254,18.7735,338,0,
79.4425,7.19788,12.7228,2.254,18.7735,338,0,
79.4425,7.19788,12.7258,2.254,18.7735,338,0,
79.4426,7.19757,12.7228,2.254,18.7735,338,0,
79.4426,7.19696,12.7213,2.254,18.7735,338,0,
79.4426,7.19788,12.7243,2.254,18.7735,338,0,
79.4427,7.20184,12.7258,2.254,18.7735,338,0,
79.4427,7.20276,12.7243,2.254,18.7735,338,0,
79.4427,7.20245,12.7243,2.254,18.7735,338,0,
79.4428,7.20215,12.7243,2.254,18.7735,338,0,
79.4428,7.20215,12.7258,2.254,18.7735,338,0,
79.4428,7.20245,12.7243,2.254,18.7735,338,0,
79.4429,7.20184,12.7243,2.254,18.7735,338,0,
79.4429,7.20154,12.7258,2.254,18.7735,338,0,
79.4429,7.20215,12.7335,2.254,18.7735,338,0,
79.443,7.20184,12.7319,2.254,18.7735,338,0,
79.443,7.20215,12.738,2.254,18.7735,338,0,
79.443,7.20215,12.7365,2.254,18.7735,338,0,
79.4431,7.20306,12.735,2.254,18.7735,338,0,
79.4431,7.20459,12.735,2.254,18.7735,338,0,
79.4431,7.20703,12.735,2.254,18.7735,338,0,
79.4432,7.20825,12.7365,2.254,18.7735,338,0,
79.4432,7.20642,12.7319,2.254,18.7735,338,0,
79.4432,7.20764,12.735,2.254,18.7735,338,0,
79.4433,7.20734,12.735,2.254,18.7735,338,0,
79.4433,7.20764,12.7365,2.254,18.7735,338,0,
79.4433,7.20703,12.7365,2.254,18.7735,338,0,
79.4434,7.20734,12.735,2.254,18.7735,338,0,
79.4434,7.20734,12.7365,2.254,18.7735,338,0,
79.4434,7.20734,12.735,2.254,18.7735,338,0,
79.4435,7.21161,12.735,2.254,18.7735,338,0,
79.4435,7.21222,12.735,2.254,18.7735,338,0,
79.4435,7.21222,12.7457,2.254,18.7735,338,0,
79.4436,7.21222,12.7457,2.254,18.7735,338,0,
79.4436,7.21222,12.7457,2.254,18.7735,338,0,
79.4436,7.21191,12.7502,2.254,18.7735,338,0,
79.4437,7.21252,12.7457,2.254,18.7735,338,0,
79.4437,7.21191,12.7502,2.254,18.7735,338,0,
79.4437,7.21222,12.7502,2.254,18.7735,338,0,
79.4438,7.2171,12.7472,2.254,18.7735,338,0,
79.4438,7.2171,12.7457,2.254,18.7735,338,0,
79.4438,7.2171,12.7502,2.254,18.7735,338,0,
79.4439,7.21771,12.7457,2.254,18.7735,338,0,
79.4439,7.2168,12.7487,2.254,18.7735,338,0,
79.4439,7.2168,12.7487,2.254,18.7735,338,0,
79.444,7.2171,12.7502,2.254,18.7735,338,0,
79.444,7.21619,12.7487,2.254,18.7735,338,0,
79.444,7.21985,12.7457,2.254,18.7735,338,0,
79.4441,7.22168,12.7487,2.254,18.7735,338,0,
79.4441,7.22321,12.7472,2.254,18.7735,338,0,
79.4441,7.22168,12.7594,2.254,18.7735,338,0,
79.4442,7.22229,12.7594,2.254,18.7735,338,0,
79.4442,7.22168,12.7609,2.254,18.7735,338,0,
79.4442,7.2226,12.7609,2.254,18.7735,338,0,
79.4443,7.22168,12.7625,2.254,18.7735,338,0,
79.4443,7.22687,12.7594,2.254,18.7735,338,0,
79.4443,7.22656,12.7625,2.254,18.7735,338,0,
79.4444,7.22717,12.7609,2.254,18.7735,338,0,
79.4444,7.22717,12.7609,2.254,18.7735,338,0,
79.4444,7.22656,12.7594,2.254,18.7735,338,0,
79.4445,7.22717,12.764,2.254,18.7735,338,0,
79.4445,7.22717,12.7594,2.254,18.7735,338,0,
79.4445,7.23145,12.7594,2.254,18.7735,338,0,
79.4446,7.23206,12.7609,2.254,18.7735,338,0,
79.4446,7.23145,12.7594,2.254,18.7735,338,0,
79.4446,7.23083,12.7594,2.254,18.7735,338,0,
79.4447,7.23114,12.7762,2.254,18.7735,338,0,
79.4447,7.23114,12.7701,2.254,18.7735,338,0,
79.4447,7.23419,12.7731,2.254,18.7735,338,0,
79.4448,7.23694,12.7701,2.254,18.7735,338,0,
79.4448,7.23663,12.7701,2.254,18.7735,338,0,
79.4448,7.23694,12.7747,2.254,18.7735,338,0,
79.4449,7.23694,12.7716,2.254,18.7735,338,0,
79.4449,7.23694,12.7777,2.254,18.7735,338,0,
79.4449,7.23694,12.7747,2.254,18.7735,338,0,
79.445,7.24213,12.7731,2.254,18.7735,338,0,
79.445,7.24152,12.7731,2.254,18.7735,338,0,
79.445,7.24182,12.7716,2.254,18.7735,338,0,
79.4451,7.24121,12.7701,2.254,18.7735,338,0,
79.4451,7.24182,12.7808,2.254,18.7735,338,0,
79.4451,7.24152,12.7869,2.254,18.7735,338,0,
79.4452,7.2464,12.7853,2.254,18.7735,338,0,
79.4452,7.2464,12.7853,2.254,18.7735,338,0,
79.4452,7.24609,12.7853,2.254,18.7735,338,0,
79.4453,7.24548,12.7853,2.254,18.7735,338,0,
79.4453,7.2467,12.7869,2.254,18.7735,338,0,
79.4453,7.2467,12.7899,2.254,18.7735,338,0,
79.4454,7.25128,12.7853,2.254,18.7735,338,0,
79.4454,7.25098,12.7869,2.254,18.7735,338,0,
79.4454,7.25098,12.7884,2.254,18.7735,338,0,
79.4455,7.2522,12.7853,2.254,18.7735,338,0,
79.4455,7.25098,12.7869,2.254,18.7735,338,0,
79.4455,7.25189,12.7853,2.254,18.7735,338,0,
79.4456,7.25555,12.7975,2.254,18.7735,338,0,
79.4456,7.25616,12.7945,2.254,18.7735,338,0,
79.4456,7.25616,12.7975,2.254,18.7735,338,0,
79.4457,7.25616,12.7975,2.254,18.7735,338,0,
79.4457,7.25647,12.796,2.254,18.7735,338,0,
79.4457,7.26135,12.7991,2.254,18.7735,338,0,
79.4458,7.26074,12.7975,2.254,18.7735,338,0,
79.4458,7.26135,12.796,2.254,18.7735,338,0,
79.4458,7.26135,12.7991,2.254,18.7735,338,0,
79.4459,7.26105,12.7991,2.254,18.7735,338,0,
79.4459,7.26135,12.796,2.254,18.7735,338,0,
79.4459,7.26624,12.7975,2.254,18.7735,338,0,
79.446,7.26562,12.7975,2.254,18.7735,338,0,
79.446,7.26624,12.8098,2.254,18.7735,338,0,
79.446,7.26562,12.8113,2.254,18.7735,338,0,
79.4461,7.26562,12.8098,2.254,18.7735,338,0,
79.4461,7.26898,12.8082,2.254,18.7735,338,0,
79.4461,7.27081,12.8082,2.254,18.7735,338,0,
79.4462,7.27142,12.8052,2.254,18.7735,338,0,
79.4462,7.27081,12.8128,2.254,18.7735,338,0,
79.4462,7.27081,12.8098,2.254,18.7735,338,0,
79.4463,7.27142,12.8143,2.254,18.7735,338,0,
79.4463,7.2757,12.8113,2.254,18.7735,338,0,
79.4463,7.27631,12.8098,2.254,18.7735,338,0,
79.4464,7.276,12.8082,2.254,18.7735,338,0,
79.4464,7.27478,12.8113,2.254,18.7735,338,0,
79.4464,7.2757,12.8082,2.254,18.7735,338,0,
79.4465,7.27936,12.8235,2.254,18.7735,338,0,
79.4465,7.28088,12.8235,2.254,18.7735,338,0,
79.4465,7.28119,12.8204,2.254,18.7735,338,0,
79.4466,7.28058,12.822,2.254,18.7735,338,0,
79.4466,7.28058,12.822,2.254,18.7735,338,0,
79.4466,7.28088,12.8204,2.254,18.7735,338,0,
79.4467,7.28577,12.8235,2.254,18.7735,338,0,
79.4467,7.28546,12.8204,2.254,18.7735,338,0,
79.4467,7.28577,12.8265,2.254,18.7735,338,0,
79.4468,7.28485,12.8204,2.254,18.7735,338,0,
79.4468,7.28668,12.8204,2.254,18.7735,338,0,
79.4468,7.28638,12.822,2.254,18.7735,338,0,
79.4469,7.29065,12.8174,2.254,18.7735,338,0,
79.4469,7.29095,12.822,2.254,18.7735,338,0,
79.4469,7.29065,12.8204,2.254,18.7735,338,0,
79.447,7.29004,12.822,2.254,18.7735,338,0,
79.447,7.29034,12.8357,2.254,18.7735,338,0,
79.447,7.29492,12.8342,2.254,18.7735,338,0,
79.4471,7.29462,12.8342,2.254,18.7735,338,0,
79.4471,7.29492,12.8372,2.254,18.7735,338,0,
79.4471,7.29553,12.8296,2.254,18.7735,338,0,
79.4472,7.29523,12.8326,2.254,18.7735,338,0,
79.4472,7.29462,12.8326,2.254,18.7735,338,0,
79.4472,7.30072,12.8311,2.254,18.7735,338,0,
79.4473,7.30042,12.8372,2.254,18.7735,338,0,
79.4473,7.30011,12.8326,2.254,18.7735,338,0,
79.4473,7.30072,12.8342,2.254,18.7735,338,0,
79.4474,7.30072,12.8357,2.254,18.7735,338,0,
79.4474,7.30347,12.8326,2.254,18.7735,338,0,
79.4474,7.3053,12.8326,2.254,18.7735,338,0,
79.4475,7.3053,12.8342,2.254,18.7735,338,0,
79.4475,7.30499,12.8326,2.254,18.7735,338,0,
79.4475,7.30591,12.8433,2.254,18.7735,338,0,
79.4476,7.30499,12.8464,2.254,18.7735,338,0,
79.4476,7.30988,12.8433,2.254,18.7735,338,0,
79.4476,7.31018,12.8464,2.254,18.7735,338,0,
79.4477,7.31018,12.8464,2.254,18.7735,338,0,
79.4477,7.31049,12.8479,2.254,18.7735,338,0,
79.4477,7.31018,12.8464,2.254,18.7735,338,0,
79.4478,7.31018,12.8433,2.254,18.7735,338,0,
79.4478,7.31537,12.8464,2.254,18.7735,338,0,
79.4478,7.31567,12.8479,2.254,18.7735,338,0,
79.4479,7.31445,12.8448,2.254,18.7735,338,0,
79.4479,7.31537,12.8448,2.254,18.7735,338,0,
79.4479,7.31445,12.8494,2.254,18.7735,338,0,
79.448,7.31537,12.8479,2.254,18.7735,338,0,
79.448,7.32025,12.8464,2.254,18.7735,338,0,
79.448,7.32086,12.8464,2.254,18.7735,338,0,
79.4481,7.32056,12.8464,2.254,18.7735,338,0,
79.4481,7.31903,12.8571,2.254,18.7735,338,0,
79.4481,7.31934,12.8601,2.254,18.7735,338,0,
79.4482,7.323,12.8571,2.254,18.7735,338,0,
79.4482,7.32513,12.8555,2.254,18.7735,338,0,
79.4482,7.32513,12.8601,2.254,18.7735,338,0,
79.4483,7.32513,12.8555,2.254,18.7735,338,0,
79.4483,7.32483,12.8571,2.254,18.7735,338,0,
79.4483,7.32483,12.8616,2.254,18.7735,338,0,
79.4484,7.32788,12.8555,2.254,18.7735,338,0,
79.4484,7.32971,12.8571,2.254,18.7735,338,0,
79.4484,7.32941,12.8601,2.254,18.7735,338,0,
79.4485,7.33002,12.8601,2.254,18.7735,338,0,
79.4485,7.33002,12.8586,2.254,18.7735,338,0,
79.4485,7.32971,12.8571,2.254,18.7735,338,0,
79.4486,7.33337,12.8571,2.254,18.7735,338,0,
79.4486,7.3349,12.8586,2.254,18.7735,338,0,
79.4486,7.33398,12.8586,2.254,18.7735,338,0,
79.4487,7.33521,12.8693,2.254,18.7735,338,0,
79.4487,7.3349,12.8693,2.254,18.7735,338,0,
79.4487,7.33429,12.8677,2.254,18.7735,338,0,
79.4488,7.33551,12.8693,2.254,18.7735,338,0,
79.4488,7.33917,12.8708,2.254,18.7735,338,0,
79.4488,7.34009,12.8693,2.254,18.7735,338,0,
79.4489,7.33948,12.8723,2.254,18.7735,338,0,
79.4489,7.33917,12.8693,2.254,18.7735,338,0,
79.4489,7.33917,12.8708,2.254,18.7735,338,0,
79.449,7.33978,12.8708,2.254,18.7735,338,0,
79.449,7.34436,12.8693,2.254,18.7735,338,0,
79.449,7.34497,12.8708,2.254,18.7735,338,0,
79.4491,7.34375,12.8738,2.254,18.7735,338,0,
79.4491,7.34436,12.8693,2.254,18.7735,338,0,
79.4491,7.34406,12.8738,2.254,18.7735,338,0,
79.4492,7.34467,12.8738,2.254,18.7735,338,0,
79.4492,7.34772,12.8738,2.254,18.7735,338,0,
79.4492,7.34894,12.8845,2.254,18.7735,338,0,
79.4493,7.34924,12.8845,2.254,18.7735,338,0,
79.4493,7.34924,12.886,2.254,18.7735,338,0,
79.4493,7.34955,12.883,2.254,18.7735,338,0,
79.4494,7.34924,12.8845,2.254,18.7735,338,0,
79.4494,7.34924,12.883,2.254,18.7735,338,0,
79.4494,7.35474,12.883,2.254,18.7735,338,0,
79.4495,7.35352,12.8799,2.254,18.7735,338,0,
79.4495,7.35443,12.8799,2.254,18.7735,338,0,
79.4495,7.35382,12.8815,2.254,18.7735,338,0,
79.4496,7.35443,12.8815,2.254,18.7735,338,0,
79.4496,7.35382,12.8845,2.254,18.7735,338,0,
79.4496,7.35474,12.8815,2.254,18.7735,338,0,
79.4497,7.3587,12.8845,2.254,18.7735,338,0,
79.4497,7.35931,12.8845,2.254,18.7735,338,0,
79.4497,7.3587,12.886,2.254,18.7735,338,0,
79.4498,7.35962,12.8952,2.254,18.7735,338,0,
79.4498,7.3587,12.8967,2.254,18.7735,338,0,
79.4498,7.3587,12.8983,2.254,18.7735,338,0,
79.4499,7.36206,12.8967,2.254,18.7735,338,0,
79.4499,7.36359,12.8906,2.254,18.7735,338,0,
79.4499,7.3642,12.8952,2.254,18.7735,338,0,
79.45,7.3642,12.8937,2.254,18.7735,338,0,
79.45,7.3645,12.8922,2.254,18.7735,338,0,
79.45,7.3642,12.8967,2.254,18.7735,338,0,
79.4501,7.36359,12.8952,2.254,18.7735,338,0,
79.4501,7.3645,12.8937,2.254,18.7735,338,0,
79.4501,7.36877,12.8937,2.254,18.7735,338,0,
79.4502,7.36847,12.8937,2.254,18.7735,338,0,
79.4502,7.36847,12.8937,2.254,18.7735,338,0,
79.4502,7.36908,12.8952,2.254,18.7735,338,0,
79.4503,7.36786,12.8922,2.254,18.7735,338,0,
79.4503,7.36816,12.9059,2.254,18.7735,338,0,
79.4503,7.36877,12.9089,2.254,18.7735,338,0,
79.4504,7.37396,12.9059,2.254,18.7735,338,0,
79.4504,7.37396,12.9105,2.254,18.7735,338,0,
79.4504,7.37427,12.9074,2.254,18.7735,338,0,
79.4505,7.37335,12.9089,2.254,18.7735,338,0,
79.4505,7.37396,12.9074,2.254,18.7735,338,0,
79.4505,7.37396,12.9074,2.254,18.7735,338,0,
79.4506,7.37335,12.9089,2.254,18.7735,338,0,
79.4506,7.3764,12.9089,2.254,18.7735,338,0,
79.4506,7.37885,12.9105,2.254,18.7735,338,0,
79.4507,7.37915,12.9074,2.254,18.7735,338,0,
79.4507,7.37854,12.9074,2.254,18.7735,338,0,
79.4507,7.37885,12.9089,2.254,18.7735,338,0,
79.4508,7.37823,12.9044,2.254,18.7735,338,0,
79.4508,7.37823,12.9105,2.254,18.7735,338,0,
79.4508,7.37823,12.9166,2.254,18.7735,338,0,
79.4509,7.38342,12.9196,2.254,18.7735,338,0,
79.4509,7.38312,12.9211,2.254,18.7735,338,0,
79.4509,7.38312,12.9211,2.254,18.7735,338,0,
79.451,7.38312,12.9196,2.254,18.7735,338,0,
79.451,7.38312,12.9196,2.254,18.7735,338,0,
79.451,7.38342,12.9166,2.254,18.7735,338,0,
79.4511,7.38403,12.9211,2.254,18.7735,338,0,
79.4511,7.38464,12.9211,2.254,18.7735,338,0,
79.4511,7.38617,12.9181,2.254,18.7735,338,0,
79.4512,7.38831,12.9181,2.254,18.7735,338,0,
79.4512,7.38831,12.9196,2.254,18.7735,338,0,
79.4512,7.388,12.9181,2.254,18.7735,338,0,
79.4513,7.38831,12.9181,2.254,18.7735,338,0,
79.4513,7.38861,12.9196,2.254,18.7735,338,0,
79.4513,7.38892,12.9196,2.254,18.7735,338,0,
79.4514,7.38861,12.9303,2.254,18.7735,338,0,
79.4514,7.38861,12.9303,2.254,18.7735,338,0,
79.4514,7.39349,12.9318,2.254,18.7735,338,0,
79.4515,7.3938,12.9318,2.254,18.7735,338,0,
79.4515,7.3938,12.9303,2.254,18.7735,338,0,
79.4515,7.3938,12.9334,2.254,18.7735,338,0,
79.4516,7.39319,12.9303,2.254,18.7735,338,0,
79.4516,7.39288,12.9318,2.254,18.7735,338,0,
79.4516,7.3938,12.9303,2.254,18.7735,338,0,
79.4517,7.3941,12.9303,2.254,18.7735,338,0,
79.4517,7.39319,12.9288,2.254,18.7735,338,0,
79.4517,7.39777,12.9334,2.254,18.7735,338,0,
79.4518,7.39868,12.9334,2.254,18.7735,338,0,
79.4518,7.39777,12.9303,2.254,18.7735,338,0,
79.4518,7.39838,12.9334,2.254,18.7735,338,0,
79.4519,7.39777,12.9318,2.254,18.7735,338,0,
79.4519,7.39838,12.9425,2.254,18.7735,338,0,
79.4519,7.39838,12.944,2.254,18.7735,338,0,
79.452,7.39807,12.9425,2.254,18.7735,338,0,
79.452,7.39838,12.944,2.254,18.7735,338,0,
79.452,7.40295,12.9425,2.254,18.7735,338,0,
79.4521,7.40234,12.9471,2.254,18.7735,338,0,
79.4521,7.40387,12.944,2.254,18.7735,338,0,
79.4521,7.40265,12.944,2.254,18.7735,338,0,
79.4522,7.40234,12.9456,2.254,18.7735,338,0,
79.4522,7.40295,12.944,2.254,18.7735,338,0,
79.4522,7.40356,12.941,2.254,18.7735,338,0,
79.4523,7.40265,12.944,2.254,18.7735,338,0,
79.4523,7.40295,12.9425,2.254,18.7735,338,0,
79.4523,7.40326,12.944,2.254,18.7735,338,0,
79.4524,7.40845,12.941,2.254,18.7735,338,0,
79.4524,7.40723,12.944,2.254,18.7735,338,0,
79.4524,7.40784,12.9517,2.254,18.7735,338,0,
79.4525,7.40784,12.9547,2.254,18.7735,338,0,
79.4525,7.40814,12.9532,2.254,18.7735,338,0,
79.4525,7.40753,12.9547,2.254,18.7735,338,0,
79.4526,7.40845,12.9578,2.254,18.7735,338,0,
79.4526,7.40753,12.9562,2.254,18.7735,338,0,
79.4526,7.40692,12.9578,2.254,18.7735,338,0,
79.4527,7.40814,12.9547,2.254,18.7735,338,0,
79.4527,7.40814,12.9517,2.254,18.7735,338,0,
79.4527,7.41302,12.9578,2.254,18.7735,338,0,
79.4528,7.41272,12.9578,2.254,18.7735,338,0,
79.4528,7.41272,12.9562,2.254,18.7735,338,0,
79.4528,7.41364,12.9562,2.254,18.7735,338,0,
79.4529,7.41302,12.9578,2.254,18.7735,338,0,
79.4529,7.41333,12.9562,2.254,18.7735,338,0,
79.4529,7.41364,12.9562,2.254,18.7735,338,0,
79.453,7.41333,12.97,2.254,18.7735,338,0,
79.453,7.41302,12.9623,2.254,18.7735,338,0,
79.453,7.41302,12.9669,2.254,18.7735,338,0,
79.4531,7.41302,12.9684,2.254,18.7735,338,0,
79.4531,7.41272,12.97,2.254,18.7735,338,0,
79.4531,7.41791,12.9684,2.254,18.7735,338,0,
79.4532,7.41882,12.9669,2.254,18.7735,338,0,
79.4532,7.41821,12.9654,2.254,18.7735,338,0,
79.4532,7.41791,12.9684,2.254,18.7735,338,0,
79.4533,7.4176,12.9669,2.254,18.7735,338,0,
79.4533,7.41821,12.9669,2.254,18.7735,338,0,
79.4533,7.4173,12.9669,2.254,18.7735,338,0,
79.4534,7.41821,12.9684,2.254,18.7735,338,0,
79.4534,7.4176,12.9654,2.254,18.7735,338,0,
79.4534,7.41821,12.9654,2.254,18.7735,338,0,
79.4535,7.4176,12.9654,2.254,18.7735,338,0,
79.4535,7.41791,12.9822,2.254,18.7735,338,0,
79.4535,7.4176,12.9791,2.254,18.7735,338,0,
79.4536,7.41791,12.9776,2.254,18.7735,338,0,
79.4536,7.41882,12.9807,2.254,18.7735,338,0,
79.4536,7.4234,12.9761,2.254,18.7735,338,0,
79.4537,7.4231,12.9791,2.254,18.7735,338,0,
79.4537,7.4234,12.9822,2.254,18.7735,338,0,
79.4537,7.42249,12.9837,2.254,18.7735,338,0,
79.4538,7.42279,12.9791,2.254,18.7735,338,0,
79.4538,7.42249,12.9791,2.254,18.7735,338,0,
79.4538,7.42249,12.9776,2.254,18.7735,338,0,
79.4539,7.42249,12.9791,2.254,18.7735,338,0,
79.4539,7.42249,12.9791,2.254,18.7735,338,0,
79.4539,7.4231,12.9791,2.254,18.7735,338,0,
79.454,7.42279,12.9761,2.254,18.7735,338,0,
79.454,7.42371,12.9822,2.254,18.7735,338,0,
79.454,7.42279,12.9898,2.254,18.7735,338,0,
79.4541,7.4231,12.9898,2.254,18.7735,338,0,
79.4541,7.42279,12.9913,2.254,18.7735,338,0,
79.4541,7.42279,12.9883,2.254,18.7735,338,0,
79.4542,7.4231,12.9929,2.254,18.7735,338,0,
79.4542,7.42279,12.9913,2.254,18.7735,338,0,
79.4542,7.42188,12.9898,2.254,18.7735,338,0,
79.4543,7.42737,12.9913,2.254,18.7735,338,0,
79.4543,7.42798,12.9883,2.254,18.7735,338,0,
79.4543,7.42798,12.9944,2.254,18.7735,338,0,
79.4544,7.42828,12.9929,2.254,18.7735,338,0,
79.4544,7.42859,12.9944,2.254,18.7735,338,0,
79.4544,7.42737,12.9929,2.254,18.7735,338,0,
79.4545,7.42828,12.9913,2.254,18.7735,338,0,
79.4545,7.42767,12.9913,2.254,18.7735,338,0,
79.4545,7.42737,12.9944,2.254,18.7735,338,0,
79.4546,7.42767,12.9929,2.254,18.7735,338,0,
79.4546,7.42737,13.0051,2.254,18.7735,338,0,
79.4546,7.42767,13.0035,2.254,18.7735,338,0,
79.4547,7.42798,13.0035,2.254,18.7735,338,0,
79.4547,7.42798,13.002,2.254,18.7735,338,0,
79.4547,7.42737,13.0051,2.254,18.7735,338,0,
79.4548,7.42767,13.0051,2.254,18.7735,338,0,
79.4548,7.42798,13.0066,2.254,18.7735,338,0,
79.4548,7.42828,13.0051,2.254,18.7735,338,0,
79.4549,7.42767,13.0051,2.254,18.7735,338,0,
79.4549,7.42767,13.0066,2.254,18.7735,338,0,
79.4549,7.42737,13.0051,2.254,18.7735,338,0,
79.455,7.42737,13.0051,2.254,18.7735,338,0,
79.455,7.42737,13.002,2.254,18.7735,338,0,
79.455,7.42798,13.002,2.254,18.7735,338,0,
79.4551,7.42798,13.0066,2.254,18.7735,338,0,
79.4551,7.42828,13.0066,2.254,18.7735,338,0,
79.4551,7.42706,13.0127,2.254,18.7735,338,0,
79.4552,7.42767,13.0173,2.254,18.7735,338,0,
79.4552,7.42828,13.0157,2.254,18.7735,338,0,
79.4552,7.42767,13.0173,2.254,18.7735,338,0,
79.4553,7.42706,13.0173,2.254,18.7735,338,0,
79.4553,7.42828,13.0173,2.254,18.7735,338,0,
79.4553,7.42798,13.0173,2.254,18.7735,338,0,
79.4554,7.42798,13.0173,2.254,18.7735,338,0,
79.4554,7.42767,13.0157,2.254,18.7735,338,0,
79.4554,7.42767,13.0173,2.254,18.7735,338,0,
79.4555,7.42828,13.0188,2.254,18.7735,338,0,
79.4555,7.42767,13.0173,2.254,18.7735,338,0,
79.4555,7.42828,13.0142,2.254,18.7735,338,0,
79.4556,7.42798,13.0157,2.254,18.7735,338,0,
79.4556,7.42828,13.0188,2.254,18.7735,338,0,
79.4556,7.42798,13.0173,2.254,18.7735,338,0,
79.4557,7.42798,13.0142,2.254,18.7735,338,0,
79.4557,7.42737,13.028,2.254,18.7735,338,0,
79.4557,7.42798,13.031,2.254,18.7735,338,0,
79.4558,7.42798,13.031,2.254,18.7735,338,0,
79.4558,7.42828,13.031,2.254,18.7735,338,0,
79.4558,7.42798,13.031,2.254,18.7735,338,0,
79.4559,7.42828,13.028,2.254,18.7735,338,0,
79.4559,7.42798,13.031,2.254,18.7735,338,0,
79.4559,7.42737,13.028,2.254,18.7735,338,0,
79.456,7.42737,13.028,2.254,18.7735,338,0,
79.456,7.42798,13.0264,2.254,18.7735,338,0,
79.456,7.42737,13.028,2.254,18.7735,338,0,
79.4561,7.42798,13.028,2.254,18.7735,338,0,
79.4561,7.42798,13.0295,2.254,18.7735,338,0,
79.4561,7.42737,13.031,2.254,18.7735,338,0,
79.4562,7.42859,13.031,2.254,18.7735,338,0,
79.4562,7.42859,13.0295,2.254,18.7735,338,0,
79.4562,7.42767,13.0295,2.254,18.7735,338,0,
79.4563,7.42798,13.0417,2.254,18.7735,338,0,
79.4563,7.42767,13.0417,2.254,18.7735,338,0,
79.4563,7.42737,13.0386,2.254,18.7735,338,0,
79.4564,7.42767,13.0417,2.254,18.7735,338,0,
79.4564,7.42737,13.0417,2.254,18.7735,338,0,
79.4564,7.42737,13.0386,2.254,18.7735,338,0,
79.4565,7.42859,13.0417,2.254,18.7735,338,0,
79.4565,7.42767,13.0417,2.254,18.7735,338,0,
79.4565,7.42706,13.0417,2.254,18.7735,338,0,
79.4566,7.42767,13.0417,2.254,18.7735,338,0,
79.4566,7.42798,13.0371,2.254,18.7735,338,0,
79.4566,7.42767,13.0432,2.254,18.7735,338,0,
79.4567,7.42706,13.0417,2.254,18.7735,338,0,
79.4567,7.42767,13.0386,2.254,18.7735,338,0,
79.4567,7.42767,13.0417,2.254,18.7735,338,0,
79.4568,7.42798,13.0417,2.254,18.7735,338,0,
79.4568,7.42706,13.0432,2.254,18.7735,338,0,
79.4568,7.42767,13.0493,2.254,18.7735,338,0,
79.4569,7.42706,13.0524,0.572,18.7735,338,0,
79.4569,7.42706,13.0539,0.572,18.7735,338,0,
79.4569,7.42767,13.0554,0.572,18.7735,338,0,
79.457,7.42737,13.0554,0.572,18.7735,338,0,
79.457,7.42798,13.0539,0.572,18.7735,338,0,
79.457,7.42706,13.0539,0.572,18.7735,338,0,
79.4571,7.42737,13.0508,0.572,18.7735,338,0,
79.4571,7.42737,13.0539,0.572,18.7735,338,0,
79.4571,7.42737,13.0554,0.572,18.7735,338,0,
79.4572,7.42737,13.0554,0.572,18.7735,338,0,
79.4572,7.42798,13.0493,0.572,18.7735,338,0,
79.4572,7.42798,13.0569,0.572,18.7735,338,0,
79.4573,7.42737,13.0524,0.572,18.7735,338,0,
79.4573,7.42706,13.0569,0.572,18.7735,338,0,
79.4573,7.42706,13.0493,0.572,18.7735,338,0,
79.4574,7.42737,13.0646,0.572,18.7735,338,0,
79.4574,7.4231,13.0646,0.572,18.7735,338,0,
79.4574,7.4234,13.0692,0.572,18.7735,338,0,
79.4575,7.4234,13.0676,0.572,18.7735,338,0,
79.4575,7.42279,13.0692,0.572,18.7735,338,0,
79.4575,7.42279,13.0676,0.572,18.7735,338,0,
79.4576,7.42279,13.0646,0.572,18.7735,338,0,
79.4576,7.42279,13.0661,0.572,18.7735,338,0,
79.4576,7.42279,13.0661,0.572,18.7735,338,0,
79.4577,7.42249,13.0631,0.572,18.7735,338,0,
79.4577,7.42279,13.0661,0.572,18.7735,338,0,
79.4577,7.42218,13.0692,0.572,18.7735,338,0,
79.4578,7.42279,13.0646,0.572,18.7735,338,0,
79.4578,7.4231,13.0661,0.572,18.7735,338,0,
79.4578,7.42218,13.0737,0.572,18.7735,338,0,
79.4579,7.42188,13.0753,0.572,18.7735,338,0,
79.4579,7.4234,13.0783,0.572,18.7735,338,0,
79.4579,7.42279,13.0783,0.572,18.7735,338,0,
79.458,7.42279,13.0768,0.572,18.7735,338,0,
79.458,7.4231,13.0768,0.572,18.7735,338,0,
79.458,7.42279,13.0798,0.572,18.7735,338,0,
79.4581,7.42279,13.0783,0.572,18.7735,338,0,
79.4581,7.4234,13.0753,0.572,18.7735,338,0,
79.4581,7.41852,13.0783,0.572,18.7735,338,0,
79.4582,7.4176,13.0783,0.572,18.7735,338,0,
79.4582,7.41791,13.0768,0.572,18.7735,338,0,
79.4582,7.4176,13.0814,0.572,18.7735,338,0,
79.4583,7.4176,13.0875,0.572,18.7735,338,0,
79.4583,7.41821,13.0875,0.572,18.7735,338,0,
79.4583,7.41791,13.0905,0.572,18.7735,338,0,
79.4584,7.4176,13.089,0.572,18.7735,338,0,
79.4584,7.41699,13.0905,0.572,18.7735,338,0,
79.4584,7.4176,13.092,0.572,18.7735,338,0,
79.4585,7.41821,13.089,0.572,18.7735,338,0,
79.4585,7.41821,13.0905,0.572,18.7735,338,0,
79.4585,7.41821,13.0905,0.572,18.7735,338,0,
79.4586,7.41821,13.0936,0.572,18.7735,338,0,
79.4586,7.4173,13.089,0.572,18.7735,338,0,
79.4586,7.41791,13.0905,0.572,18.7735,338,0,
79.4587,7.41791,13.0905,0.572,18.7735,338,0,
79.4587,7.41852,13.0981,0.572,18.7735,338,0,
79.4587,7.41425,13.1027,0.572,18.7735,338,0,
79.4588,7.41241,13.1042,0.572,18.7735,338,0,
79.4588,7.41333,13.1042,0.572,18.7735,338,0,
79.4588,7.41272,13.1027,0.572,18.7735,338,0,
79.4589,7.41302,13.1027,0.572,18.7735,338,0,
79.4589,7.41302,13.1042,0.572,18.7735,338,0,
79.4589,7.41241,13.1027,0.572,18.7735,338,0,
79.459,7.41333,13.1027,0.572,18.7735,338,0,
79.459,7.41272,13.1012,0.572,18.7735,338,0,
79.459,7.41272,13.1012,0.572,18.7735,338,0,
79.4591,7.41272,13.1042,0.572,18.7735,338,0,
79.4591,7.41333,13.0997,0.572,18.7735,338,0,
79.4591,7.41302,13.1073,0.572,18.7735,338,0,
79.4592,7.41302,13.1134,0.572,18.7735,338,0,
79.4592,7.41302,13.1165,0.572,18.7735,338,0,
79.4592,7.41272,13.1165,0.572,18.7735,338,0,
79.4593,7.41302,13.1134,0.572,18.7735,338,0,
79.4593,7.41333,13.1119,0.572,18.7735,338,0,
79.4593,7.40753,13.1119,0.572,18.7735,338,0,
79.4594,7.40723,13.1134,0.572,18.7735,338,0,
79.4594,7.40784,13.1119,0.572,18.7735,338,0,
79.4594,7.40814,13.1119,0.572,18.7735,338,0,
79.4595,7.40753,13.1149,0.572,18.7735,338,0,
79.4595,7.40784,13.118,0.572,18.7735,338,0,
79.4595,7.40723,13.1149,0.572,18.7735,338,0,
79.4596,7.40753,13.1134,0.572,18.7735,338,0,
79.4596,7.40784,13.1165,0.572,18.7735,338,0,
79.4596,7.40753,13.1226,0.572,18.7735,338,0,
79.4597,7.40784,13.1287,0.572,18.7735,338,0,
79.4597,7.40723,13.1256,0.572,18.7735,338,0,
79.4597,7.40814,13.1271,0.572,18.7735,338,0,
79.4598,7.40784,13.1271,0.572,18.7735,338,0,
79.4598,7.40784,13.1271,0.572,18.7735,338,0,
79.4598,7.40784,13.1256,0.572,18.7735,338,0,
79.4599,7.40662,13.1287,0.572,18.7735,338,0,
79.4599,7.40295,13.1287,0.572,18.7735,338,0,
79.4599,7.40295,13.1287,0.572,18.7735,338,0,
79.46,7.40356,13.1241,0.572,18.7735,338,0,
79.46,7.40295,13.1271,0.572,18.7735,338,0,
79.46,7.40295,13.1287,0.572,18.7735,338,0,
79.4601,7.40295,13.1271,0.572,18.7735,338,0,
79.4601,7.40295,13.1302,0.572,18.7735,338,0,
79.4601,7.40295,13.1363,0.572,18.7735,338,0,
79.4602,7.40265,13.1378,0.572,18.7735,338,0,
79.4602,7.40326,13.1348,0.572,18.7735,338,0,
79.4602,7.40356,13.1393,0.572,18.7735,338,0,
79.4603,7.40326,13.1393,0.572,18.7735,338,0,
79.4603,7.40356,13.1393,0.572,18.7735,338,0,
79.4603,7.40265,13.1378,0.572,18.7735,338,0,
79.4604,7.40356,13.1378,0.572,18.7735,338,0,
79.4604,7.40326,13.1393,0.572,18.7735,338,0,
79.4604,7.40295,13.1393,0.572,18.7735,338,0,
79.4605,7.39777,13.1393,0.572,18.7735,338,0,
79.4605,7.39716,13.1393,0.572,18.7735,338,0,
79.4605,7.39838,13.1393,0.572,18.7735,338,0,
79.4606,7.39777,13.1439,0.572,18.7735,338,0,
79.4606,7.39868,13.1363,0.572,18.7735,338,0,
79.4606,7.39807,13.1378,0.572,18.7735,338,0,
79.4607,7.39807,13.1378,0.572,18.7735,338,0,
79.4607,7.39868,13.147,0.572,18.7735,338,0,
79.4607,7.39807,13.1516,0.572,18.7735,338,0,
79.4608,7.39746,13.1516,0.572,18.7735,338,0,
79.4608,7.39807,13.1516,0.572,18.7735,338,0,
79.4608,7.39777,13.15,0.572,18.7735,338,0,
79.4609,7.39777,13.15,0.572,18.7735,338,0,
79.4609,7.39746,13.1516,0.572,18.7735,338,0,
79.4609,7.39899,13.15,0.572,18.7735,338,0,
79.461,7.39838,13.15,0.572,18.7735,338,0,
79.461,7.39502,13.1531,0.572,18.7735,338,0,
79.461,7.39349,13.15,0.572,18.7735,338,0,
79.4611,7.39319,13.15,0.572,18.7735,338,0,
79.4611,7.39349,13.1516,0.572,18.7735,338,0,
79.4611,7.3938,13.1531,0.572,18.7735,338,0,
79.4612,7.39349,13.1531,0.572,18.7735,338,0,
79.4612,7.39349,13.1531,0.572,18.7735,338,0,
79.4612,7.39349,13.1531,0.572,18.7735,338,0,
79.4613,7.39349,13.1546,0.572,18.7735,338,0,
79.4613,7.39319,13.1592,0.572,18.7735,338,0,
79.4613,7.39319,13.1638,0.572,18.7735,338,0,
79.4614,7.3938,13.1592,0.572,18.7735,338,0,
79.4614,7.39349,13.1638,0.572,18.7735,338,0,
79.4614,7.39258,13.1653,0.572,18.7735,338,0,
79.4615,7.39319,13.1622,0.572,18.7735,338,0,
79.4615,7.39288,13.1607,0.572,18.7735,338,0,
79.4615,7.39319,13.1638,0.572,18.7735,338,0,
79.4616,7.38892,13.1622,0.572,18.7735,338,0,
79.4616,7.388,13.1638,0.572,18.7735,338,0,
79.4616,7.388,13.1622,0.572,18.7735,338,0,
79.4617,7.388,13.1653,0.572,18.7735,338,0,
79.4617,7.388,13.1668,0.572,18.7735,338,0,
79.4617,7.38892,13.1638,0.572,18.7735,338,0,
79.4618,7.388,13.1638,0.572,18.7735,338,0,
79.4618,7.38892,13.1668,0.572,18.7735,338,0,
79.4618,7.38922,13.1607,0.572,18.7735,338,0,
79.4619,7.38861,13.1638,0.572,18.7735,338,0,
79.4619,7.388,13.1607,0.572,18.7735,338,0,
79.4619,7.38892,13.1714,0.572,18.7735,338,0,
79.462,7.388,13.176,0.572,18.7735,338,0,
79.462,7.3877,13.176,0.572,18.7735,338,0,
79.462,7.38831,13.176,0.572,18.7735,338,0,
79.4621,7.38831,13.179,0.572,18.7735,338,0,
79.4621,7.38831,13.1729,0.572,18.7735,338,0,
79.4621,7.38403,13.1775,0.572,18.7735,338,0,
79.4622,7.38312,13.1729,0.572,18.7735,338,0,
79.4622,7.38342,13.176,0.572,18.7735,338,0,
79.4622,7.38312,13.1744,0.572,18.7735,338,0,
79.4623,7.38464,13.1744,0.572,18.7735,338,0,
79.4623,7.38342,13.1775,0.572,18.7735,338,0,
79.4623,7.38281,13.179,0.572,18.7735,338,0,
79.4624,7.38373,13.179,0.572,18.7735,338,0,
79.4624,7.38312,13.1775,0.572,18.7735,338,0,
79.4624,7.38403,13.179,0.572,18.7735,338,0,
79.4625,7.38403,13.176,0.572,18.7735,338,0,
79.4625,7.38342,13.176,0.572,18.7735,338,0,
79.4625,7.38373,13.176,0.572,18.7735,338,0,
79.4626,7.38373,13.1775,0.572,18.7735,338,0,
79.4626,7.38373,13.1866,0.572,18.7735,338,0,
79.4626,7.38312,13.1897,0.572,18.7735,338,0,
79.4627,7.38342,13.1882,0.572,18.7735,338,0,
79.4627,7.37854,13.1882,0.572,18.7735,338,0,
79.4627,7.37823,13.1882,0.572,18.7735,338,0,
79.4628,7.37915,13.1897,0.572,18.7735,338,0,
79.4628,7.37854,13.1912,0.572,18.7735,338,0,
79.4628,7.37854,13.1897,0.572,18.7735,338,0,
79.4629,7.37793,13.1912,0.572,18.7735,338,0,
79.4629,7.37854,13.1866,0.572,18.7735,338,0,
79.4629,7.37793,13.1882,0.572,18.7735,338,0,
79.463,7.37885,13.1882,0.572,18.7735,338,0,
79.463,7.37823,13.1882,0.572,18.7735,338,0,
79.463,7.37854,13.1882,0.572,18.7735,338,0,
79.4631,7.37762,13.1897,0.572,18.7735,338,0,
79.4631,7.37915,13.1897,0.572,18.7735,338,0,
79.4631,7.37885,13.1851,0.572,18.7735,338,0,
79.4632,7.37885,13.1866,0.572,18.7735,338,0,
79.4632,7.37885,13.1897,0.572,18.7735,338,0,
79.4632,7.37823,13.2004,0.572,18.7735,338,0,
79.4633,7.37396,13.2004,0.572,18.7735,338,0,
79.4633,7.37366,13.2004,0.572,18.7735,338,0,
79.4633,7.37427,13.2004,0.572,18.7735,338,0,
79.4634,7.37427,13.2019,0.572,18.7735,338,0,
79.4634,7.37335,13.1989,0.572,18.7735,338,0,
79.4634,7.37335,13.1989,0.572,18.7735,338,0,
79.4635,7.37305,13.2034,0.572,18.7735,338,0,
79.4635,7.37366,13.2004,0.572,18.7735,338,0,
79.4635,7.37427,13.2019,0.572,18.7735,338,0,
79.4636,7.37457,13.2019,0.572,18.7735,338,0,
79.4636,7.37396,13.2004,0.572,18.7735,338,0,
79.4636,7.37396,13.1989,0.572,18.7735,338,0,
79.4637,7.37366,13.1989,0.572,18.7735,338,0,
79.4637,7.37366,13.1989,0.572,18.7735,338,0,
79.4637,7.37366,13.1943,0.572,18.7735,338,0,
79.4638,7.37427,13.1989,0.572,18.7735,338,0,
79.4638,7.37335,13.2019,0.572,18.7735,338,0,
79.4638,7.36847,13.2004,0.572,18.7735,338,0,
79.4639,7.36908,13.1989,0.572,18.7735,338,0,
79.4639,7.36908,13.2126,0.572,18.7735,338,0,
79.4639,7.36877,13.2111,0.572,18.7735,338,0,
79.464,7.36877,13.2111,0.572,18.7735,338,0,
79.464,7.36877,13.2111,0.572,18.7735,338,0,
79.464,7.36755,13.2141,0.572,18.7735,338,0,
79.4641,7.36877,13.2126,0.572,18.7735,338,0,
79.4641,7.36908,13.2156,0.572,18.7735,338,0,
79.4641,7.36877,13.2141,0.572,18.7735,338,0,
79.4642,7.36847,13.208,0.572,18.7735,338,0,
79.4642,7.36847,13.2111,0.572,18.7735,338,0,
79.4642,7.36908,13.2126,0.572,18.7735,338,0,
79.4643,7.36877,13.2172,0.572,18.7735,338,0,
79.4643,7.36938,13.2111,0.572,18.7735,338,0,
79.4643,7.36877,13.2141,0.572,18.7735,338,0,
79.4644,7.36816,13.2126,0.572,18.7735,338,0,
79.4644,7.36908,13.2111,0.572,18.7735,338,0,
79.4644,7.3645,13.2095,0.572,18.7735,338,0,
79.4645,7.36389,13.2095,0.572,18.7735,338,0,
79.4645,7.3645,13.2111,0.572,18.7735,338,0,
79.4645,7.36359,13.2095,0.572,18.7735,338,0,
79.4646,7.3642,13.2217,0.572,18.7735,338,0,
79.4646,7.36389,13.2233,0.572,18.7735,338,0,
79.4646,7.3642,13.2248,0.572,18.7735,338,0,
79.4647,7.3642,13.2263,0.572,18.7735,338,0,
79.4647,7.36389,13.2263,0.572,18.7735,338,0,
79.4647,7.36359,13.2233,0.572,18.7735,338,0,
79.4648,7.3642,13.2263,0.572,18.7735,338,0,
79.4648,7.36328,13.2263,0.572,18.7735,338,0,
79.4648,7.36298,13.2248,0.572,18.7735,338,0,
79.4649,7.3645,13.2233,0.572,18.7735,338,0,
79.4649,7.36389,13.2248,0.572,18.7735,338,0,
79.4649,7.36389,13.2278,0.572,18.7735,338,0,
79.465,7.36481,13.2233,0.572,18.7735,338,0,
79.465,7.36359,13.2233,0.572,18.7735,338,0,
79.465,7.36359,13.2233,0.572,18.7735,338,0,
79.4651,7.36359,13.2248,0.572,18.7735,338,0,
79.4651,7.36328,13.2248,0.572,18.7735,338,0,
79.4651,7.36023,13.2263,0.572,18.7735,338,0,
79.4652,7.35931,13.2263,0.572,18.7735,338,0,
79.4652,7.35931,13.2217,0.572,18.7735,338,0,
79.4652,7.35901,13.2324,0.572,18.7735,338,0,
79.4653,7.35931,13.237,0.572,18.7735,338,0,
79.4653,7.3587,13.237,0.572,18.7735,338,0,
79.4653,7.35931,13.2385,0.572,18.7735,338,0,
79.4654,7.3587,13.2401,0.572,18.7735,338,0,
79.4654,7.35931,13.2385,0.572,18.7735,338,0,
79.4654,7.3584,13.2355,0.572,18.7735,338,0,
79.4655,7.3584,13.2324,0.572,18.7735,338,0,
79.4655,7.35931,13.2401,0.572,18.7735,338,0,
79.4655,7.35962,13.2355,0.572,18.7735,338,0,
79.4656,7.35931,13.2339,0.572,18.7735,338,0,
79.4656,7.35901,13.2385,0.572,18.7735,338,0,
79.4656,7.3587,13.2385,0.572,18.7735,338,0,
79.4657,7.3587,13.2385,0.572,18.7735,338,0,
79.4657,7.35931,13.2401,0.572,18.7735,338,0,
79.4657,7.35901,13.237,0.572,18.7735,338,0,
79.4658,7.35931,13.2355,0.572,18.7735,338,0,
79.4658,7.3587,13.2355,0.572,18.7735,338,0,
79.4658,7.3587,13.237,0.572,18.7735,338,0,
79.4659,7.3584,13.2355,0.572,18.7735,338,0,
79.4659,7.35931,13.237,0.572,18.7735,338,0,
79.4659,7.35352,13.2462,0.572,18.7735,338,0,
79.466,7.35474,13.2477,0.572,18.7735,338,0,
79.466,7.35413,13.2507,0.572,18.7735,338,0,
79.466,7.35413,13.2507,0.572,18.7735,338,0,
79.4661,7.35504,13.2523,0.572,18.7735,338,0,
79.4661,7.35443,13.2492,0.572,18.7735,338,0,
79.4661,7.35413,13.2477,0.572,18.7735,338,0,
79.4662,7.35413,13.2492,0.572,18.7735,338,0,
79.4662,7.35382,13.2507,0.572,18.7735,338,0,
79.4662,7.35413,13.2507,0.572,18.7735,338,0,
79.4663,7.35321,13.2477,0.572,18.7735,338,0,
79.4663,7.35413,13.2477,0.572,18.7735,338,0,
79.4663,7.35474,13.2492,0.572,18.7735,338,0,
79.4664,7.35382,13.2477,0.572,18.7735,338,0,
79.4664,7.35474,13.2523,0.572,18.7735,338,0,
79.4664,7.35413,13.2538,0.572,18.7735,338,0,
79.4665,7.35443,13.2492,0.572,18.7735,338,0,
79.4665,7.35382,13.2492,0.572,18.7735,338,0,
79.4665,7.35413,13.2492,0.572,18.7735,338,0,
79.4666,7.35413,13.2492,0.572,18.7735,338,0,
79.4666,7.35382,13.2507,0.572,18.7735,338,0,
79.4666,7.35382,13.2599,0.572,18.7735,338,0,
79.4667,7.35413,13.2584,0.572,18.7735,338,0,
79.4667,7.35352,13.2584,0.572,18.7735,338,0,
79.4667,7.35382,13.2584,0.572,18.7735,338,0,
79.4668,7.35382,13.2614,0.572,18.7735,338,0,
79.4668,7.35443,13.2584,0.572,18.7735,338,0,
79.4668,7.35077,13.2599,0.572,18.7735,338,0,
79.4669,7.34955,13.2584,0.572,18.7735,338,0,
79.4669,7.34924,13.2614,0.572,18.7735,338,0,
79.4669,7.34924,13.2629,0.572,18.7735,338,0,
79.467,7.34894,13.2614,0.572,18.7735,338,0,
79.467,7.34863,13.2599,0.572,18.7735,338,0,
79.467,7.34955,13.2599,0.572,18.7735,338,0,
79.4671,7.34924,13.266,0.572,18.7735,338,0,
79.4671,7.34894,13.266,0.572,18.7735,338,0,
79.4671,7.34924,13.2614,0.572,18.7735,338,0,
79.4672,7.34924,13.2645,0.572,18.7735,338,0,
79.4672,7.34924,13.2599,0.572,18.7735,338,0,
79.4672,7.34863,13.2614,0.572,18.7735,338,0,
79.4673,7.34894,13.2599,0.572,18.7735,338,0,
79.4673,7.34955,13.2675,0.572,18.7735,338,0,
79.4673,7.34894,13.2736,0.572,18.7735,338,0,
79.4674,7.34894,13.2736,0.572,18.7735,338,0,
79.4674,7.34924,13.2721,0.572,18.7735,338,0,
79.4674,7.34894,13.2751,0.572,18.7735,338,0,
79.4675,7.34863,13.2767,0.572,18.7735,338,0,
79.4675,7.34863,13.2736,0.572,18.7735,338,0,
79.4675,7.34924,13.2782,0.572,18.7735,338,0,
79.4676,7.34955,13.2767,0.572,18.7735,338,0,
79.4676,7.34924,13.2706,0.572,18.7735,338,0,
79.4676,7.34985,13.2751,0.572,18.7735,338,0,
79.4677,7.34894,13.2751,0.572,18.7735,338,0,
79.4677,7.34924,13.269,0.572,18.7735,338,0,
79.4677,7.34924,13.2782,0.572,18.7735,338,0,
79.4678,7.34833,13.2751,0.572,18.7735,338,0,
79.4678,7.34375,13.2736,0.572,18.7735,338,0,
79.4678,7.34375,13.2751,0.572,18.7735,338,0,
79.4679,7.34467,13.2736,0.572,18.7735,338,0,
79.4679,7.34406,13.2721,0.572,18.7735,338,0,
79.4679,7.34436,13.2767,0.572,18.7735,338,0,
79.468,7.34436,13.2782,0.572,18.7735,338,0,
79.468,7.34467,13.2843,0.572,18.7735,338,0,
79.468,7.34375,13.2813,0.572,18.7735,338,0,
79.4681,7.34406,13.2874,0.572,18.7735,338,0,
79.4681,7.34436,13.2858,0.572,18.7735,338,0,
79.4681,7.34436,13.2843,0.572,18.7735,338,0,
79.4682,7.34375,13.2858,0.572,18.7735,338,0,
79.4682,7.34406,13.2858,0.572,18.7735,338,0,
79.4682,7.34436,13.2874,0.572,18.7735,338,0,
79.4683,7.34344,13.2828,0.572,18.7735,338,0,
79.4683,7.34344,13.2843,0.572,18.7735,338,0,
79.4683,7.34436,13.2858,0.572,18.7735,338,0,
79.4684,7.34406,13.2843,0.572,18.7735,338,0,
79.4684,7.34467,13.2874,0.572,18.7735,338,0,
79.4684,7.34436,13.2843,0.572,18.7735,338,0,
79.4685,7.34467,13.2843,0.572,18.7735,338,0,
79.4685,7.34436,13.2843,0.572,18.7735,338,0,
79.4685,7.34497,13.2843,0.572,18.7735,338,0,
79.4686,7.34436,13.2843,0.572,18.7735,338,0,
79.4686,7.34467,13.2889,0.572,18.7735,338,0,
79.4686,7.34436,13.2858,0.572,18.7735,338,0,
79.4687,7.34344,13.2874,0.572,18.7735,338,0,
79.4687,7.34009,13.2996,0.572,18.7735,338,0,
79.4687,7.33978,13.298,0.572,18.7735,338,0,
79.4688,7.33917,13.2965,0.572,18.7735,338,0,
79.4688,7.33948,13.298,0.572,18.7735,338,0,
79.4688,7.33978,13.2965,0.572,18.7735,338,0,
79.4689,7.34039,13.2965,0.572,18.7735,338,0,
79.4689,7.34009,13.298,0.572,18.7735,338,0,
79.4689,7.34039,13.2965,0.572,18.7735,338,0,
79.469,7.34009,13.2965,0.572,18.7735,338,0,
79.469,7.34009,13.298,0.572,18.7735,338,0,
79.469,7.34009,13.2965,0.572,18.7735,338,0,
79.4691,7.33917,13.3026,0.572,18.7735,338,0,
79.4691,7.33978,13.298,0.572,18.7735,338,0,
79.4691,7.34009,13.298,0.572,18.7735,338,0,
79.4692,7.33917,13.2965,0.572,18.7735,338,0,
79.4692,7.33948,13.298,0.572,18.7735,338,0,
79.4692,7.33948,13.295,0.572,18.7735,338,0,
79.4693,7.33917,13.2996,0.572,18.7735,338,0,
79.4693,7.33948,13.2996,0.572,18.7735,338,0,
79.4693,7.33917,13.2996,0.572,18.7735,338,0,
79.4694,7.33978,13.2965,0.572,18.7735,338,0,
79.4694,7.33429,13.3102,0.572,18.7735,338,0,
79.4694,7.33429,13.3087,0.572,18.7735,338,0,
79.4695,7.3349,13.3102,0.572,18.7735,338,0,
79.4695,7.33521,13.3072,0.572,18.7735,338,0,
79.4695,7.33459,13.3087,0.572,18.7735,338,0,
79.4696,7.33429,13.3072,0.572,18.7735,338,0,
79.4696,7.33459,13.3102,0.572,18.7735,338,0,
79.4696,7.3349,13.3102,0.572,18.7735,338,0,
79.4697,7.33459,13.3102,0.572,18.7735,338,0,
79.4697,7.33459,13.3102,0.572,18.7735,338,0,
79.4697,7.3349,13.3072,0.572,18.7735,338,0,
79.4698,7.33459,13.3087,0.572,18.7735,338,0,
79.4698,7.33582,13.3133,0.572,18.7735,338,0,
79.4698,7.33459,13.3087,0.572,18.7735,338,0,
79.4699,7.33459,13.3087,0.572,18.7735,338,0,
79.4699,7.33459,13.3102,0.572,18.7735,338,0,
79.4699,7.33459,13.3087,0.572,18.7735,338,0,
79.47,7.33398,13.3087,0.572,18.7735,338,0,
79.47,7.33032,13.3087,0.572,18.7735,338,0,
79.47,7.32971,13.3102,0.572,18.7735,338,0,
79.4701,7.33002,13.3118,0.572,18.7735,338,0,
79.4701,7.32971,13.324,0.572,18.7735,338,0,
79.4701,7.32971,13.3255,0.572,18.7735,338,0,
79.4702,7.32971,13.3255,0.572,18.7735,338,0,
79.4702,7.33002,13.324,0.572,18.7735,338,0,
79.4702,7.3291,13.3209,0.572,18.7735,338,0,
79.4703,7.32941,13.3224,0.572,18.7735,338,0,
79.4703,7.32971,13.324,0.572,18.7735,338,0,
79.4703,7.33032,13.3209,0.572,18.7735,338,0,
79.4704,7.32971,13.3209,0.572,18.7735,338,0,
79.4704,7.33032,13.3209,0.572,18.7735,338,0,
79.4704,7.32941,13.3209,0.572,18.7735,338,0,
79.4705,7.33002,13.3209,0.572,18.7735,338,0,
79.4705,7.33002,13.324,0.572,18.7735,338,0,
79.4705,7.32544,13.3255,0.572,18.7735,338,0,
79.4706,7.32513,13.3255,0.572,18.7735,338,0,
79.4706,7.32483,13.3224,0.572,18.7735,338,0,
79.4706,7.32483,13.3209,0.572,18.7735,338,0,
79.4707,7.32452,13.3209,0.572,18.7735,338,0,
79.4707,7.32483,13.3224,0.572,18.7735,338,0,
79.4707,7.32483,13.324,0.572,18.7735,338,0,
79.4708,7.32513,13.3301,0.572,18.7735,338,0,
79.4708,7.32452,13.3347,0.572,18.7735,338,0,
79.4708,7.32452,13.3331,0.572,18.7735,338,0,
79.4709,7.32574,13.3347,0.572,18.7735,338,0,
79.4709,7.32452,13.3316,0.572,18.7735,338,0,
79.4709,7.32483,13.3331,0.572,18.7735,338,0,
79.471,7.32483,13.3362,0.572,18.7735,338,0,
79.471,7.32452,13.3377,0.572,18.7735,338,0,
79.471,7.31995,13.3362,0.572,18.7735,338,0,
79.4711,7.31995,13.3316,0.572,18.7735,338,0,
79.4711,7.31995,13.3316,0.572,18.7735,338,0,
79.4711,7.31873,13.3347,0.572,18.7735,338,0,
79.4712,7.31995,13.3331,0.572,18.7735,338,0,
79.4712,7.31964,13.3362,0.572,18.7735,338,0,
79.4712,7.31995,13.3347,0.572,18.7735,338,0,
79.4713,7.32025,13.3347,0.572,18.7735,338,0,
79.4713,7.31934,13.3347,0.572,18.7735,338,0,
79.4713,7.32056,13.3316,0.572,18.7735,338,0,
79.4714,7.31934,13.3392,0.572,18.7735,338,0,
79.4714,7.31995,13.3347,0.572,18.7735,338,0,
79.4714,7.31964,13.3316,0.572,18.7735,338,0,
79.4715,7.31934,13.3438,0.572,18.7735,338,0,
79.4715,7.31537,13.3484,0.572,18.7735,338,0,
79.4715,7.31567,13.3469,0.572,18.7735,338,0,
79.4716,7.31567,13.3469,0.572,18.7735,338,0,
79.4716,7.31506,13.3453,0.572,18.7735,338,0,
79.4716,7.31537,13.3453,0.572,18.7735,338,0,
79.4717,7.31537,13.3484,0.572,18.7735,338,0,
79.4717,7.31537,13.3469,0.572,18.7735,338,0,
79.4717,7.31506,13.3484,0.572,18.7735,338,0,
79.4718,7.31445,13.3469,0.572,18.7735,338,0,
79.4718,7.31537,13.3484,0.572,18.7735,338,0,
79.4718,7.31537,13.3499,0.572,18.7735,338,0,
79.4719,7.31537,13.3469,0.572,18.7735,338,0,
79.4719,7.31567,13.3453,0.572,18.7735,338,0,
79.4719,7.31201,13.3438,0.572,18.7735,338,0,
79.472,7.30988,13.3499,0.572,18.7735,338,0,
79.472,7.31018,13.3453,0.572,18.7735,338,0,
79.472,7.31049,13.3484,0.572,18.7735,338,0,
79.4721,7.31049,13.3453,0.572,18.7735,338,0,
79.4721,7.31049,13.3438,0.572,18.7735,338,0,
79.4721,7.31049,13.3453,0.572,18.7735,338,0,
79.4722,7.31018,13.3469,0.572,18.7735,338,0,
79.4722,7.31079,13.3591,0.572,18.7735,338,0,
79.4722,7.31018,13.3545,0.572,18.7735,338,0,
79.4723,7.31079,13.3606,0.572,18.7735,338,0,
79.4723,7.30957,13.3575,0.572,18.7735,338,0,
79.4723,7.31018,13.3591,0.572,18.7735,338,0,
79.4724,7.30591,13.3591,0.572,18.7735,338,0,
79.4724,7.30499,13.356,0.572,18.7735,338,0,
79.4724,7.30591,13.3591,0.572,18.7735,338,0,
79.4725,7.3053,13.3591,0.572,18.7735,338,0,
79.4725,7.30591,13.3591,0.572,18.7735,338,0,
79.4725,7.3053,13.3606,0.572,18.7735,338,0,
79.4726,7.30499,13.356,0.572,18.7735,338,0,
79.4726,7.3056,13.3591,0.572,18.7735,338,0,
79.4726,7.30591,13.3575,0.572,18.7735,338,0,
79.4727,7.30499,13.3575,0.572,18.7735,338,0,
79.4727,7.3053,13.3575,0.572,18.7735,338,0,
79.4727,7.30591,13.3591,0.572,18.7735,338,0,
79.4728,7.30164,13.356,0.572,18.7735,338,0,
79.4728,7.30042,13.3545,0.572,18.7735,338,0,
79.4728,7.30103,13.356,0.572,18.7735,338,0,
79.4729,7.30042,13.3545,0.572,18.7735,338,0,
79.4729,7.30042,13.3698,0.572,18.7735,338,0,
79.4729,7.30042,13.3728,0.572,18.7735,338,0,
79.473,7.30072,13.3713,0.572,18.7735,338,0,
79.473,7.30042,13.3698,0.572,18.7735,338,0,
79.473,7.30072,13.3698,0.572,18.7735,338,0,
79.4731,7.2998,13.3698,0.572,18.7735,338,0,
79.4731,7.30042,13.3698,0.572,18.7735,338,0,
79.4731,7.30042,13.3667,0.572,18.7735,338,0,
79.4732,7.29736,13.3698,0.572,18.7735,338,0,
79.4732,7.29584,13.3713,0.572,18.7735,338,0,
79.4732,7.29584,13.3713,0.572,18.7735,338,0,
79.4733,7.29584,13.3698,0.572,18.7735,338,0,
79.4733,7.29584,13.3682,0.572,18.7735,338,0,
79.4733,7.29523,13.3667,0.572,18.7735,338,0,
79.4734,7.29584,13.3698,0.572,18.7735,338,0,
79.4734,7.29523,13.3713,0.572,18.7735,338,0,
79.4734,7.29553,13.3698,0.572,18.7735,338,0,
79.4735,7.29553,13.3728,0.572,18.7735,338,0,
79.4735,7.29584,13.3698,0.572,18.7735,338,0,
79.4735,7.29584,13.3713,0.572,18.7735,338,0,
79.4736,7.29187,13.3713,0.572,18.7735,338,0,
79.4736,7.29065,13.3789,0.572,18.7735,338,0,
79.4736,7.29034,13.3835,0.572,18.7735,338,0,
79.4737,7.29126,13.3804,0.572,18.7735,338,0,
79.4737,7.29065,13.382,0.572,18.7735,338,0,
79.4737,7.29095,13.382,0.572,18.7735,338,0,
79.4738,7.29065,13.382,0.572,18.7735,338,0,
79.4738,7.29095,13.385,0.572,18.7735,338,0,
79.4738,7.29004,13.3789,0.572,18.7735,338,0,
79.4739,7.29034,13.3804,0.572,18.7735,338,0,
79.4739,7.29065,13.3835,0.572,18.7735,338,0,
79.4739,7.29004,13.382,0.572,18.7735,338,0,
79.474,7.29034,13.382,0.572,18.7735,338,0,
79.474,7.28516,13.385,0.572,18.7735,338,0,
79.474,7.28607,13.382,0.572,18.7735,338,0,
79.4741,7.28546,13.3881,0.572,18.7735,338,0,
79.4741,7.28577,13.3865,0.572,18.7735,338,0,
79.4741,7.28546,13.3835,0.572,18.7735,338,0,
79.4742,7.28546,13.3972,0.572,18.7735,338,0,
79.4742,7.28485,13.3942,0.572,18.7735,338,0,
79.4742,7.28516,13.3972,0.572,18.7735,338,0,
79.4743,7.28607,13.3942,0.572,18.7735,338,0,
79.4743,7.28577,13.3957,0.572,18.7735,338,0,
79.4743,7.28516,13.3972,0.572,18.7735,338,0,
79.4744,7.28455,13.3942,0.572,18.7735,338,0,
79.4744,7.28088,13.3942,0.572,18.7735,338,0,
79.4744,7.28088,13.3972,0.572,18.7735,338,0,
79.4745,7.28088,13.3972,0.572,18.7735,338,0,
79.4745,7.28119,13.3957,0.572,18.7735,338,0,
79.4745,7.28088,13.3942,0.572,18.7735,338,0,
79.4746,7.28088,13.3957,0.572,18.7735,338,0,
79.4746,7.28058,13.3942,0.572,18.7735,338,0,
79.4746,7.28058,13.3926,0.572,18.7735,338,0,
79.4747,7.28027,13.3957,0.572,18.7735,338,0,
79.4747,7.28027,13.4094,0.572,18.7735,338,0,
79.4747,7.28088,13.4094,0.572,18.7735,338,0,
79.4748,7.28058,13.4064,0.572,18.7735,338,0,
79.4748,7.276,13.4033,0.572,18.7735,338,0,
79.4748,7.27539,13.4064,0.572,18.7735,338,0,
79.4749,7.27539,13.4094,0.572,18.7735,338,0,
79.4749,7.27509,13.4064,0.572,18.7735,338,0,
79.4749,7.276,13.4079,0.572,18.7735,338,0,
79.475,7.27539,13.4048,0.572,18.7735,338,0,
79.475,7.27631,13.4033,0.572,18.7735,338,0,
79.475,7.276,13.4094,0.572,18.7735,338,0,
79.4751,7.2757,13.4048,0.572,18.7735,338,0,
79.4751,7.27631,13.4064,0.572,18.7735,338,0,
79.4751,7.2757,13.4079,0.572,18.7735,338,0,
79.4752,7.27448,13.4079,0.572,18.7735,338,0,
79.4752,7.27539,13.4048,0.572,18.7735,338,0,
79.4752,7.2757,13.4094,0.572,18.7735,338,0,
79.4753,7.27081,13.4171,0.572,18.7735,338,0,
79.4753,7.27051,13.4171,0.572,18.7735,338,0,
79.4753,7.27081,13.4216,0.572,18.7735,338,0,
79.4754,7.27142,13.4201,0.572,18.7735,338,0,
79.4754,7.27112,13.4186,0.572,18.7735,338,0,
79.4754,7.27112,13.4201,0.572,18.7735,338,0,
79.4755,7.27081,13.4186,0.572,18.7735,338,0,
79.4755,7.27142,13.4216,0.572,18.7735,338,0,
79.4755,7.27112,13.4201,0.572,18.7735,338,0,
79.4756,7.27142,13.4201,0.572,18.7735,338,0,
79.4756,7.27142,13.4201,0.572,18.7735,338,0,
79.4756,7.27112,13.4186,0.572,18.7735,338,0,
79.4757,7.27051,13.4171,0.572,18.7735,338,0,
79.4757,7.27112,13.4216,0.572,18.7735,338,0,
79.4757,7.2702,13.4216,0.572,18.7735,338,0,
79.4758,7.26624,13.4171,0.572,18.7735,338,0,
79.4758,7.26593,13.4201,0.572,18.7735,338,0,
79.4758,7.26562,13.4186,0.572,18.7735,338,0,
79.4759,7.26593,13.4293,0.572,18.7735,338,0,
79.4759,7.26562,13.4308,0.572,18.7735,338,0,
79.4759,7.26624,13.4293,0.572,18.7735,338,0,
79.476,7.26532,13.4354,0.572,18.7735,338,0,
79.476,7.26562,13.4308,0.572,18.7735,338,0,
79.476,7.26562,13.4323,0.572,18.7735,338,0,
79.4761,7.26593,13.4308,0.572,18.7735,338,0,
79.4761,7.26624,13.4293,0.572,18.7735,338,0,
79.4761,7.26593,13.4308,0.572,18.7735,338,0,
79.4762,7.26501,13.4293,0.572,18.7735,338,0,
79.4762,7.26562,13.4323,0.572,18.7735,338,0,
79.4762,7.26562,13.4293,0.572,18.7735,338,0,
79.4763,7.26624,13.4369,0.572,18.7735,338,0,
79.4763,7.26593,13.4308,0.572,18.7735,338,0,
79.4763,7.26227,13.4323,0.572,18.7735,338,0,
79.4764,7.26105,13.4308,0.572,18.7735,338,0,
79.4764,7.26135,13.4308,0.572,18.7735,338,0,
79.4764,7.26135,13.4308,0.572,18.7735,338,0,
79.4765,7.26166,13.4308,0.572,18.7735,338,0,
79.4765,7.26105,13.4445,0.572,18.7735,338,0,
79.4765,7.26166,13.4476,0.572,18.7735,338,0,
79.4766,7.26074,13.4445,0.572,18.7735,338,0,
79.4766,7.26105,13.443,0.572,18.7735,338,0,
79.4766,7.26166,13.4445,0.572,18.7735,338,0,
79.4767,7.26135,13.443,0.572,18.7735,338,0,
79.4767,7.26074,13.4445,0.572,18.7735,338,0,
79.4767,7.26074,13.4445,0.572,18.7735,338,0,
79.4768,7.26135,13.4415,0.572,18.7735,338,0,
79.4768,7.26166,13.443,0.572,18.7735,338,0,
79.4768,7.26074,13.4445,0.572,18.7735,338,0,
79.4769,7.26105,13.4399,0.572,18.7735,338,0,
79.4769,7.26105,13.4445,0.572,18.7735,338,0,
79.4769,7.26196,13.4445,0.572,18.7735,338,0,
79.477,7.26166,13.4415,0.572,18.7735,338,0,
79.477,7.2583,13.443,0.572,18.7735,338,0,
