3800-SECPT.acq
2 msec/sample
6 channels
RSP, X, RSPEC-R
Volts
EDA, Y, PPGED-R
microsiemens
ECG R-R
Seconds
Respiration Rate
BPM
C7 - EDR
Peaks
C14 - Control
Volts
sec,CH1,CH14,CH40,CH42,CH47,CH54,
,49630,49630,49630,49630,49630,49630,
4226.79,3.32764,9.8999,0.744,19.7759,236,5,
4226.79,3.32214,9.89533,0.744,19.7759,236,5,
4226.79,3.32306,9.89838,0.744,19.7759,236,5,
4226.79,3.31787,9.89838,0.744,19.7759,236,5,
4226.8,3.31726,9.89685,0.744,19.7759,236,5,
4226.8,3.31451,9.8938,0.744,19.7759,236,5,
4226.8,3.31268,9.89533,0.744,19.7759,236,5,
4226.8,3.31268,9.89533,0.744,19.7759,236,5,
4226.8,3.3075,9.89685,0.744,19.7759,236,5,
4226.81,3.30811,9.89685,0.744,19.7759,236,5,
4226.81,3.30292,9.89685,0.744,19.7759,236,5,
4226.81,3.30292,9.89838,0.744,19.7759,236,5,
4226.81,3.29895,9.89533,0.744,19.7759,236,5,
4226.81,3.29773,9.89533,0.744,19.7759,236,5,
4226.82,3.29376,9.89685,0.744,19.7759,236,5,
4226.82,3.29315,9.8938,0.744,19.7759,236,5,
4226.82,3.29102,9.89838,0.744,19.7759,236,5,
4226.82,3.28796,9.89533,0.744,19.7759,236,5,
4226.82,3.28766,9.89838,0.744,19.7759,236,5,
4226.83,3.28339,9.8938,0.744,19.7759,236,5,
4226.83,3.28369,9.8999,0.744,19.7759,236,5,
4226.83,3.2782,9.89685,0.744,19.7759,236,5,
4226.83,3.27881,9.89685,0.744,19.7759,236,5,
4226.83,3.27301,9.89685,0.744,19.7759,236,5,
4226.84,3.27362,9.89685,0.744,19.7759,236,5,
4226.84,3.26874,9.89838,0.744,19.7759,236,5,
4226.84,3.26874,9.89685,0.744,19.7759,236,5,
4226.84,3.26447,9.89685,0.744,19.7759,236,5,
4226.84,3.26416,9.89533,0.744,19.7759,236,5,
4226.85,3.25867,9.89533,0.744,19.7759,236,5,
4226.85,3.25867,9.89685,0.744,19.7759,236,5,
4226.85,3.25439,9.89838,0.744,19.7759,236,5,
4226.85,3.25378,9.89533,0.744,19.7759,236,5,
4226.85,3.24921,9.8938,0.744,19.7759,236,5,
4226.86,3.24921,9.89685,0.744,19.7759,236,5,
4226.86,3.24402,9.89838,0.744,19.7759,236,5,
4226.86,3.24432,9.89533,0.744,19.7759,236,5,
4226.86,3.23883,9.89838,0.744,19.7759,236,5,
4226.86,3.23883,9.89838,0.744,19.7759,236,5,
4226.87,3.23486,9.89838,0.744,19.7759,236,5,
4226.87,3.23425,9.89533,0.744,19.7759,236,5,
4226.87,3.22968,9.89533,0.744,19.7759,236,5,
4226.87,3.22937,9.89685,0.744,19.7759,236,5,
4226.87,3.22479,9.8938,0.744,19.7759,236,5,
4226.88,3.22449,9.89838,0.744,19.7759,236,5,
4226.88,3.2196,9.89685,0.744,19.7759,236,5,
4226.88,3.2193,9.89685,0.744,19.7759,236,5,
4226.88,3.21472,9.89533,0.744,19.7759,236,5,
4226.88,3.21198,9.89685,0.744,19.7759,236,5,
4226.89,3.21014,9.89838,0.744,19.7759,236,5,
4226.89,3.20679,9.89838,0.744,19.7759,236,5,
4226.89,3.20465,9.89838,0.744,19.7759,236,5,
4226.89,3.2016,9.88464,0.744,19.7759,236,5,
4226.89,3.20038,9.88464,0.744,19.7759,236,5,
4226.9,3.19611,9.88312,0.744,19.7759,236,5,
4226.9,3.1955,9.88312,0.744,19.7759,236,5,
4226.9,3.19092,9.88617,0.744,19.7759,236,5,
4226.9,3.19,9.88312,0.744,19.7759,236,5,
4226.9,3.18634,9.88312,0.744,19.7759,236,5,
4226.91,3.18542,9.88312,0.744,19.7759,236,5,
4226.91,3.18054,9.88617,0.744,19.7759,236,5,
4226.91,3.18054,9.88159,0.744,19.7759,236,5,
4226.91,3.17627,9.88159,0.744,19.7759,236,5,
4226.91,3.17596,9.88464,0.744,19.7759,236,5,
4226.92,3.17078,9.88312,0.744,19.7759,236,5,
4226.92,3.17078,9.88312,0.744,19.7759,236,5,
4226.92,3.16528,9.88464,0.744,19.7759,236,5,
4226.92,3.16559,9.88464,0.744,19.7759,236,5,
4226.92,3.16071,9.8877,0.744,19.7759,236,5,
4226.93,3.1604,9.88464,0.744,19.7759,236,5,
4226.93,3.15582,9.88617,0.744,19.7759,236,5,
4226.93,3.15308,9.88464,0.744,19.7759,236,5,
4226.93,3.15186,9.88312,0.744,19.7759,236,5,
4226.93,3.1485,9.88464,0.744,19.7759,236,5,
4226.94,3.14667,9.8877,0.744,19.7759,236,5,
4226.94,3.14362,9.88464,0.744,19.7759,236,5,
4226.94,3.14117,9.88617,0.744,19.7759,236,5,
4226.94,3.13934,9.88312,0.744,19.7759,236,5,
4226.94,3.1366,9.88464,0.744,19.7759,236,5,
4226.95,3.13232,9.88617,0.744,19.7759,236,5,
4226.95,3.13171,9.88464,0.744,19.7759,236,5,
4226.95,3.12714,9.88617,0.744,19.7759,236,5,
4226.95,3.12714,9.88617,0.744,19.7759,236,5,
4226.95,3.12256,9.8877,0.744,19.7759,236,5,
4226.96,3.12164,9.88464,0.744,19.7759,236,5,
4226.96,3.11737,9.88312,0.744,19.7759,236,5,
4226.96,3.11676,9.88464,0.744,19.7759,236,5,
4226.96,3.11249,9.88617,0.744,19.7759,236,5,
4226.96,3.11188,9.88312,0.744,19.7759,236,5,
4226.97,3.1076,9.88312,0.744,19.7759,236,5,
4226.97,3.1073,9.88159,0.744,19.7759,236,5,
4226.97,3.10181,9.88312,0.744,19.7759,236,5,
4226.97,3.10242,9.88312,0.744,19.7759,236,5,
4226.97,3.09692,9.88312,0.744,19.7759,236,5,
4226.98,3.09723,9.88464,0.744,19.7759,236,5,
4226.98,3.09235,9.88312,0.744,19.7759,236,5,
4226.98,3.09235,9.88617,0.744,19.7759,236,5,
4226.98,3.08807,9.88464,0.744,19.7759,236,5,
4226.98,3.08746,9.88464,0.744,19.7759,236,5,
4226.99,3.08228,9.88617,0.744,19.7759,236,5,
4226.99,3.08258,9.88617,0.744,19.7759,236,5,
4226.99,3.078,9.88312,0.744,19.7759,236,5,
4226.99,3.0777,9.87091,0.744,19.7759,236,5,
4226.99,3.07343,9.87396,0.744,19.7759,236,5,
4227,3.07281,9.87244,0.744,19.7759,236,5,
4227,3.06732,9.87244,0.744,19.7759,236,5,
4227,3.06824,9.87091,0.744,19.7759,236,5,
4227,3.06274,9.87091,0.744,19.7759,236,5,
4227,3.06274,9.87244,0.744,19.7759,236,5,
4227.01,3.05786,9.87091,0.744,19.7759,236,5,
4227.01,3.05817,9.87396,0.744,19.7759,236,5,
4227.01,3.05298,9.87396,0.744,19.7759,236,5,
4227.01,3.05328,9.87244,0.744,19.7759,236,5,
4227.01,3.0484,9.87091,0.744,19.7759,236,5,
4227.02,3.04382,9.87396,0.744,19.7759,236,5,
4227.02,3.04352,9.87244,0.744,19.7759,236,5,
4227.02,3.03864,9.86939,0.744,19.7759,236,5,
4227.02,3.03894,9.87396,0.744,19.7759,236,5,
4227.02,3.03345,9.87244,0.744,19.7759,236,5,
4227.03,3.03345,9.87244,0.744,19.7759,236,5,
4227.03,3.02917,9.87396,0.744,19.7759,236,5,
4227.03,3.02856,9.87396,0.744,19.7759,236,5,
4227.03,3.02399,9.87091,0.744,19.7759,236,5,
4227.03,3.02338,9.87244,0.744,19.7759,236,5,
4227.04,3.0188,9.87091,0.744,19.7759,236,5,
4227.04,3.0188,9.87396,0.744,19.7759,236,5,
4227.04,3.01422,9.87396,0.744,19.7759,236,5,
4227.04,3.01392,9.87396,0.744,19.7759,236,5,
4227.04,3.00964,9.86939,0.744,19.7759,236,5,
4227.05,3.00995,9.87091,0.744,19.7759,236,5,
4227.05,3.00415,9.87549,0.744,19.7759,236,5,
4227.05,3.00385,9.87091,0.744,19.7759,236,5,
4227.05,2.99927,9.87091,0.744,19.7759,236,5,
4227.05,2.99927,9.87091,0.744,19.7759,236,5,
4227.06,2.995,9.87396,0.744,19.7759,236,5,
4227.06,2.99408,9.87091,0.744,19.7759,236,5,
4227.06,2.99011,9.87244,0.744,19.7759,236,5,
4227.06,2.98981,9.87091,0.744,19.7759,236,5,
4227.06,2.98523,9.86939,0.744,19.7759,236,5,
4227.07,2.98462,9.87396,0.744,19.7759,236,5,
4227.07,2.98035,9.87396,0.744,19.7759,236,5,
4227.07,2.98004,9.87244,0.744,19.7759,236,5,
4227.07,2.9776,9.87244,0.744,19.7759,236,5,
4227.07,2.97546,9.86939,0.744,19.7759,236,5,
4227.08,2.97241,9.87091,0.744,19.7759,236,5,
4227.08,2.97058,9.8587,0.744,19.7759,236,5,
4227.08,2.96967,9.8587,0.744,19.7759,236,5,
4227.08,2.96539,9.8587,0.744,19.7759,236,5,
4227.08,2.96478,9.85565,0.744,19.7759,236,5,
4227.09,2.96021,9.86176,0.744,19.7759,236,5,
4227.09,2.96021,9.86023,0.744,19.7759,236,5,
4227.09,2.95563,9.86176,0.744,19.7759,236,5,
4227.09,2.95471,9.8587,0.744,19.7759,236,5,
4227.09,2.95105,9.8587,0.744,19.7759,236,5,
4227.1,2.95044,9.86176,0.744,19.7759,236,5,
4227.1,2.94586,9.86023,0.744,19.7759,236,5,
4227.1,2.94586,9.86176,0.744,19.7759,236,5,
4227.1,2.94128,9.8587,0.744,19.7759,236,5,
4227.1,2.94067,9.8587,0.744,19.7759,236,5,
4227.11,2.93793,9.85718,0.744,19.7759,236,5,
4227.11,2.93579,9.86176,0.744,19.7759,236,5,
4227.11,2.93304,9.86023,0.744,19.7759,236,5,
4227.11,2.93152,9.86328,0.744,19.7759,236,5,
4227.11,2.93121,9.86176,0.744,19.7759,236,5,
4227.12,2.92664,9.86176,0.744,19.7759,236,5,
4227.12,2.92603,9.86023,0.744,19.7759,236,5,
4227.12,2.92206,9.85718,0.744,19.7759,236,5,
4227.12,2.92175,9.86176,0.744,19.7759,236,5,
4227.12,2.91748,9.8587,0.744,19.7759,236,5,
4227.13,2.91687,9.8587,0.744,19.7759,236,5,
4227.13,2.91412,9.85718,0.744,19.7759,236,5,
4227.13,2.91107,9.85718,0.744,19.7759,236,5,
4227.13,2.91168,9.86023,0.744,19.7759,236,5,
4227.13,2.90741,9.86023,0.744,19.7759,236,5,
4227.14,2.90741,9.8587,0.744,19.7759,236,5,
4227.14,2.90253,9.86023,0.744,19.7759,236,5,
4227.14,2.90253,9.8587,0.744,19.7759,236,5,
4227.14,2.89764,9.8587,0.744,19.7759,236,5,
4227.14,2.89673,9.8587,0.744,19.7759,236,5,
4227.15,2.89398,9.86176,0.744,19.7759,236,5,
4227.15,2.89215,9.85565,0.744,19.7759,236,5,
4227.15,2.89185,9.8587,0.744,19.7759,236,5,
4227.15,2.88666,9.8587,0.744,19.7759,236,5,
4227.15,2.88666,9.8587,0.744,19.7759,236,5,
4227.16,2.88208,9.86023,0.744,19.7759,236,5,
4227.16,2.88147,9.8587,0.744,19.7759,236,5,
4227.16,2.88147,9.86023,0.744,19.7759,236,5,
4227.16,2.87628,9.86023,0.744,19.7759,236,5,
4227.16,2.87659,9.8465,0.744,19.7759,236,5,
4227.17,2.87201,9.84955,0.744,19.7759,236,5,
4227.17,2.8717,9.84802,0.744,19.7759,236,5,
4227.17,2.86926,9.8465,0.744,19.7759,236,5,
4227.17,2.86713,9.84955,0.744,19.7759,236,5,
4227.17,2.86682,9.8465,0.744,19.7759,236,5,
4227.18,2.86224,9.8465,0.744,19.7759,236,5,
4227.18,2.86255,9.8465,0.744,19.7759,236,5,
4227.18,2.8595,9.8465,0.744,19.7759,236,5,
4227.18,2.85614,9.84955,0.744,19.7759,236,5,
4227.18,2.85675,9.8465,0.744,19.7759,236,5,
4227.19,2.85217,9.84802,0.744,19.7759,236,5,
4227.19,2.85187,9.84955,0.744,19.7759,236,5,
4227.19,2.84912,9.8465,0.744,19.7759,236,5,
4227.19,2.84698,9.84802,0.744,19.7759,236,5,
4227.19,2.8479,9.8465,0.744,19.7759,236,5,
4227.2,2.84271,9.84955,0.744,19.7759,236,5,
4227.2,2.84363,9.84497,0.744,19.7759,236,5,
4227.2,2.84241,9.84802,0.744,19.7759,236,5,
4227.2,2.83722,9.8465,0.744,19.7759,236,5,
4227.2,2.83752,9.8465,0.744,19.7759,236,5,
4227.21,2.83386,9.84802,0.744,19.7759,236,5,
4227.21,2.83295,9.84955,0.744,19.7759,236,5,
4227.21,2.83264,9.84802,0.744,19.7759,236,5,
4227.21,2.82867,9.8465,0.744,19.7759,236,5,
4227.21,2.82745,9.84802,0.744,19.7759,236,5,
4227.22,2.82837,9.84802,0.744,19.7759,236,5,
4227.22,2.82318,9.84802,0.744,19.7759,236,5,
4227.22,2.82349,9.84802,0.744,19.7759,236,5,
4227.22,2.82013,9.84802,0.744,19.7759,236,5,
4227.22,2.81769,9.84497,0.744,19.7759,236,5,
4227.23,2.8186,9.84802,0.744,19.7759,236,5,
4227.23,2.81464,9.84497,0.744,19.7759,236,5,
4227.23,2.81311,9.8465,0.744,19.7759,236,5,
4227.23,2.81372,9.84802,0.744,19.7759,236,5,
4227.23,2.80884,9.8465,0.744,19.7759,236,5,
4227.24,2.80823,9.8465,0.744,19.7759,236,5,
4227.24,2.80884,9.8465,0.744,19.7759,236,5,
4227.24,2.80396,9.84497,0.744,19.7759,236,5,
4227.24,2.80334,9.84497,0.744,19.7759,236,5,
4227.24,2.80396,9.84802,0.744,19.7759,236,5,
4227.25,2.79846,9.84802,0.744,19.7759,236,5,
4227.25,2.79816,9.84497,0.744,19.7759,236,5,
4227.25,2.79846,9.8465,0.744,19.7759,236,5,
4227.25,2.79388,9.84955,0.744,19.7759,236,5,
4227.25,2.79327,9.84955,0.744,19.7759,236,5,
4227.26,2.79388,9.8465,0.744,19.7759,236,5,
4227.26,2.78931,9.84802,0.744,19.7759,236,5,
4227.26,2.7887,9.8465,0.744,19.7759,236,5,
4227.26,2.78931,9.83887,0.744,19.7759,236,5,
4227.26,2.78442,9.83887,0.744,19.7759,236,5,
4227.27,2.78381,9.83887,0.744,19.7759,236,5,
4227.27,2.78351,9.83429,0.744,19.7759,236,5,
4227.27,2.78137,9.83429,0.744,19.7759,236,5,
4227.27,2.77924,9.83734,0.744,19.7759,236,5,
4227.27,2.77924,9.83734,0.744,19.7759,236,5,
4227.28,2.77832,9.83734,0.744,19.7759,236,5,
4227.28,2.77374,9.83429,0.744,19.7759,236,5,
4227.28,2.77435,9.83582,0.744,19.7759,236,5,
4227.28,2.77435,9.83276,0.744,19.7759,236,5,
4227.28,2.76947,9.83582,0.744,19.7759,236,5,
4227.29,2.76855,9.83582,0.744,19.7759,236,5,
4227.29,2.76855,9.83734,0.744,19.7759,236,5,
4227.29,2.76489,9.83887,0.744,19.7759,236,5,
4227.29,2.76489,9.83429,0.744,19.7759,236,5,
4227.29,2.76398,9.83582,0.744,19.7759,236,5,
4227.3,2.76398,9.83276,0.744,19.7759,236,5,
4227.3,2.7594,9.83429,0.744,19.7759,236,5,
4227.3,2.75909,9.83734,0.744,19.7759,236,5,
4227.3,2.7594,9.83734,0.744,19.7759,236,5,
4227.3,2.75513,9.83582,0.744,19.7759,236,5,
4227.31,2.75421,9.83734,0.744,19.7759,236,5,
4227.31,2.75452,9.83887,0.744,19.7759,236,5,
4227.31,2.75421,9.83429,0.744,19.7759,236,5,
4227.31,2.74994,9.83582,0.744,19.7759,236,5,
4227.31,2.74994,9.83887,0.744,19.7759,236,5,
4227.32,2.75055,9.83734,0.744,19.7759,236,5,
4227.32,2.74506,9.83582,0.744,19.7759,236,5,
4227.32,2.74445,9.83429,0.744,19.7759,236,5,
4227.32,2.74475,9.83429,0.744,19.7759,236,5,
4227.32,2.74445,9.83276,0.744,19.7759,236,5,
4227.33,2.74017,9.83429,0.744,19.7759,236,5,
4227.33,2.73956,9.83887,0.744,19.7759,236,5,
4227.33,2.74048,9.83429,0.744,19.7759,236,5,
4227.33,2.73926,9.83582,0.744,19.7759,236,5,
4227.33,2.73468,9.83582,0.744,19.7759,236,5,
4227.34,2.73529,9.83734,0.744,19.7759,236,5,
4227.34,2.73529,9.83276,0.744,19.7759,236,5,
4227.34,2.73224,9.83582,0.744,19.7759,236,5,
4227.34,2.73041,9.83582,0.744,19.7759,236,5,
4227.34,2.7301,9.83582,0.744,19.7759,236,5,
4227.35,2.7301,9.83734,0.744,19.7759,236,5,
4227.35,2.72736,9.83734,0.744,19.7759,236,5,
4227.35,2.72491,9.83734,0.744,19.7759,236,5,
4227.35,2.72491,9.83734,0.744,19.7759,236,5,
4227.35,2.72583,9.83429,0.744,19.7759,236,5,
4227.36,2.72095,9.83887,0.744,19.7759,236,5,
4227.36,2.72003,9.83582,0.744,19.7759,236,5,
4227.36,2.72034,9.83429,0.744,19.7759,236,5,
4227.36,2.72095,9.83582,0.744,19.7759,236,5,
4227.36,2.71576,9.83276,0.744,19.7759,236,5,
4227.37,2.71515,9.83582,0.744,19.7759,236,5,
4227.37,2.71484,9.83582,0.744,19.7759,236,5,
4227.37,2.71515,9.83276,0.744,19.7759,236,5,
4227.37,2.71057,9.83276,0.744,19.7759,236,5,
4227.37,2.71088,9.84039,0.744,19.7759,236,5,
4227.38,2.71088,9.83429,0.744,19.7759,236,5,
4227.38,2.71027,9.83582,0.744,19.7759,236,5,
4227.38,2.70477,9.83582,0.744,19.7759,236,5,
4227.38,2.70508,9.83582,0.744,19.7759,236,5,
4227.38,2.70477,9.83429,0.744,19.7759,236,5,
4227.39,2.70477,9.83734,0.744,19.7759,236,5,
4227.39,2.7005,9.83887,0.744,19.7759,236,5,
4227.39,2.70081,9.83276,0.744,19.7759,236,5,
4227.39,2.7002,9.82361,0.744,19.7759,236,5,
4227.39,2.7005,9.82361,0.744,19.7759,236,5,
4227.4,2.69531,9.82361,0.744,19.7759,236,5,
4227.4,2.69501,9.82361,0.744,19.7759,236,5,
4227.4,2.6947,9.82361,0.744,19.7759,236,5,
4227.4,2.69257,9.82361,0.744,19.7759,236,5,
4227.4,2.69043,9.82514,0.744,19.7759,236,5,
4227.41,2.69073,9.82208,0.744,19.7759,236,5,
4227.41,2.69073,9.82361,0.744,19.7759,236,5,
4227.41,2.68646,9.82361,0.744,19.7759,236,5,
4227.41,2.68616,9.82361,0.744,19.7759,236,5,
4227.41,2.68555,9.82361,0.744,19.7759,236,5,
4227.42,2.68585,9.82361,0.744,19.7759,236,5,
4227.42,2.68066,9.82208,0.744,19.7759,236,5,
4227.42,2.68066,9.82666,0.744,19.7759,236,5,
4227.42,2.68036,9.82361,0.744,19.7759,236,5,
4227.42,2.68066,9.82361,0.744,19.7759,236,5,
4227.43,2.67548,9.82056,0.744,19.7759,236,5,
4227.43,2.67578,9.82208,0.744,19.7759,236,5,
4227.43,2.67609,9.82361,0.744,19.7759,236,5,
4227.43,2.67181,9.82514,0.744,19.7759,236,5,
4227.43,2.6709,9.82056,0.744,19.7759,236,5,
4227.44,2.6709,9.82361,0.744,19.7759,236,5,
4227.44,2.67151,9.82361,0.744,19.7759,236,5,
4227.44,2.66602,9.82361,0.744,19.7759,236,5,
4227.44,2.66602,9.82361,0.744,19.7759,236,5,
4227.44,2.66602,9.82361,0.744,19.7759,236,5,
4227.45,2.66357,9.82208,0.744,19.7759,236,5,
4227.45,2.66144,9.82208,0.744,19.7759,236,5,
4227.45,2.66113,9.82056,0.744,19.7759,236,5,
4227.45,2.66174,9.82208,0.744,19.7759,236,5,
4227.45,2.65625,9.82208,0.744,19.7759,236,5,
4227.46,2.65625,9.82361,0.744,19.7759,236,5,
4227.46,2.65625,9.82514,0.744,19.7759,236,5,
4227.46,2.65656,9.82361,0.744,19.7759,236,5,
4227.46,2.65198,9.82361,0.744,19.7759,236,5,
4227.46,2.65167,9.82666,0.744,19.7759,236,5,
4227.47,2.65167,9.82361,0.744,19.7759,236,5,
4227.47,2.6474,9.82208,0.744,19.7759,236,5,
4227.47,2.64679,9.82208,0.744,19.7759,236,5,
4227.47,2.64618,9.82361,0.744,19.7759,236,5,
4227.47,2.64587,9.82514,0.744,19.7759,236,5,
4227.48,2.6416,9.82361,0.744,19.7759,236,5,
4227.48,2.6416,9.82056,0.744,19.7759,236,5,
4227.48,2.6413,9.82056,0.744,19.7759,236,5,
4227.48,2.63794,9.82361,0.744,19.7759,236,5,
4227.48,2.63733,9.82208,0.744,19.7759,236,5,
4227.49,2.63702,9.82208,0.744,19.7759,236,5,
4227.49,2.63611,9.82514,0.744,19.7759,236,5,
4227.49,2.63184,9.82514,0.744,19.7759,236,5,
4227.49,2.63184,9.82514,0.744,19.7759,236,5,
4227.49,2.63184,9.82361,0.744,19.7759,236,5,
4227.5,2.62878,9.82208,0.744,19.7759,236,5,
4227.5,2.62726,9.82208,0.744,19.7759,236,5,
4227.5,2.62756,9.82208,0.744,19.7759,236,5,
4227.5,2.62726,9.82361,0.744,19.7759,236,5,
4227.5,2.62268,9.82514,0.744,19.7759,236,5,
4227.51,2.62207,9.82514,0.744,19.7759,236,5,
4227.51,2.62268,9.82361,0.744,19.7759,236,5,
4227.51,2.62146,9.82208,0.744,19.7759,236,5,
4227.51,2.61719,9.82056,0.744,19.7759,236,5,
4227.51,2.61658,9.82514,0.744,19.7759,236,5,
4227.52,2.61688,9.82056,0.744,19.7759,236,5,
4227.52,2.61444,9.82208,0.744,19.7759,236,5,
4227.52,2.61292,9.82208,0.744,19.7759,236,5,
4227.52,2.6123,9.81598,0.744,19.7759,236,5,
4227.52,2.61292,9.80988,0.744,19.7759,236,5,
4227.53,2.60773,9.80988,0.744,19.7759,236,5,
4227.53,2.60651,9.81293,0.744,19.7759,236,5,
4227.53,2.60712,9.80835,0.744,19.7759,236,5,
4227.53,2.60742,9.80988,0.744,19.7759,236,5,
4227.53,2.60254,9.8114,0.744,19.7759,236,5,
4227.54,2.60284,9.80835,0.744,19.7759,236,5,
4227.54,2.60284,9.8114,0.744,19.7759,236,5,
4227.54,2.60254,9.8114,0.744,19.7759,236,5,
4227.54,2.59766,9.81293,0.744,19.7759,236,5,
4227.54,2.59827,9.8114,0.744,19.7759,236,5,
4227.55,2.59705,9.81293,0.744,19.7759,236,5,
4227.55,2.59491,9.81293,0.744,19.7759,236,5,
4227.55,2.59277,9.8114,0.744,19.7759,236,5,
4227.55,2.59277,9.80835,0.744,19.7759,236,5,
4227.55,2.59247,9.80988,0.744,19.7759,236,5,
4227.56,2.59033,9.81445,0.744,19.7759,236,5,
4227.56,2.58789,9.81445,0.744,19.7759,236,5,
4227.56,2.5882,9.8114,0.744,19.7759,236,5,
4227.56,2.58789,9.80988,0.744,19.7759,236,5,
4227.56,2.58484,9.8114,0.744,19.7759,236,5,
4227.57,2.5827,9.80988,0.744,19.7759,236,5,
4227.57,2.58301,9.80988,0.744,19.7759,236,5,
4227.57,2.58301,9.80835,0.744,19.7759,236,5,
4227.57,2.58026,9.80988,0.744,19.7759,236,5,
4227.57,2.57874,9.8114,0.744,19.7759,236,5,
4227.58,2.57812,9.8114,0.744,19.7759,236,5,
4227.58,2.57874,9.81293,0.744,19.7759,236,5,
4227.58,2.57812,9.80682,0.744,19.7759,236,5,
4227.58,2.57355,9.8114,0.744,19.7759,236,5,
4227.58,2.57385,9.8114,0.744,19.7759,236,5,
4227.59,2.57355,9.8114,0.744,19.7759,236,5,
4227.59,2.57324,9.81293,0.744,19.7759,236,5,
4227.59,2.56927,9.8114,0.744,19.7759,236,5,
4227.59,2.56866,9.8114,0.744,19.7759,236,5,
4227.59,2.56836,9.8114,0.744,19.7759,236,5,
4227.6,2.56866,9.80988,0.744,19.7759,236,5,
4227.6,2.5647,9.81293,0.744,19.7759,236,5,
4227.6,2.56378,9.80682,0.744,19.7759,236,5,
4227.6,2.56348,9.8114,0.744,19.7759,236,5,
4227.6,2.56409,9.80835,0.744,19.7759,236,5,
4227.61,2.56073,9.81445,0.744,19.7759,236,5,
4227.61,2.5589,9.81293,0.744,19.7759,236,5,
4227.61,2.5589,9.80988,0.744,19.7759,236,5,
4227.61,2.55859,9.80988,0.744,19.7759,236,5,
4227.61,2.55859,9.8114,0.744,19.7759,236,5,
4227.62,2.55432,9.81445,0.744,19.7759,236,5,
4227.62,2.5531,9.81293,0.744,19.7759,236,5,
4227.62,2.55463,9.81293,0.744,19.7759,236,5,
4227.62,2.55371,9.80988,0.744,19.7759,236,5,
4227.62,2.55157,9.80988,0.744,19.7759,236,5,
4227.63,2.54913,9.80988,0.744,19.7759,236,5,
4227.63,2.54913,9.8114,0.744,19.7759,236,5,
4227.63,2.54913,9.8114,0.744,19.7759,236,5,
4227.63,2.54883,9.8114,0.744,19.7759,236,5,
4227.63,2.54425,9.8114,0.744,19.7759,236,5,
4227.64,2.54364,9.80988,0.744,19.7759,236,5,
4227.64,2.54395,9.8114,0.744,19.7759,236,5,
4227.64,2.54425,9.8114,0.744,19.7759,236,5,
4227.64,2.54364,9.80072,0.744,19.7759,236,5,
4227.64,2.53967,9.80225,0.744,19.7759,236,5,
4227.65,2.53937,9.79614,0.744,19.7759,236,5,
4227.65,2.53876,9.7992,0.744,19.7759,236,5,
4227.65,2.53906,9.7992,0.744,19.7759,236,5,
4227.65,2.53876,9.80072,0.744,19.7759,236,5,
4227.65,2.53387,9.80072,0.744,19.7759,236,5,
4227.66,2.53418,9.80072,0.744,19.7759,236,5,
4227.66,2.53387,9.79767,0.744,19.7759,236,5,
4227.66,2.53418,9.80225,0.744,19.7759,236,5,
4227.66,2.53113,9.7992,0.744,19.7759,236,5,
4227.66,2.52869,9.7992,0.744,19.7759,236,5,
4227.67,2.52869,9.79767,0.744,19.7759,236,5,
4227.67,2.5296,9.79767,0.744,19.7759,236,5,
4227.67,2.5296,9.7992,0.744,19.7759,236,5,
4227.67,2.52594,9.7992,0.744,19.7759,236,5,
4227.67,2.52441,9.80225,0.744,19.7759,236,5,
4227.68,2.52441,9.79767,0.744,19.7759,236,5,
4227.68,2.52441,9.79767,0.744,19.7759,236,5,
4227.68,2.52441,9.79767,0.744,19.7759,236,5,
4227.68,2.52197,9.79462,0.744,19.7759,236,5,
4227.68,2.51892,9.7992,0.744,19.7759,236,5,
4227.69,2.51953,9.7992,0.744,19.7759,236,5,
4227.69,2.51953,9.79767,0.744,19.7759,236,5,
4227.69,2.51984,9.79767,0.744,19.7759,236,5,
4227.69,2.51465,9.79767,0.744,19.7759,236,5,
4227.69,2.51434,9.79767,0.744,19.7759,236,5,
4227.7,2.51465,9.80225,0.744,19.7759,236,5,
4227.7,2.51373,9.80072,0.744,19.7759,236,5,
4227.7,2.51465,9.7992,0.744,19.7759,236,5,
4227.7,2.50946,9.79767,0.744,19.7759,236,5,
4227.7,2.50916,9.7992,0.744,19.7759,236,5,
4227.71,2.50946,9.7992,0.744,19.7759,236,5,
4227.71,2.50977,9.80072,0.744,19.7759,236,5,
4227.71,2.51007,9.7992,0.744,19.7759,236,5,
4227.71,2.50427,9.80072,0.744,19.7759,236,5,
4227.71,2.50458,9.79614,0.744,19.7759,236,5,
4227.72,2.50549,9.7992,0.744,19.7759,236,5,
4227.72,2.50458,9.7992,0.744,19.7759,236,5,
4227.72,2.50183,9.79462,0.744,19.7759,236,5,
4227.72,2.50031,9.7992,0.744,19.7759,236,5,
4227.72,2.5,9.80072,0.744,19.7759,236,5,
4227.73,2.5,9.79767,0.744,19.7759,236,5,
4227.73,2.49939,9.79767,0.744,19.7759,236,5,
4227.73,2.49481,9.79614,0.744,19.7759,236,5,
4227.73,2.49512,9.79614,0.744,19.7759,236,5,
4227.73,2.49451,9.7992,0.744,19.7759,236,5,
4227.74,2.49512,9.80072,0.744,19.7759,236,5,
4227.74,2.49207,9.80072,0.744,19.7759,236,5,
4227.74,2.48962,9.79767,0.744,19.7759,236,5,
4227.74,2.49023,9.80072,0.744,19.7759,236,5,
4227.74,2.49054,9.7992,0.744,19.7759,236,5,
4227.75,2.48932,9.7992,0.744,19.7759,236,5,
4227.75,2.48474,9.79767,0.744,19.7759,236,5,
4227.75,2.48474,9.79614,0.744,19.7759,236,5,
4227.75,2.48535,9.79767,0.744,19.7759,236,5,
4227.75,2.48596,9.79614,0.744,19.7759,236,5,
4227.76,2.48016,9.79767,0.744,19.7759,236,5,
4227.76,2.48077,9.7992,0.744,19.7759,236,5,
4227.76,2.47955,9.79614,0.744,19.7759,236,5,
4227.76,2.48077,9.80225,0.744,19.7759,236,5,
4227.76,2.4762,9.80072,0.744,19.7759,236,5,
4227.77,2.47467,9.79767,0.744,19.7759,236,5,
4227.77,2.47559,9.79614,0.744,19.7759,236,5,
4227.77,2.47559,9.79614,0.744,19.7759,236,5,
4227.77,2.47253,9.7992,0.744,19.7759,236,5,
4227.77,2.4707,9.79767,0.744,19.7759,236,5,
4227.78,2.4707,9.7992,0.744,19.7759,236,5,
4227.78,2.4707,9.7992,0.744,19.7759,236,5,
4227.78,2.47101,9.7992,0.744,19.7759,236,5,
4227.78,2.46613,9.80072,0.744,19.7759,236,5,
4227.78,2.46613,9.79767,0.744,19.7759,236,5,
4227.79,2.46582,9.79767,0.744,19.7759,236,5,
4227.79,2.46613,9.80225,0.744,19.7759,236,5,
4227.79,2.46155,9.7992,0.744,19.7759,236,5,
4227.79,2.46185,9.7992,0.744,19.7759,236,5,
4227.79,2.46124,9.7992,0.744,19.7759,236,5,
4227.8,2.46155,9.80072,0.744,19.7759,236,5,
4227.8,2.45697,9.80225,0.744,19.7759,236,5,
4227.8,2.45605,9.80072,0.744,19.7759,236,5,
4227.8,2.45605,9.80072,0.744,19.7759,236,5,
4227.8,2.45636,9.79614,0.744,19.7759,236,5,
4227.81,2.45087,9.7992,0.744,19.7759,236,5,
4227.81,2.45087,9.79462,0.744,19.7759,236,5,
4227.81,2.45148,9.7992,0.744,19.7759,236,5,
4227.81,2.45148,9.79767,0.744,19.7759,236,5,
4227.81,2.4469,9.79767,0.744,19.7759,236,5,
4227.82,2.44629,9.80072,0,19.7759,236,5,
4227.82,2.44598,9.80072,0,19.7759,236,5,
4227.82,2.44629,9.7992,0,19.7759,236,5,
4227.82,2.44171,9.7992,0,19.7759,236,5,
4227.82,2.44019,9.7992,0,19.7759,236,5,
4227.83,2.44019,9.7992,0,19.7759,236,5,
4227.83,2.44049,9.80225,0,19.7759,236,5,
4227.83,2.43774,9.79767,0,19.7759,236,5,
4227.83,2.43561,9.80072,0,19.7759,236,5,
4227.83,2.43561,9.79614,0,19.7759,236,5,
4227.84,2.43561,9.7992,0,19.7759,236,5,
4227.84,2.43561,9.79767,0,19.7759,236,5,
4227.84,2.43073,9.79767,0,19.7759,236,5,
4227.84,2.43164,9.79767,0,19.7759,236,5,
4227.84,2.43103,9.79614,0,19.7759,236,5,
4227.85,2.43134,9.7992,0,19.7759,236,5,
4227.85,2.42584,9.79767,0,19.7759,236,5,
4227.85,2.42615,9.7992,0,19.7759,236,5,
4227.85,2.42645,9.7992,0,19.7759,236,5,
4227.85,2.42615,9.7992,0,19.7759,236,5,
4227.86,2.42188,9.7992,0,19.7759,236,5,
4227.86,2.42035,9.80072,0,19.7759,236,5,
4227.86,2.42096,9.79767,0,19.7759,236,5,
4227.86,2.42126,9.79614,0,19.7759,236,5,
4227.86,2.41913,9.7992,0,19.7759,236,5,
4227.87,2.41638,9.80225,0,19.7759,236,5,
4227.87,2.41608,9.80072,0,19.7759,236,5,
4227.87,2.41608,9.79767,0,19.7759,236,5,
4227.87,2.41669,9.80225,0,19.7759,236,5,
4227.87,2.41241,9.79767,0,19.7759,236,5,
4227.88,2.41119,9.7992,0,19.7759,236,5,
4227.88,2.4115,9.80072,0,19.7759,236,5,
4227.88,2.4115,9.78851,0,19.7759,236,5,
4227.88,2.40875,9.78546,0,19.7759,236,5,
4227.88,2.40631,9.79004,0,19.7759,236,5,
4227.89,2.40601,9.78241,0,19.7759,236,5,
4227.89,2.40631,9.78699,0,19.7759,236,5,
4227.89,2.40417,9.78546,0,19.7759,236,5,
4227.89,2.40204,9.79004,0,19.7759,236,5,
4227.89,2.40143,9.78851,0,19.7759,236,5,
4227.9,2.40234,9.78699,0,19.7759,236,5,
4227.9,2.40112,9.78851,0,19.7759,236,5,
4227.9,2.39899,9.78394,0,19.7759,236,5,
4227.9,2.39716,9.78394,0,19.7759,236,5,
4227.9,2.39685,9.78241,0,19.7759,236,5,
4227.91,2.39624,9.78699,0,19.7759,236,5,
4227.91,2.39716,9.78394,0,19.7759,236,5,
4227.91,2.39258,9.78546,0,19.7759,236,5,
4227.91,2.39166,9.78699,0,19.7759,236,5,
4227.91,2.39136,9.78699,0,19.7759,236,5,
4227.92,2.39166,9.78546,0,19.7759,236,5,
4227.92,2.39166,9.78546,0,19.7759,236,5,
4227.92,2.388,9.78546,0,19.7759,236,5,
4227.92,2.38739,9.78394,0,19.7759,236,5,
4227.92,2.38708,9.79004,0,19.7759,236,5,
4227.93,2.38647,9.78851,0,19.7759,236,5,
4227.93,2.38647,9.78699,0,19.7759,236,5,
4227.93,2.38281,9.78851,0,19.7759,236,5,
4227.93,2.38129,9.78699,0,19.7759,236,5,
4227.93,2.3819,9.78699,0,19.7759,236,5,
4227.94,2.3819,9.78851,0,19.7759,236,5,
4227.94,2.38251,9.78699,0,19.7759,236,5,
4227.94,2.37915,9.78699,0,19.7759,236,5,
4227.94,2.37701,9.78699,0,19.7759,236,5,
4227.94,2.37701,9.78699,0,19.7759,236,5,
4227.95,2.37732,9.78241,0,19.7759,236,5,
4227.95,2.37701,9.78699,0,19.7759,236,5,
4227.95,2.37732,9.78851,0,19.7759,236,5,
4227.95,2.37244,9.78851,0,19.7759,236,5,
4227.95,2.37244,9.78546,0,19.7759,236,5,
4227.96,2.37213,9.78699,0,19.7759,236,5,
4227.96,2.37244,9.78851,0,19.7759,236,5,
4227.96,2.37305,9.78699,0,19.7759,236,5,
4227.96,2.36725,9.78394,0,19.7759,236,5,
4227.96,2.36725,9.79004,0,19.7759,236,5,
4227.97,2.36694,9.78699,0,19.7759,236,5,
4227.97,2.36725,9.78546,0,19.7759,236,5,
4227.97,2.36725,9.78546,0,19.7759,236,5,
4227.97,2.36237,9.78546,0,19.7759,236,5,
4227.97,2.36237,9.78699,0,19.7759,236,5,
4227.98,2.36298,9.78394,0,19.7759,236,5,
4227.98,2.36206,9.78546,0,19.7759,236,5,
4227.98,2.36267,9.78394,0,19.7759,236,5,
4227.98,2.3584,9.78394,0,19.7759,236,5,
4227.98,2.3584,9.78394,0,19.7759,236,5,
4227.99,2.35779,9.78546,0,19.7759,236,5,
4227.99,2.35748,9.78851,0,19.7759,236,5,
4227.99,2.35748,9.78546,0,19.7759,236,5,
4227.99,2.3526,9.78546,0,19.7759,236,5,
4227.99,2.3526,9.79004,0,19.7759,236,5,
4228,2.35291,9.78699,0,19.7759,236,5,
4228,2.3526,9.78699,0,19.7759,236,5,
4228,2.34863,9.78851,0,19.7759,236,5,
4228,2.34772,9.78851,0,19.7759,236,5,
4228,2.34711,9.79004,0,19.7759,236,5,
4228.01,2.34741,9.78699,0,19.7759,236,5,
4228.01,2.34314,9.78699,0,19.7759,236,5,
4228.01,2.34375,9.78546,0,19.7759,236,5,
4228.01,2.34344,9.78546,0,19.7759,236,5,
4228.01,2.34283,9.78546,0,19.7759,236,5,
4228.02,2.33887,9.78851,0,19.7759,236,5,
4228.02,2.33765,9.78699,0,19.7759,236,5,
4228.02,2.33795,9.78546,0,19.7759,236,5,
4228.02,2.33398,9.78241,0,19.7759,236,5,
4228.02,2.33337,9.78851,0,19.7759,236,5,
4228.03,2.33337,9.78394,0,19.7759,236,5,
4228.03,2.33307,9.78851,0,19.7759,236,5,
4228.03,2.3291,9.78851,0,19.7759,236,5,
4228.03,2.32849,9.78851,0,19.7759,236,5,
4228.03,2.3288,9.78699,0,19.7759,236,5,
4228.04,2.32361,9.78699,0,19.7759,236,5,
4228.04,2.32361,9.79004,0,19.7759,236,5,
4228.04,2.32391,9.78699,0,19.7759,236,5,
4228.04,2.32025,9.78699,0,19.7759,236,5,
4228.04,2.31842,9.78394,0,19.7759,236,5,
4228.05,2.31842,9.78394,0,19.7759,236,5,
4228.05,2.31873,9.78394,0,19.7759,236,5,
4228.05,2.31415,9.78699,0,19.7759,236,5,
4228.05,2.31415,9.78851,0,19.7759,236,5,
4228.05,2.31384,9.78851,0,19.7759,236,5,
4228.06,2.31079,9.78851,0,19.7759,236,5,
4228.06,2.30865,9.78851,0,19.7759,236,5,
4228.06,2.30865,9.78546,0,19.7759,236,5,
4228.06,2.30865,9.78546,0,19.7759,236,5,
4228.06,2.30377,9.78851,0,19.7759,236,5,
4228.07,2.30377,9.78699,0,19.7759,236,5,
4228.07,2.30377,9.78851,0,19.7759,236,5,
4228.07,2.30011,9.78699,0,19.7759,236,5,
4228.07,2.29828,9.78546,0,19.7759,236,5,
4228.07,2.29858,9.78699,0,19.7759,236,5,
4228.08,2.29889,9.78546,0,19.7759,236,5,
4228.08,2.29401,9.78394,0,19.7759,236,5,
4228.08,2.2934,9.78699,0,19.7759,236,5,
4228.08,2.29401,9.78546,0,19.7759,236,5,
4228.08,2.29065,9.78851,0,19.7759,236,5,
4228.09,2.28912,9.78699,0,19.7759,236,5,
4228.09,2.28882,9.79004,0,19.7759,236,5,
4228.09,2.28912,9.78546,0,19.7759,236,5,
4228.09,2.28394,9.78699,0,19.7759,236,5,
4228.09,2.28363,9.78546,0,19.7759,236,5,
4228.1,2.28363,9.79004,0,19.7759,236,5,
4228.1,2.28149,9.78546,0,19.7759,236,5,
4228.1,2.27905,9.78394,0,19.7759,236,5,
4228.1,2.27905,9.78699,0,19.7759,236,5,
4228.1,2.27936,9.78851,0,19.7759,236,5,
4228.11,2.27509,9.78699,0,19.7759,236,5,
4228.11,2.27417,9.78241,0,19.7759,236,5,
4228.11,2.27386,9.78546,0,19.7759,236,5,
4228.11,2.27112,9.78851,0,19.7759,236,5,
4228.11,2.26898,9.78851,0,19.7759,236,5,
4228.12,2.26929,9.78394,0,19.7759,236,5,
4228.12,2.26959,9.78851,0,19.7759,236,5,
4228.12,2.2644,9.78699,0,19.7759,236,5,
4228.12,2.2644,9.78699,0,19.7759,236,5,
4228.12,2.2641,9.78851,0,19.7759,236,5,
4228.13,2.2644,9.78851,0,19.7759,236,5,
4228.13,2.25952,9.78699,0,19.7759,236,5,
4228.13,2.25891,9.78699,0,19.7759,236,5,
4228.13,2.25952,9.78851,0,19.7759,236,5,
4228.13,2.25922,9.78851,0,19.7759,236,5,
4228.14,2.25494,9.78394,0,19.7759,236,5,
4228.14,2.25403,9.78546,0,19.7759,236,5,
4228.14,2.25464,9.78699,0,19.7759,236,5,
4228.14,2.25494,9.78699,0,19.7759,236,5,
4228.14,2.24884,9.78699,0,19.7759,236,5,
4228.15,2.24915,9.78546,0,19.7759,236,5,
4228.15,2.25006,9.78546,0,19.7759,236,5,
4228.15,2.24945,9.78546,0,19.7759,236,5,
4228.15,2.24396,9.78699,0,19.7759,236,5,
4228.15,2.24426,9.78394,0,19.7759,236,5,
4228.16,2.24487,9.78851,0,19.7759,236,5,
4228.16,2.24457,9.78546,0,19.7759,236,5,
4228.16,2.23969,9.78546,0,19.7759,236,5,
4228.16,2.23969,9.78699,0,19.7759,236,5,
4228.16,2.23938,9.78699,0,19.7759,236,5,
4228.17,2.23969,9.78699,0,19.7759,236,5,
4228.17,2.23633,9.78699,0,19.7759,236,5,
4228.17,2.2345,9.79004,0,19.7759,236,5,
4228.17,2.2345,9.78851,0,19.7759,236,5,
4228.17,2.23541,9.78546,0,19.7759,236,5,
4228.18,2.23541,9.78546,0,19.7759,236,5,
4228.18,2.23022,9.78241,2.61,19.7759,236,5,
4228.18,2.23022,9.78546,2.61,19.7759,236,5,
4228.18,2.22992,9.78546,2.61,19.7759,236,5,
4228.18,2.23022,9.78546,2.61,19.7759,236,5,
4228.19,2.23022,9.78699,2.61,19.7759,236,5,
4228.19,2.22595,9.78851,2.61,19.7759,236,5,
4228.19,2.22534,9.78699,2.61,19.7759,236,5,
4228.19,2.22504,9.78546,2.61,19.7759,236,5,
4228.19,2.22473,9.79157,2.61,19.7759,236,5,
4228.2,2.22595,9.79004,2.61,19.7759,236,5,
4228.2,2.22565,9.78699,2.61,19.7759,236,5,
4228.2,2.2226,9.78699,2.61,19.7759,236,5,
4228.2,2.22046,9.79004,2.61,19.7759,236,5,
4228.2,2.22046,9.78394,2.61,19.7759,236,5,
4228.21,2.21985,9.78699,2.61,19.7759,236,5,
4228.21,2.22076,9.78699,2.61,19.7759,236,5,
4228.21,2.22015,9.78546,2.61,19.7759,236,5,
4228.21,2.22046,9.78241,2.61,19.7759,236,5,
4228.21,2.22046,9.78546,2.61,19.7759,236,5,
4228.22,2.22076,9.78851,2.61,19.7759,236,5,
4228.22,2.21527,9.78546,2.61,19.7759,236,5,
4228.22,2.21497,9.78699,2.61,19.7759,236,5,
4228.22,2.21558,9.79004,2.61,19.7759,236,5,
4228.22,2.21497,9.78546,2.61,19.7759,236,5,
4228.23,2.21527,9.78699,2.61,19.7759,236,5,
4228.23,2.21527,9.78699,2.61,19.7759,236,5,
4228.23,2.21497,9.78851,2.61,19.7759,236,5,
4228.23,2.21466,9.78699,2.61,19.7759,236,5,
4228.23,2.21558,9.78851,2.61,19.7759,236,5,
4228.24,2.21497,9.78546,2.61,19.7759,236,5,
4228.24,2.21527,9.78699,2.61,19.7759,236,5,
4228.24,2.21527,9.78546,2.61,19.7759,236,5,
4228.24,2.21558,9.78851,2.61,19.7759,236,5,
4228.24,2.21558,9.78699,2.61,19.7759,236,5,
4228.25,2.21527,9.78699,2.61,19.7759,236,5,
4228.25,2.21436,9.78851,2.61,19.7759,236,5,
4228.25,2.21497,9.78699,2.61,19.7759,236,5,
4228.25,2.21527,9.78851,2.61,19.7759,236,5,
4228.25,2.21558,9.78394,2.61,19.7759,236,5,
4228.26,2.21558,9.78699,2.61,19.7759,236,5,
4228.26,2.21558,9.78546,2.61,19.7759,236,5,
4228.26,2.21466,9.78394,2.61,19.7759,236,5,
4228.26,2.21497,9.78546,2.61,19.7759,236,5,
4228.26,2.21527,9.78546,2.61,19.7759,236,5,
4228.27,2.21497,9.78546,2.61,19.7759,236,5,
4228.27,2.21497,9.78699,2.61,19.7759,236,5,
4228.27,2.21588,9.78394,2.61,19.7759,236,5,
4228.27,2.21527,9.78851,2.61,19.7759,236,5,
4228.27,2.21497,9.78699,2.61,19.7759,236,5,
4228.28,2.21527,9.78546,2.61,19.7759,236,5,
4228.28,2.21558,9.79004,2.61,19.7759,236,5,
4228.28,2.22015,9.78851,2.61,19.7759,236,5,
4228.28,2.22015,9.78851,2.61,19.7759,236,5,
4228.28,2.22046,9.78546,2.61,19.7759,236,5,
4228.29,2.22046,9.78851,2.61,19.7759,236,5,
4228.29,2.21954,9.78699,2.61,19.7759,236,5,
4228.29,2.22015,9.78394,2.61,19.7759,236,5,
4228.29,2.22015,9.78546,2.61,19.7759,236,5,
4228.29,2.22046,9.78851,2.61,19.7759,236,5,
4228.3,2.22595,9.78699,2.61,19.7759,236,5,
4228.3,2.22595,9.79004,2.61,19.7759,236,5,
4228.3,2.22473,9.78394,2.61,19.7759,236,5,
4228.3,2.22534,9.78851,2.61,19.7759,236,5,
4228.3,2.22504,9.78699,2.61,19.7759,236,5,
4228.31,2.22961,9.78546,2.61,19.7759,236,5,
4228.31,2.23022,9.78699,2.61,19.7759,236,5,
4228.31,2.23053,9.78699,2.61,19.7759,236,5,
4228.31,2.23053,9.78699,2.61,19.7759,236,5,
4228.31,2.23297,9.78699,2.61,19.7759,236,5,
4228.32,2.2348,9.78851,2.61,19.7759,236,5,
4228.32,2.23511,9.78851,2.61,19.7759,236,5,
4228.32,2.23511,9.78699,2.61,19.7759,236,5,
4228.32,2.23938,9.78546,2.61,19.7759,236,5,
4228.32,2.23969,9.78699,2.61,19.7759,236,5,
4228.33,2.23969,9.78394,2.61,19.7759,236,5,
4228.33,2.2406,9.78851,2.61,19.7759,236,5,
4228.33,2.24487,9.78699,2.61,19.7759,236,5,
4228.33,2.24518,9.78546,2.61,19.7759,236,5,
4228.33,2.24548,9.78546,2.61,19.7759,236,5,
4228.34,2.25006,9.78851,2.61,19.7759,236,5,
4228.34,2.24976,9.78851,2.61,19.7759,236,5,
4228.34,2.25006,9.78699,2.61,19.7759,236,5,
4228.34,2.25464,9.78851,2.61,19.7759,236,5,
4228.34,2.25433,9.78851,2.61,19.7759,236,5,
4228.35,2.25769,9.78851,2.61,19.7759,236,5,
4228.35,2.26013,9.78546,2.61,19.7759,236,5,
4228.35,2.25891,9.78851,2.61,19.7759,236,5,
4228.35,2.2641,9.78546,2.61,19.7759,236,5,
4228.35,2.2641,9.78851,2.61,19.7759,236,5,
4228.36,2.26898,9.78699,2.61,19.7759,236,5,
4228.36,2.26898,9.78851,2.61,19.7759,236,5,
4228.36,2.27234,9.78699,2.61,19.7759,236,5,
4228.36,2.27417,9.78851,2.61,19.7759,236,5,
4228.36,2.27478,9.78546,2.61,19.7759,236,5,
4228.37,2.27844,9.78546,2.61,19.7759,236,5,
4228.37,2.27875,9.78851,2.61,19.7759,236,5,
4228.37,2.28363,9.78546,2.61,19.7759,236,5,
4228.37,2.28394,9.78394,2.61,19.7759,236,5,
4228.37,2.28821,9.78851,2.61,19.7759,236,5,
4228.38,2.28943,9.79004,2.61,19.7759,236,5,
4228.38,2.29431,9.78546,2.61,19.7759,236,5,
4228.38,2.29431,9.78546,2.61,19.7759,236,5,
4228.38,2.29889,9.78851,2.61,19.7759,236,5,
4228.38,2.30164,9.78546,2.61,19.7759,236,5,
4228.39,2.30377,9.78699,2.61,19.7759,236,5,
4228.39,2.30865,9.78394,2.61,19.7759,236,5,
4228.39,2.30835,9.78394,2.61,19.7759,236,5,
4228.39,2.31354,9.78546,2.61,19.7759,236,5,
4228.39,2.31354,9.78699,2.61,19.7759,236,5,
4228.4,2.31842,9.78699,2.61,19.7759,236,5,
4228.4,2.3233,9.78699,2.61,19.7759,236,5,
4228.4,2.3233,9.78699,2.61,19.7759,236,5,
4228.4,2.32819,9.78699,2.61,19.7759,236,5,
4228.4,2.33124,9.78546,2.61,19.7759,236,5,
4228.41,2.33337,9.78699,2.61,19.7759,236,5,
4228.41,2.33734,9.78699,2.61,19.7759,236,5,
4228.41,2.33795,9.78699,2.61,19.7759,236,5,
4228.41,2.34283,9.78851,2.61,19.7759,236,5,
4228.41,2.3468,9.78699,2.61,19.7759,236,5,
4228.42,2.34833,9.78851,2.61,19.7759,236,5,
4228.42,2.35291,9.78546,2.61,19.7759,236,5,
4228.42,2.35718,9.78546,2.61,19.7759,236,5,
4228.42,2.35809,9.78546,2.61,19.7759,236,5,
4228.42,2.36206,9.78851,2.61,19.7759,236,5,
4228.43,2.36725,9.78851,2.61,19.7759,236,5,
4228.43,2.36969,9.78699,2.61,19.7759,236,5,
4228.43,2.37213,9.78851,2.61,19.7759,236,5,
4228.43,2.37671,9.78546,2.61,19.7759,236,5,
4228.43,2.38129,9.78546,2.61,19.7759,236,5,
4228.44,2.38159,9.78699,2.61,19.7759,236,5,
4228.44,2.38678,9.78394,2.61,19.7759,236,5,
4228.44,2.39197,9.78546,2.61,19.7759,236,5,
4228.44,2.39594,9.78699,2.61,19.7759,236,5,
4228.44,2.39655,9.78546,2.61,19.7759,236,5,
4228.45,2.40143,9.78699,2.61,19.7759,236,5,
4228.45,2.40631,9.78851,2.61,19.7759,236,5,
4228.45,2.41089,9.78851,2.61,19.7759,236,5,
4228.45,2.41516,9.78851,2.61,19.7759,236,5,
4228.45,2.41699,9.78699,2.61,19.7759,236,5,
4228.46,2.42096,9.78851,2.61,19.7759,236,5,
4228.46,2.42584,9.78394,2.61,19.7759,236,5,
4228.46,2.43042,9.78699,2.61,19.7759,236,5,
4228.46,2.43408,9.78699,2.61,19.7759,236,5,
4228.46,2.43591,9.79004,2.61,19.7759,236,5,
4228.47,2.4408,9.78546,2.61,19.7759,236,5,
4228.47,2.44629,9.79004,2.61,19.7759,236,5,
4228.47,2.45056,9.78699,2.61,19.7759,236,5,
4228.47,2.45422,9.78699,2.61,19.7759,236,5,
4228.47,2.45636,9.78546,2.61,19.7759,236,5,
4228.48,2.46063,9.78394,2.61,19.7759,236,5,
4228.48,2.46613,9.79004,2.61,19.7759,236,5,
4228.48,2.4707,9.78546,2.61,19.7759,236,5,
4228.48,2.47467,9.78546,2.61,19.7759,236,5,
4228.48,2.47864,9.79004,2.61,19.7759,236,5,
4228.49,2.48352,9.78851,2.61,19.7759,236,5,
4228.49,2.48657,9.78699,2.61,19.7759,236,5,
4228.49,2.49023,9.78241,2.61,19.7759,236,5,
4228.49,2.49542,9.78546,2.61,19.7759,236,5,
4228.49,2.50031,9.78394,2.61,19.7759,236,5,
4228.5,2.50427,9.78699,2.61,19.7759,236,5,
4228.5,2.50946,9.78699,2.61,19.7759,236,5,
4228.5,2.51312,9.78851,2.61,19.7759,236,5,
4228.5,2.5174,9.79004,2.61,19.7759,236,5,
4228.5,2.51984,9.78851,2.61,19.7759,236,5,
4228.51,2.52502,9.78394,2.61,19.7759,236,5,
4228.51,2.5296,9.78546,2.61,19.7759,236,5,
4228.51,2.53448,9.79004,2.61,19.7759,236,5,
4228.51,2.53998,9.78546,2.61,19.7759,236,5,
4228.51,2.54395,9.78546,2.61,19.7759,236,5,
4228.52,2.54913,9.78699,2.61,19.7759,236,5,
4228.52,2.5528,9.78699,2.61,19.7759,236,5,
4228.52,2.55829,9.79157,2.61,19.7759,236,5,
4228.52,2.56195,9.79004,2.61,19.7759,236,5,
4228.52,2.56683,9.78546,2.61,19.7759,236,5,
4228.53,2.57172,9.78546,2.61,19.7759,236,5,
4228.53,2.57385,9.79157,2.61,19.7759,236,5,
4228.53,2.57812,9.78546,2.61,19.7759,236,5,
4228.53,2.5827,9.78699,2.61,19.7759,236,5,
4228.53,2.58759,9.78699,2.61,19.7759,236,5,
4228.54,2.59277,9.78699,2.61,19.7759,236,5,
4228.54,2.59827,9.78699,2.61,19.7759,236,5,
4228.54,2.60162,9.78699,2.61,19.7759,236,5,
4228.54,2.6062,9.78699,2.61,19.7759,236,5,
4228.54,2.61169,9.78699,2.61,19.7759,236,5,
4228.55,2.61658,9.78699,2.61,19.7759,236,5,
4228.55,2.62146,9.78699,2.61,19.7759,236,5,
4228.55,2.62634,9.78851,2.61,19.7759,236,5,
4228.55,2.63123,9.78546,2.61,19.7759,236,5,
4228.55,2.63489,9.78851,2.61,19.7759,236,5,
4228.56,2.63977,9.78394,2.61,19.7759,236,5,
4228.56,2.64435,9.79004,2.61,19.7759,236,5,
4228.56,2.64893,9.78851,2.61,19.7759,236,5,
4228.56,2.65411,9.78546,2.61,19.7759,236,5,
4228.56,2.65656,9.78851,2.61,19.7759,236,5,
4228.57,2.66052,9.78851,2.61,19.7759,236,5,
4228.57,2.66693,9.78546,2.61,19.7759,236,5,
4228.57,2.67151,9.78851,2.61,19.7759,236,5,
4228.57,2.67639,9.78546,2.61,19.7759,236,5,
4228.57,2.68066,9.78699,2.61,19.7759,236,5,
4228.58,2.68616,9.78699,2.61,19.7759,236,5,
4228.58,2.69043,9.78699,2.61,19.7759,236,5,
4228.58,2.69531,9.78699,2.61,19.7759,236,5,
4228.58,2.69928,9.78699,2.61,19.7759,236,5,
4228.58,2.70538,9.78546,2.61,19.7759,236,5,
4228.59,2.70935,9.78699,2.61,19.7759,236,5,
4228.59,2.71484,9.78699,2.61,19.7759,236,5,
4228.59,2.71942,9.79004,2.61,19.7759,236,5,
4228.59,2.72522,9.78699,2.61,19.7759,236,5,
4228.59,2.7298,9.78851,2.61,19.7759,236,5,
4228.6,2.73468,9.78394,2.61,19.7759,236,5,
4228.6,2.73743,9.78699,2.61,19.7759,236,5,
4228.6,2.74261,9.78699,2.61,19.7759,236,5,
4228.6,2.7475,9.78546,2.61,19.7759,236,5,
4228.6,2.75238,9.78394,2.61,19.7759,236,5,
4228.61,2.75452,9.78851,2.61,19.7759,236,5,
4228.61,2.76001,9.79004,2.61,19.7759,236,5,
4228.61,2.76459,9.78851,2.61,19.7759,236,5,
4228.61,2.76917,9.78699,2.61,19.7759,236,5,
4228.61,2.77344,9.78699,2.61,19.7759,236,5,
4228.62,2.77863,9.78851,2.61,19.7759,236,5,
4228.62,2.78381,9.78241,2.61,19.7759,236,5,
4228.62,2.789,9.78699,2.61,19.7759,236,5,
4228.62,2.79388,9.78394,2.61,19.7759,236,5,
4228.62,2.79816,9.78699,2.61,19.7759,236,5,
4228.63,2.80334,9.78699,2.61,19.7759,236,5,
4228.63,2.80762,9.78699,2.61,19.7759,236,5,
4228.63,2.81281,9.78851,2.61,19.7759,236,5,
4228.63,2.81555,9.78699,2.61,19.7759,236,5,
4228.63,2.82104,9.78394,2.61,19.7759,236,5,
4228.64,2.82593,9.78699,2.61,19.7759,236,5,
4228.64,2.83081,9.78546,2.61,19.7759,236,5,
4228.64,2.83325,9.78699,2.61,19.7759,236,5,
4228.64,2.83783,9.78699,2.61,19.7759,236,5,
4228.64,2.84271,9.78699,2.61,19.7759,236,5,
4228.65,2.84729,9.78851,2.61,19.7759,236,5,
4228.65,2.85217,9.78546,2.61,19.7759,236,5,
4228.65,2.85645,9.78546,2.61,19.7759,236,5,
4228.65,2.86285,9.78546,2.61,19.7759,236,5,
4228.65,2.86621,9.78546,2.61,19.7759,236,5,
4228.66,2.8714,9.78546,2.61,19.7759,236,5,
4228.66,2.87628,9.78394,2.61,19.7759,236,5,
4228.66,2.88025,9.78851,2.61,19.7759,236,5,
4228.66,2.88452,9.78699,2.61,19.7759,236,5,
4228.66,2.88727,9.78546,2.61,19.7759,236,5,
4228.67,2.89185,9.79004,2.61,19.7759,236,5,
4228.67,2.89612,9.78699,2.61,19.7759,236,5,
4228.67,2.901,9.78546,2.61,19.7759,236,5,
4228.67,2.90588,9.78699,2.61,19.7759,236,5,
4228.67,2.91016,9.78546,2.61,19.7759,236,5,
4228.68,2.91626,9.78699,2.61,19.7759,236,5,
4228.68,2.91962,9.78699,2.61,19.7759,236,5,
4228.68,2.92419,9.78546,2.61,19.7759,236,5,
4228.68,2.92633,9.78699,2.61,19.7759,236,5,
4228.68,2.93091,9.78546,2.61,19.7759,236,5,
4228.69,2.9364,9.78394,2.61,19.7759,236,5,
4228.69,2.94037,9.78241,2.61,19.7759,236,5,
4228.69,2.94586,9.78394,2.61,19.7759,236,5,
4228.69,2.95013,9.78546,2.61,19.7759,236,5,
4228.69,2.95288,9.78851,2.61,19.7759,236,5,
4228.7,2.95837,9.79004,2.61,19.7759,236,5,
4228.7,2.96112,9.78851,2.61,19.7759,236,5,
4228.7,2.9657,9.78241,2.61,19.7759,236,5,
4228.7,2.97028,9.78546,2.61,19.7759,236,5,
4228.7,2.97485,9.78546,2.61,19.7759,236,5,
4228.71,2.97943,9.78546,2.61,19.7759,236,5,
4228.71,2.98309,9.78699,2.61,19.7759,236,5,
4228.71,2.98553,9.78394,2.61,19.7759,236,5,
4228.71,2.9895,9.78851,2.61,19.7759,236,5,
4228.71,2.99469,9.78699,2.61,19.7759,236,5,
4228.72,2.99957,9.78394,2.61,19.7759,236,5,
4228.72,3.00415,9.78699,2.61,19.7759,236,5,
4228.72,3.00751,9.78546,2.61,19.7759,236,5,
4228.72,3.00934,9.78699,2.61,19.7759,236,5,
4228.72,3.01392,9.78851,2.61,19.7759,236,5,
4228.73,3.01941,9.78699,2.61,19.7759,236,5,
4228.73,3.02338,9.78699,2.61,19.7759,236,5,
4228.73,3.02643,9.78699,2.61,19.7759,236,5,
4228.73,3.02917,9.78851,2.61,19.7759,236,5,
4228.73,3.03375,9.78394,2.61,19.7759,236,5,
4228.74,3.03894,9.79004,2.61,19.7759,236,5,
4228.74,3.04321,9.78699,2.61,19.7759,236,5,
4228.74,3.04688,9.78699,2.61,19.7759,236,5,
4228.74,3.0481,9.78546,2.61,19.7759,236,5,
4228.74,3.05359,9.78851,2.61,19.7759,236,5,
4228.75,3.05786,9.78546,2.61,19.7759,236,5,
4228.75,3.06091,9.78394,2.61,19.7759,236,5,
4228.75,3.06366,9.78851,2.61,19.7759,236,5,
4228.75,3.06793,9.78546,2.61,19.7759,236,5,
4228.75,3.07312,9.78546,2.61,19.7759,236,5,
4228.76,3.07617,9.78699,2.61,19.7759,236,5,
4228.76,3.0777,9.78546,2.61,19.7759,236,5,
4228.76,3.08289,9.78394,2.61,19.7759,236,5,
4228.76,3.08746,9.78699,2.61,19.7759,236,5,
4228.76,3.09082,9.78546,2.61,19.7759,236,5,
4228.77,3.09265,9.78699,2.61,19.7759,236,5,
4228.77,3.09723,9.78851,2.61,19.7759,236,5,
4228.77,3.10181,9.78699,2.61,19.7759,236,5,
4228.77,3.10547,9.78851,2.61,19.7759,236,5,
4228.77,3.1073,9.78851,2.61,19.7759,236,5,
4228.78,3.11188,9.78546,2.61,19.7759,236,5,
4228.78,3.11615,9.78851,2.61,19.7759,236,5,
4228.78,3.11707,9.78394,2.61,19.7759,236,5,
4228.78,3.12134,9.78851,2.61,19.7759,236,5,
4228.78,3.12653,9.78546,2.61,19.7759,236,5,
4228.79,3.12958,9.78699,2.61,19.7759,236,5,
4228.79,3.13141,9.78699,2.61,19.7759,236,5,
4228.79,3.1366,9.78546,2.61,19.7759,236,5,
4228.79,3.14148,9.78699,2.61,19.7759,236,5,
4228.79,3.14117,9.78546,2.61,19.7759,236,5,
4228.8,3.14636,9.78699,2.61,19.7759,236,5,
4228.8,3.15063,9.78699,2.61,19.7759,236,5,
4228.8,3.15521,9.78699,2.61,19.7759,236,5,
4228.8,3.15552,9.79004,2.61,19.7759,236,5,
4228.8,3.16101,9.78851,2.61,19.7759,236,5,
4228.81,3.16345,9.78699,2.61,19.7759,236,5,
4228.81,3.16589,9.78851,2.61,19.7759,236,5,
4228.81,3.17047,9.78699,2.61,19.7759,236,5,
4228.81,3.17352,9.77478,2.61,19.7759,236,5,
4228.81,3.17566,9.77478,2.61,19.7759,236,5,
4228.82,3.17993,9.77478,2.61,19.7759,236,5,
4228.82,3.18359,9.77478,2.61,19.7759,236,5,
4228.82,3.18512,9.77478,2.61,19.7759,236,5,
4228.82,3.19031,9.77478,2.61,19.7759,236,5,
4228.82,3.19427,9.77478,2.61,19.7759,236,5,
4228.83,3.19519,9.77173,2.61,19.7759,236,5,
4228.83,3.19946,9.77326,2.61,19.7759,236,5,
4228.83,3.20038,9.77326,2.61,19.7759,236,5,
4228.83,3.20465,9.77631,2.61,19.7759,236,5,
4228.83,3.20557,9.77631,2.61,19.7759,236,5,
4228.84,3.20953,9.77326,2.61,19.7759,236,5,
4228.84,3.21442,9.77478,2.61,19.7759,236,5,
4228.84,3.21411,9.77478,2.61,19.7759,236,5,
4228.84,3.2193,9.77478,2.61,19.7759,236,5,
4228.84,3.22388,9.77783,2.61,19.7759,236,5,
4228.85,3.22449,9.77478,2.61,19.7759,236,5,
4228.85,3.22968,9.77478,2.61,19.7759,236,5,
4228.85,3.23242,9.77631,2.61,19.7759,236,5,
4228.85,3.23456,9.77326,2.61,19.7759,236,5,
4228.85,3.23975,9.77478,2.61,19.7759,236,5,
4228.86,3.24188,9.77173,2.61,19.7759,236,5,
4228.86,3.24432,9.77478,2.61,19.7759,236,5,
4228.86,3.2489,9.77478,2.61,19.7759,236,5,
4228.86,3.25226,9.77326,2.61,19.7759,236,5,
4228.86,3.25409,9.77326,2.61,19.7759,236,5,
4228.87,3.25836,9.77478,2.61,19.7759,236,5,
4228.87,3.25897,9.77326,2.61,19.7759,236,5,
4228.87,3.26447,9.77173,2.61,19.7759,236,5,
4228.87,3.26904,9.77478,2.61,19.7759,236,5,
4228.87,3.26813,9.77478,2.61,19.7759,236,5,
4228.88,3.27332,9.77478,2.61,19.7759,236,5,
4228.88,3.27759,9.77326,2.61,19.7759,236,5,
4228.88,3.2785,9.77173,2.61,19.7759,236,5,
4228.88,3.284,9.77631,2.61,19.7759,236,5,
4228.88,3.28735,9.77326,2.61,19.7759,236,5,
4228.89,3.28796,9.77326,2.61,19.7759,236,5,
4228.89,3.29285,9.77326,2.61,19.7759,236,5,
4228.89,3.29712,9.77326,2.61,19.7759,236,5,
4228.89,3.29895,9.77326,2.61,19.7759,236,5,
4228.89,3.30261,9.77631,2.61,19.7759,236,5,
4228.9,3.30719,9.77326,2.61,19.7759,236,5,
4228.9,3.30811,9.77478,2.61,19.7759,236,5,
4228.9,3.31299,9.77631,2.61,19.7759,236,5,
4228.9,3.31787,9.77478,2.61,19.7759,236,5,
4228.9,3.31787,9.77478,2.61,19.7759,236,5,
4228.91,3.32214,9.77326,2.61,19.7759,236,5,
4228.91,3.32733,9.77173,2.61,19.7759,236,5,
4228.91,3.32764,9.77326,2.61,19.7759,236,5,
4228.91,3.33191,9.77631,2.61,19.7759,236,5,
4228.91,3.33679,9.77478,2.61,19.7759,236,5,
4228.92,3.3374,9.77478,2.61,19.7759,236,5,
4228.92,3.34198,9.77326,2.61,19.7759,236,5,
4228.92,3.34656,9.77478,2.61,19.7759,236,5,
4228.92,3.34991,9.77631,2.61,19.7759,236,5,
4228.92,3.35236,9.77631,2.61,19.7759,236,5,
4228.93,3.35724,9.77326,2.61,19.7759,236,5,
4228.93,3.35968,9.77631,2.61,19.7759,236,5,
4228.93,3.36182,9.77326,2.61,19.7759,236,5,
4228.93,3.36639,9.77478,2.61,19.7759,236,5,
4228.93,3.36975,9.77478,2.61,19.7759,236,5,
4228.94,3.37219,9.77478,2.61,19.7759,236,5,
4228.94,3.37677,9.75647,2.61,19.7759,236,5,
4228.94,3.37921,9.76257,2.61,19.7759,236,5,
4228.94,3.38165,9.7641,2.61,19.7759,236,5,
4228.94,3.38593,9.7641,2.61,19.7759,236,5,
4228.95,3.39081,9.76105,2.61,19.7759,236,5,
4228.95,3.39172,9.758,2.61,19.7759,236,5,
4228.95,3.396,9.7641,2.61,19.7759,236,5,
4228.95,3.40088,9.75952,2.61,19.7759,236,5,
4228.95,3.40118,9.76257,2.61,19.7759,236,5,
4228.96,3.40576,9.7641,2.61,19.7759,236,5,
4228.96,3.41003,9.76105,2.61,19.7759,236,5,
4228.96,3.41095,9.7641,2.61,19.7759,236,5,
4228.96,3.41644,9.7641,2.61,19.7759,236,5,
4228.96,3.4201,9.76257,2.61,19.7759,236,5,
4228.97,3.42072,9.75952,2.61,19.7759,236,5,
4228.97,3.42468,9.76257,2.61,19.7759,236,5,
4228.97,3.43109,9.75952,2.61,19.7759,236,5,
4228.97,3.43414,9.7641,2.61,19.7759,236,5,
4228.97,3.43506,9.76105,2.61,19.7759,236,5,
4228.98,3.44025,9.76257,2.61,19.7759,236,5,
4228.98,3.44391,9.76105,2.61,19.7759,236,5,
4228.98,3.44574,9.76105,2.61,19.7759,236,5,
4228.98,3.45032,9.7641,2.61,19.7759,236,5,
4228.98,3.45276,9.76257,2.61,19.7759,236,5,
4228.99,3.4552,9.76105,2.61,19.7759,236,5,
4228.99,3.45978,9.76257,2.61,19.7759,236,5,
4228.99,3.46436,9.76105,2.61,19.7759,236,5,
4228.99,3.46466,9.76105,2.61,19.7759,236,5,
4228.99,3.47046,9.7641,2.61,19.7759,236,5,
4229,3.47443,9.76257,2.61,19.7759,236,5,
4229,3.47473,9.76257,2.61,19.7759,236,5,
4229,3.47992,9.76257,2.61,19.7759,236,5,
4229,3.4845,9.76257,2.61,19.7759,236,5,
4229,3.48724,9.76105,2.61,19.7759,236,5,
4229.01,3.48938,9.76105,2.61,19.7759,236,5,
4229.01,3.49396,9.75952,2.61,19.7759,236,5,
4229.01,3.49731,9.75952,2.61,19.7759,236,5,
4229.01,3.49915,9.7641,2.61,19.7759,236,5,
4229.01,3.50433,9.7641,2.61,19.7759,236,5,
4229.02,3.5083,9.76563,2.61,19.7759,236,5,
4229.02,3.50891,9.75189,2.61,19.7759,236,5,
4229.02,3.51349,9.75037,2.61,19.7759,236,5,
4229.02,3.51807,9.75189,2.61,19.7759,236,5,
4229.02,3.51868,9.75037,2.61,19.7759,236,5,
4229.03,3.52356,9.75189,2.61,19.7759,236,5,
4229.03,3.52783,9.75189,2.61,19.7759,236,5,
4229.03,3.52875,9.74884,2.61,19.7759,236,5,
4229.03,3.53333,9.75037,2.61,19.7759,236,5,
4229.03,3.5379,9.75189,2.61,19.7759,236,5,
4229.04,3.54034,9.74884,2.61,19.7759,236,5,
4229.04,3.54309,9.74884,2.61,19.7759,236,5,
4229.04,3.54767,9.74884,2.61,19.7759,236,5,
4229.04,3.55072,9.75037,2.61,19.7759,236,5,
4229.04,3.55286,9.74884,2.61,19.7759,236,5,
4229.05,3.55743,9.75037,2.61,19.7759,236,5,
4229.05,3.56049,9.75037,2.61,19.7759,236,5,
4229.05,3.56293,9.74732,2.61,19.7759,236,5,
4229.05,3.5675,9.74884,2.61,19.7759,236,5,
4229.05,3.57056,9.74884,2.61,19.7759,236,5,
4229.06,3.57239,9.75189,2.61,19.7759,236,5,
4229.06,3.57727,9.74884,2.61,19.7759,236,5,
4229.06,3.58032,9.75037,2.61,19.7759,236,5,
4229.06,3.58276,9.75189,2.61,19.7759,236,5,
4229.06,3.58673,9.74884,2.61,19.7759,236,5,
4229.07,3.59009,9.74732,2.61,19.7759,236,5,
4229.07,3.59253,9.75037,2.61,19.7759,236,5,
4229.07,3.59741,9.73816,2.61,19.7759,236,5,
4229.07,3.60138,9.73816,2.61,19.7759,236,5,
4229.07,3.60199,9.73816,2.61,19.7759,236,5,
4229.08,3.60596,9.73663,2.61,19.7759,236,5,
4229.08,3.61115,9.73816,2.61,19.7759,236,5,
4229.08,3.61206,9.73816,2.61,19.7759,236,5,
4229.08,3.61603,9.73969,2.61,19.7759,236,5,
4229.08,3.62061,9.73816,2.61,19.7759,236,5,
4229.09,3.62152,9.73816,2.61,19.7759,236,5,
4229.09,3.62671,9.73816,2.61,19.7759,236,5,
4229.09,3.63129,9.73663,2.61,19.7759,236,5,
4229.09,3.63159,9.73511,2.61,19.7759,236,5,
4229.09,3.63586,9.73816,2.61,19.7759,236,5,
4229.1,3.64075,9.73663,2.61,19.7759,236,5,
4229.1,3.64197,9.73816,2.61,19.7759,236,5,
4229.1,3.64624,9.73663,2.61,19.7759,236,5,
4229.1,3.6499,9.73816,2.61,19.7759,236,5,
4229.1,3.65082,9.74121,2.61,19.7759,236,5,
4229.11,3.65509,9.73969,2.61,19.7759,236,5,
4229.11,3.65997,9.73816,2.61,19.7759,236,5,
4229.11,3.66089,9.73816,2.61,19.7759,236,5,
4229.11,3.66516,9.73511,2.61,19.7759,236,5,
4229.11,3.66943,9.73969,2.61,19.7759,236,5,
4229.12,3.67126,9.73663,2.61,19.7759,236,5,
4229.12,3.67523,9.72443,2.61,19.7759,236,5,
4229.12,3.6792,9.72443,2.61,19.7759,236,5,
4229.12,3.68103,9.72595,2.61,19.7759,236,5,
4229.12,3.6853,9.72443,2.61,19.7759,236,5,
4229.13,3.68988,9.72443,2.61,19.7759,236,5,
4229.13,3.68988,9.72595,2.61,19.7759,236,5,
4229.13,3.69507,9.72138,2.61,19.7759,236,5,
4229.13,3.69843,9.72595,2.61,19.7759,236,5,
4229.13,3.69965,9.72595,2.61,19.7759,236,5,
4229.14,3.70483,9.72748,2.61,19.7759,236,5,
4229.14,3.70819,9.72595,2.61,19.7759,236,5,
4229.14,3.71033,9.72443,2.61,19.7759,236,5,
4229.14,3.7146,9.72443,2.61,19.7759,236,5,
4229.14,3.7149,9.72443,2.61,19.7759,236,5,
4229.15,3.71918,9.72595,2.61,19.7759,236,5,
4229.15,3.72375,9.7229,2.61,19.7759,236,5,
4229.15,3.72437,9.72748,2.61,19.7759,236,5,
4229.15,3.72894,9.72595,2.61,19.7759,236,5,
4229.15,3.73199,9.7229,2.61,19.7759,236,5,
4229.16,3.73413,9.72748,2.61,19.7759,236,5,
4229.16,3.73962,9.7229,2.61,19.7759,236,5,
4229.16,3.74146,9.72443,2.61,19.7759,236,5,
4229.16,3.7442,9.72443,2.61,19.7759,236,5,
4229.16,3.74847,9.72595,2.61,19.7759,236,5,
4229.17,3.74939,9.72443,2.61,19.7759,236,5,
4229.17,3.75397,9.72443,2.61,19.7759,236,5,
4229.17,3.75732,9.7168,2.61,19.7759,236,5,
4229.17,3.75854,9.71375,2.61,19.7759,236,5,
4229.17,3.76343,9.71527,2.61,19.7759,236,5,
4229.18,3.76373,9.71222,2.61,19.7759,236,5,
4229.18,3.76892,9.71069,2.61,19.7759,236,5,
4229.18,3.77197,9.71375,2.61,19.7759,236,5,
4229.18,3.7738,9.71527,2.61,19.7759,236,5,
4229.18,3.77838,9.71375,2.61,19.7759,236,5,
4229.19,3.77991,9.71527,2.61,19.7759,236,5,
4229.19,3.78357,9.71375,2.61,19.7759,236,5,
4229.19,3.78723,9.71222,2.61,19.7759,236,5,
4229.19,3.78906,9.71527,2.61,19.7759,236,5,
4229.19,3.79303,9.71527,2.61,19.7759,236,5,
4229.2,3.79395,9.71069,2.61,19.7759,236,5,
4229.2,3.79883,9.71222,2.61,19.7759,236,5,
4229.2,3.79822,9.71069,2.61,19.7759,236,5,
4229.2,3.8031,9.71375,2.61,19.7759,236,5,
4229.2,3.80615,9.71222,2.61,19.7759,236,5,
4229.21,3.80768,9.71222,2.61,19.7759,236,5,
4229.21,3.81165,9.71375,2.61,19.7759,236,5,
4229.21,3.81256,9.71222,2.61,19.7759,236,5,
4229.21,3.81683,9.71527,2.61,19.7759,236,5,
4229.21,3.81714,9.71375,2.61,19.7759,236,5,
4229.22,3.82202,9.71375,2.61,19.7759,236,5,
4229.22,3.82263,9.71069,2.61,19.7759,236,5,
4229.22,3.82721,9.71375,2.61,19.7759,236,5,
4229.22,3.82996,9.71222,2.61,19.7759,236,5,
4229.22,3.83118,9.70917,2.61,19.7759,236,5,
4229.23,3.83484,9.71375,2.61,19.7759,236,5,
4229.23,3.83636,9.69696,2.61,19.7759,236,5,
4229.23,3.84155,9.70154,2.61,19.7759,236,5,
4229.23,3.84125,9.70001,2.61,19.7759,236,5,
4229.23,3.84583,9.70001,2.61,19.7759,236,5,
4229.24,3.84613,9.70154,2.61,19.7759,236,5,
4229.24,3.85132,9.70306,2.61,19.7759,236,5,
4229.24,3.85132,9.70154,2.61,19.7759,236,5,
4229.24,3.85895,9.69696,2.61,19.7759,236,5,
4229.24,3.86169,9.69849,2.61,19.7759,236,5,
4229.25,3.86383,9.70306,2.61,19.7759,236,5,
4229.25,3.86658,9.69849,2.61,19.7759,236,5,
4229.25,3.87054,9.70001,2.61,19.7759,236,5,
4229.25,3.87115,9.69849,2.61,19.7759,236,5,
4229.25,3.87543,9.70154,2.61,19.7759,236,5,
4229.26,3.87604,9.70001,2.61,19.7759,236,5,
4229.26,3.88062,9.70001,2.61,19.7759,236,5,
4229.26,3.88123,9.70001,2.61,19.7759,236,5,
4229.26,3.8855,9.70154,2.61,19.7759,236,5,
4229.26,3.8858,9.70306,2.61,19.7759,236,5,
4229.27,3.88855,9.69849,2.61,19.7759,236,5,
4229.27,3.8913,9.70306,2.61,19.7759,236,5,
4229.27,3.89282,9.70001,2.61,19.7759,236,5,
4229.27,3.89526,9.70001,2.61,19.7759,236,5,
4229.27,3.89923,9.70154,2.61,19.7759,236,5,
4229.28,3.90045,9.69696,2.61,19.7759,236,5,
4229.28,3.90106,9.70001,2.61,19.7759,236,5,
4229.28,3.90564,9.70001,2.61,19.7759,236,5,
4229.28,3.90533,9.70306,2.61,19.7759,236,5,
4229.28,3.91052,9.68628,2.61,19.7759,236,5,
4229.29,3.91083,9.68933,2.61,19.7759,236,5,
4229.29,3.91541,9.68475,2.61,19.7759,236,5,
4229.29,3.91571,9.68781,2.61,19.7759,236,5,
4229.29,3.92029,9.69086,2.61,19.7759,236,5,
4229.29,3.92059,9.68781,2.61,19.7759,236,5,
4229.3,3.92426,9.68933,2.61,19.7759,236,5,
4229.3,3.92578,9.68781,2.61,19.7759,236,5,
4229.3,3.92944,9.68628,2.61,19.7759,236,5,
4229.3,3.92975,9.68781,2.61,19.7759,236,5,
4229.3,3.9328,9.68933,2.61,19.7759,236,5,
4229.31,3.93555,9.68933,2.61,19.7759,236,5,
4229.31,3.93463,9.68781,2.61,19.7759,236,5,
4229.31,3.93951,9.68933,2.61,19.7759,236,5,
4229.31,3.93951,9.68933,2.61,19.7759,236,5,
4229.31,3.94531,9.68781,2.61,19.7759,236,5,
4229.32,3.9447,9.68933,2.61,19.7759,236,5,
4229.32,3.94958,9.68781,2.61,19.7759,236,5,
4229.32,3.9502,9.68781,2.61,19.7759,236,5,
4229.32,3.95233,9.69086,2.61,19.7759,236,5,
4229.32,3.95447,9.68933,2.61,19.7759,236,5,
4229.33,3.95477,9.68933,2.61,19.7759,236,5,
4229.33,3.95935,9.68933,2.61,19.7759,236,5,
4229.33,3.95935,9.68933,2.61,19.7759,236,5,
4229.33,3.96484,9.69086,2.61,19.7759,236,5,
4229.33,3.96423,9.69086,2.61,19.7759,236,5,
4229.34,3.96851,9.68781,2.61,19.7759,236,5,
4229.34,3.96942,9.68781,2.61,19.7759,236,5,
4229.34,3.96912,9.69238,2.61,19.7759,236,5,
4229.34,3.974,9.67713,2.61,19.7759,236,5,
4229.34,3.974,9.67713,2.61,19.7759,236,5,
4229.35,3.97919,9.6756,2.61,19.7759,236,5,
4229.35,3.97888,9.6756,2.61,19.7759,236,5,
4229.35,3.98224,9.6756,2.61,19.7759,236,5,
4229.35,3.98407,9.67713,2.61,19.7759,236,5,
4229.35,3.98407,9.67713,2.61,19.7759,236,5,
4229.36,3.98804,9.67865,2.61,19.7759,236,5,
4229.36,3.98926,9.67865,2.61,19.7759,236,5,
4229.36,3.99323,9.67713,2.61,19.7759,236,5,
4229.36,3.99445,9.67255,2.61,19.7759,236,5,
4229.36,3.99414,9.67713,2.61,19.7759,236,5,
4229.37,3.99902,9.6756,2.61,19.7759,236,5,
4229.37,3.99841,9.67713,2.61,19.7759,236,5,
4229.37,4.00391,9.6756,2.61,19.7759,236,5,
4229.37,4.0036,9.67407,2.61,19.7759,236,5,
4229.37,4.00696,9.67713,2.61,19.7759,236,5,
4229.38,4.00848,9.67713,2.61,19.7759,236,5,
4229.38,4.00848,9.67407,2.61,19.7759,236,5,
4229.38,4.01398,9.67407,2.61,19.7759,236,5,
4229.38,4.01367,9.6756,2.61,19.7759,236,5,
4229.38,4.01611,9.67865,2.61,19.7759,236,5,
4229.39,4.01825,9.6756,2.61,19.7759,236,5,
4229.39,4.01886,9.6756,2.61,19.7759,236,5,
4229.39,4.02252,9.6756,2.61,19.7759,236,5,
4229.39,4.02344,9.67865,2.61,19.7759,236,5,
4229.39,4.02374,9.6756,2.61,19.8151,236,5,
4229.4,4.02863,9.6756,2.61,19.8151,236,5,
4229.4,4.02832,9.66644,2.61,19.8151,236,5,
4229.4,4.03046,9.66187,2.61,19.8151,236,5,
4229.4,4.0332,9.66644,2.61,19.8151,236,5,
4229.4,4.0332,9.66797,2.61,19.8151,236,5,
4229.41,4.03839,9.66644,2.61,19.8151,236,5,
4229.41,4.03748,9.6695,2.61,19.8151,236,5,
4229.41,4.0387,9.66644,2.61,19.8151,236,5,
4229.41,4.04297,9.66187,2.61,19.8151,236,5,
4229.41,4.04358,9.66644,2.61,19.8151,236,5,
4229.42,4.04602,9.66644,2.61,19.8151,236,5,
4229.42,4.04907,9.66339,2.61,19.8151,236,5,
4229.42,4.04816,9.66644,2.61,19.8151,236,5,
4229.42,4.05212,9.66644,2.61,19.8151,236,5,
4229.42,4.05273,9.66644,2.61,19.8151,236,5,
4229.43,4.05365,9.66797,2.61,19.8151,236,5,
4229.43,4.05762,9.66644,2.61,19.8151,236,5,
4229.43,4.05792,9.66339,2.61,19.8151,236,5,
4229.43,4.05823,9.66339,2.61,19.8151,236,5,
4229.43,4.06281,9.66492,2.61,19.8151,236,5,
4229.44,4.06281,9.66492,2.61,19.8151,236,5,
4229.44,4.06281,9.66492,2.61,19.8151,236,5,
4229.44,4.06677,9.66644,2.61,19.8151,236,5,
4229.44,4.06647,9.66492,2.61,19.8151,236,5,
4229.44,4.06769,9.66492,2.61,19.8151,236,5,
4229.45,4.06738,9.66644,2.61,19.8151,236,5,
4229.45,4.07257,9.66339,2.61,19.8151,236,5,
4229.45,4.07196,9.66644,2.61,19.8151,236,5,
4229.45,4.07745,9.65576,2.61,19.8151,236,5,
4229.45,4.07745,9.64966,2.61,19.8151,236,5,
4229.46,4.07745,9.65271,2.61,19.8151,236,5,
4229.46,4.08173,9.64813,2.61,19.8151,236,5,
4229.46,4.08234,9.65424,2.61,19.8151,236,5,
4229.46,4.08142,9.64966,2.61,19.8151,236,5,
4229.46,4.0863,9.64966,2.61,19.8151,236,5,
4229.47,4.08722,9.65119,2.61,19.8151,236,5,
4229.47,4.08691,9.65119,2.61,19.8151,236,5,
4229.47,4.09119,9.65119,2.61,19.8151,236,5,
4229.47,4.0918,9.65119,2.61,19.8151,236,5,
4229.47,4.0918,9.65119,2.61,19.8151,236,5,
4229.48,4.09393,9.65271,2.61,19.8151,236,5,
4229.48,4.09698,9.64813,2.61,19.8151,236,5,
4229.48,4.09698,9.65271,2.61,19.8151,236,5,
4229.48,4.09729,9.65271,2.61,19.8151,236,5,
4229.48,4.10187,9.65271,2.61,19.8151,236,5,
4229.49,4.10187,9.65424,2.61,19.8151,236,5,
4229.49,4.10156,9.65119,2.61,19.8151,236,5,
4229.49,4.10614,9.65424,2.61,19.8151,236,5,
4229.49,4.10614,9.65271,2.61,19.8151,236,5,
4229.49,4.10675,9.65424,2.61,19.8151,236,5,
4229.5,4.11133,9.64813,2.61,19.8151,236,5,
4229.5,4.11194,9.65424,2.61,19.8151,236,5,
4229.5,4.11194,9.65119,2.61,19.8151,236,5,
4229.5,4.11194,9.64356,2.61,19.8151,236,5,
4229.5,4.11652,9.6405,2.61,19.8151,236,5,
4229.51,4.11621,9.6405,2.61,19.8151,236,5,
4229.51,4.11682,9.6405,2.61,19.8151,236,5,
4229.51,4.12048,9.64203,2.61,19.8151,236,5,
4229.51,4.1214,9.63898,2.61,19.8151,236,5,
4229.51,4.1217,9.63898,2.61,19.8151,236,5,
4229.52,4.12109,9.63898,2.61,19.8151,236,5,
4229.52,4.12598,9.6405,2.61,19.8151,236,5,
4229.52,4.12598,9.63898,2.61,19.8151,236,5,
4229.52,4.12598,9.63898,2.61,19.8151,236,5,
4229.52,4.12903,9.6405,2.61,19.8151,236,5,
4229.53,4.13116,9.64203,2.61,19.8151,236,5,
4229.53,4.13025,9.6405,2.61,19.8151,236,5,
4229.53,4.13147,9.63745,2.61,19.8151,236,5,
4229.53,4.13513,9.6405,2.61,19.8151,236,5,
4229.53,4.13513,9.63898,2.61,19.8151,236,5,
4229.54,4.13605,9.64203,2.61,19.8151,236,5,
4229.54,4.13635,9.63898,2.61,19.8151,236,5,
4229.54,4.14062,9.6405,2.61,19.8151,236,5,
4229.54,4.14062,9.63898,2.61,19.8151,236,5,
4229.54,4.14185,9.64203,2.61,19.8151,236,5,
4229.55,4.14032,9.64203,2.61,19.8151,236,5,
4229.55,4.14642,9.64203,2.61,19.8151,236,5,
4229.55,4.14581,9.64203,2.61,19.8151,236,5,
4229.55,4.14581,9.64203,2.61,19.8151,236,5,
4229.55,4.14642,9.6405,2.61,19.8151,236,5,
4229.56,4.151,9.6283,2.61,19.8151,236,5,
4229.56,4.15039,9.6283,2.61,19.8151,236,5,
4229.56,4.1507,9.6283,2.61,19.8151,236,5,
4229.56,4.151,9.6283,2.61,19.8151,236,5,
4229.56,4.15588,9.62525,2.61,19.8151,236,5,
4229.57,4.15527,9.62525,2.61,19.8151,236,5,
4229.57,4.15558,9.6283,2.61,19.8151,236,5,
4229.57,4.15558,9.62677,2.61,19.8151,236,5,
4229.57,4.16107,9.6283,2.61,19.8151,236,5,
4229.57,4.15985,9.62982,2.61,19.8151,236,5,
4229.58,4.16077,9.62677,2.61,19.8151,236,5,
4229.58,4.16077,9.62982,2.61,19.8151,236,5,
4229.58,4.16626,9.62677,2.61,19.8151,236,5,
4229.58,4.16534,9.62525,2.61,19.8151,236,5,
4229.58,4.16504,9.6283,2.61,19.8151,236,5,
4229.59,4.16595,9.6283,2.61,19.8151,236,5,
4229.59,4.17053,9.62677,2.61,19.8151,236,5,
4229.59,4.17053,9.62677,2.61,19.8151,236,5,
4229.59,4.17053,9.62525,2.61,19.8151,236,5,
4229.59,4.17084,9.62525,2.61,19.8151,236,5,
4229.6,4.17236,9.62677,2.61,19.8151,236,5,
4229.6,4.17511,9.6283,2.61,19.8151,236,5,
4229.6,4.17542,9.62982,2.61,19.8151,236,5,
4229.6,4.17511,9.62677,2.61,19.8151,236,5,
4229.6,4.17542,9.62372,2.61,19.8151,236,5,
4229.61,4.17999,9.6283,2.61,19.8151,236,5,
4229.61,4.1806,9.6283,2.61,19.8151,236,5,
4229.61,4.1806,9.61456,2.61,19.8151,236,5,
4229.61,4.17969,9.61762,2.61,19.8151,236,5,
4229.61,4.18457,9.61914,2.61,19.8151,236,5,
4229.62,4.18457,9.61456,2.61,19.8151,236,5,
4229.62,4.18427,9.61609,2.61,19.8151,236,5,
4229.62,4.18427,9.61304,2.61,19.8151,236,5,
4229.62,4.18549,9.61151,2.61,19.8151,236,5,
4229.62,4.18427,9.61151,2.61,19.8151,236,5,
4229.63,4.18457,9.61609,2.61,19.8151,236,5,
4229.63,4.18518,9.61609,2.61,19.8151,236,5,
4229.63,4.18488,9.61762,2.61,19.8151,236,5,
4229.63,4.18427,9.61304,2.61,19.8151,236,5,
4229.63,4.18518,9.61609,2.61,19.8151,236,5,
4229.64,4.18457,9.61456,2.61,19.8151,236,5,
4229.64,4.18427,9.61304,2.61,19.8151,236,5,
4229.64,4.18518,9.61609,2.61,19.8151,236,5,
4229.64,4.18488,9.61609,2.61,19.8151,236,5,
4229.64,4.18457,9.61609,2.61,19.8151,236,5,
4229.65,4.18518,9.61456,2.61,19.8151,236,5,
4229.65,4.18518,9.61304,2.61,19.8151,236,5,
4229.65,4.18457,9.61456,2.61,19.8151,236,5,
4229.65,4.18488,9.61762,2.61,19.8151,236,5,
4229.65,4.18488,9.61304,2.61,19.8151,236,5,
4229.66,4.18427,9.61762,2.61,19.8151,236,5,
4229.66,4.18518,9.61456,2.61,19.8151,236,5,
4229.66,4.18518,9.60999,2.61,19.8151,236,5,
4229.66,4.18518,9.60083,2.61,19.8151,236,5,
4229.66,4.18518,9.60388,2.61,19.8151,236,5,
4229.67,4.18488,9.60236,2.61,19.8151,236,5,
4229.67,4.18488,9.60388,2.61,19.8151,236,5,
4229.67,4.18457,9.60083,2.61,19.8151,236,5,
4229.67,4.18549,9.60236,2.61,19.8151,236,5,
4229.67,4.18518,9.60388,2.61,19.8151,236,5,
4229.68,4.18518,9.60541,2.61,19.8151,236,5,
4229.68,4.18549,9.60388,2.61,19.8151,236,5,
4229.68,4.18549,9.60236,2.61,19.8151,236,5,
4229.68,4.18488,9.60236,2.61,19.8151,236,5,
4229.68,4.18488,9.60236,2.61,19.8151,236,5,
4229.69,4.18488,9.60236,2.61,19.8151,236,5,
4229.69,4.18549,9.60236,2.61,19.8151,236,5,
4229.69,4.21967,9.60083,2.61,19.8151,236,5,
4229.69,4.21906,9.60388,2.61,19.8151,236,5,
4229.69,4.21967,9.60083,2.61,19.8151,236,5,
4229.7,4.21906,9.60083,2.61,19.8151,236,5,
4229.7,4.21936,9.59931,2.61,19.8151,236,5,
4229.7,4.21936,9.60236,2.61,19.8151,236,5,
4229.7,4.22241,9.59931,2.61,19.8151,236,5,
4229.7,4.22455,9.60388,2.61,19.8151,236,5,
4229.71,4.22485,9.60236,2.61,19.8151,236,5,
4229.71,4.22424,9.60236,2.61,19.8151,236,5,
4229.71,4.22363,9.60236,2.61,19.8151,236,5,
4229.71,4.22424,9.59931,2.61,19.8151,236,5,
4229.71,4.22424,9.60083,2.61,19.8151,236,5,
4229.72,4.22394,9.59168,2.61,19.8151,236,5,
4229.72,4.22882,9.5932,2.61,19.8151,236,5,
4229.72,4.22913,9.58862,2.61,19.8151,236,5,
4229.72,4.22882,9.59015,2.61,19.8151,236,5,
4229.72,4.22943,9.5932,2.61,19.8151,236,5,
4229.73,4.22882,9.58862,2.61,19.8151,236,5,
4229.73,4.22913,9.59015,2.61,19.8151,236,5,
4229.73,4.22943,9.59015,2.61,19.8151,236,5,
4229.73,4.22913,9.59168,2.61,19.8151,236,5,
4229.73,4.23401,9.59015,2.61,19.8151,236,5,
4229.74,4.23462,9.59168,2.61,19.8151,236,5,
4229.74,4.23431,9.5932,2.61,19.8151,236,5,
4229.74,4.2337,9.5871,2.61,19.8151,236,5,
4229.74,4.23401,9.59168,2.61,19.8151,236,5,
4229.74,4.23401,9.58862,2.61,19.8151,236,5,
4229.75,4.23401,9.59015,2.61,19.8151,236,5,
4229.75,4.23401,9.59168,2.61,19.8151,236,5,
4229.75,4.23401,9.59015,2.61,19.8151,236,5,
4229.75,4.23431,9.59015,2.61,19.8151,236,5,
4229.75,4.2337,9.5871,2.61,19.8151,236,5,
4229.76,4.23462,9.59015,2.61,19.8151,236,5,
4229.76,4.23401,9.59015,2.61,19.8151,236,5,
4229.76,4.2334,9.59168,2.61,19.8151,236,5,
4229.76,4.23401,9.59015,2.61,19.8151,236,5,
4229.76,4.23401,9.59015,2.61,19.8151,236,5,
4229.77,4.23431,9.5932,2.61,19.8151,236,5,
4229.77,4.2337,9.59168,2.61,19.8151,236,5,
4229.77,4.2337,9.59015,2.61,19.8151,236,5,
4229.77,4.2337,9.59015,2.61,19.8151,236,5,
4229.77,4.2337,9.59168,2.61,19.8151,236,5,
4229.78,4.23401,9.57794,2.61,19.8151,236,5,
4229.78,4.23462,9.57947,2.61,19.8151,236,5,
4229.78,4.23401,9.57642,2.61,19.8151,236,5,
4229.78,4.24011,9.57642,2.61,19.8151,236,5,
4229.78,4.24438,9.57947,2.61,19.8151,236,5,
4229.79,4.24347,9.57794,2.61,19.8151,236,5,
4229.79,4.24377,9.57794,2.61,19.8151,236,5,
4229.79,4.24377,9.57947,2.61,19.8151,236,5,
4229.79,4.24377,9.57794,2.61,19.8151,236,5,
4229.79,4.24469,9.57947,2.61,19.8151,236,5,
4229.8,4.24377,9.57947,2.61,19.8151,236,5,
4229.8,4.24347,9.57947,2.61,19.8151,236,5,
4229.8,4.24377,9.57489,2.61,19.8151,236,5,
4229.8,4.24377,9.57642,2.61,19.8151,236,5,
4229.8,4.24347,9.57794,2.61,19.8151,236,5,
4229.81,4.24347,9.57642,2.61,19.8151,236,5,
4229.81,4.24866,9.57794,2.61,19.8151,236,5,
4229.81,4.24835,9.57642,2.61,19.8151,236,5,
4229.81,4.24927,9.57794,2.61,19.8151,236,5,
4229.81,4.24835,9.57794,2.61,19.8151,236,5,
4229.82,4.24927,9.57794,2.61,19.8151,236,5,
4229.82,4.24835,9.58099,2.61,19.8151,236,5,
4229.82,4.24927,9.57489,2.61,19.8151,236,5,
4229.82,4.24896,9.57947,2.61,19.8151,236,5,
4229.82,4.24866,9.57794,2.61,19.8151,236,5,
4229.83,4.24896,9.57794,2.61,19.8151,236,5,
4229.83,4.24896,9.57642,2.61,19.8151,236,5,
4229.83,4.24896,9.57947,2.61,19.8151,236,5,
4229.83,4.24896,9.57337,2.61,19.8151,236,5,
4229.83,4.24927,9.57947,2.61,19.8151,236,5,
4229.84,4.24896,9.57337,2.61,19.8151,236,5,
4229.84,4.24927,9.56879,2.61,19.8151,236,5,
4229.84,4.24927,9.56726,2.61,19.8151,236,5,
4229.84,4.24957,9.56726,2.61,19.8151,236,5,
4229.84,4.24957,9.56574,2.61,19.8151,236,5,
4229.85,4.24957,9.56421,2.61,19.8151,236,5,
4229.85,4.25018,9.56574,2.61,19.8151,236,5,
4229.85,4.24957,9.56726,2.61,19.8151,236,5,
4229.85,4.24896,9.56879,2.61,19.8151,236,5,
4229.85,4.24927,9.56726,2.61,19.8151,236,5,
4229.86,4.24927,9.56726,2.61,19.8151,236,5,
4229.86,4.24896,9.56726,2.61,19.8151,236,5,
4229.86,4.24866,9.56879,2.61,19.8151,236,5,
4229.86,4.24957,9.56726,2.61,19.8151,236,5,
4229.86,4.24896,9.56574,2.61,19.8151,236,5,
4229.87,4.24927,9.56421,2.61,19.8151,236,5,
4229.87,4.24896,9.56421,2.61,19.8151,236,5,
4229.87,4.24866,9.56879,2.61,19.8151,236,5,
4229.87,4.24896,9.56879,2.61,19.8151,236,5,
4229.87,4.24835,9.56726,2.61,19.8151,236,5,
4229.88,4.24896,9.56421,2.61,19.8151,236,5,
4229.88,4.24866,9.56421,2.61,19.8151,236,5,
4229.88,4.24805,9.56726,2.61,19.8151,236,5,
4229.88,4.24896,9.56574,2.61,19.8151,236,5,
4229.88,4.24866,9.56574,2.61,19.8151,236,5,
4229.89,4.24896,9.56879,2.61,19.8151,236,5,
4229.89,4.24896,9.56726,2.61,19.8151,236,5,
4229.89,4.24896,9.56421,2.61,19.8151,236,5,
4229.89,4.24835,9.56726,2.61,19.8151,236,5,
4229.89,4.24866,9.56726,2.61,19.8151,236,5,
4229.9,4.24896,9.56421,2.61,19.8151,236,5,
4229.9,4.24927,9.57031,2.61,19.8151,236,5,
4229.9,4.24896,9.56726,2.61,19.8151,236,5,
4229.9,4.24866,9.56574,2.61,19.8151,236,5,
4229.9,4.24835,9.55963,2.61,19.8151,236,5,
4229.91,4.24866,9.552,2.61,19.8151,236,5,
4229.91,4.24896,9.552,2.61,19.8151,236,5,
4229.91,4.24835,9.55505,2.61,19.8151,236,5,
4229.91,4.24896,9.55505,2.61,19.8151,236,5,
4229.91,4.24866,9.55353,2.61,19.8151,236,5,
4229.92,4.24866,9.55353,2.61,19.8151,236,5,
4229.92,4.24896,9.552,2.61,19.8151,236,5,
4229.92,4.24896,9.55505,2.61,19.8151,236,5,
4229.92,4.24835,9.55353,2.61,19.8151,236,5,
4229.92,4.24896,9.55353,2.61,19.8151,236,5,
4229.93,4.24927,9.55353,2.61,19.8151,236,5,
4229.93,4.24866,9.55505,2.61,19.8151,236,5,
4229.93,4.24896,9.55505,2.61,19.8151,236,5,
4229.93,4.24866,9.55658,2.61,19.8151,236,5,
4229.93,4.24866,9.55658,2.61,19.8151,236,5,
4229.94,4.24896,9.552,2.61,19.8151,236,5,
4229.94,4.24896,9.55505,2.61,19.8151,236,5,
4229.94,4.24896,9.552,2.61,19.8151,236,5,
4229.94,4.24927,9.55048,2.61,19.8151,236,5,
4229.94,4.24896,9.55353,2.61,19.8151,236,5,
4229.95,4.24866,9.55353,2.61,19.8151,236,5,
4229.95,4.24866,9.552,2.61,19.8151,236,5,
4229.95,4.24896,9.55811,2.61,19.8151,236,5,
4229.95,4.24866,9.552,2.61,19.8151,236,5,
4229.95,4.24866,9.55658,2.61,19.8151,236,5,
4229.96,4.24866,9.552,2.61,19.8151,236,5,
4229.96,4.24927,9.55505,2.61,19.8151,236,5,
4229.96,4.24835,9.55353,2.61,19.8151,236,5,
4229.96,4.24866,9.552,2.61,19.8151,236,5,
4229.96,4.24835,9.55353,2.61,19.8151,236,5,
4229.97,4.24927,9.55505,2.61,19.8151,236,5,
4229.97,4.24866,9.55353,2.61,19.8151,236,5,
4229.97,4.24835,9.552,2.61,19.8151,236,5,
4229.97,4.24896,9.552,2.61,19.8151,236,5,
4229.97,4.24896,9.55658,2.61,19.8151,236,5,
4229.98,4.24835,9.55353,2.61,19.8151,236,5,
4229.98,4.24805,9.55353,2.61,19.8151,236,5,
4229.98,4.24561,9.55505,2.61,19.8151,236,5,
4229.98,4.24377,9.54132,2.61,19.8151,236,5,
4229.98,4.24408,9.5398,2.61,19.8151,236,5,
4229.99,4.24408,9.54132,2.61,19.8151,236,5,
4229.99,4.24408,9.54132,2.61,19.8151,236,5,
4229.99,4.24408,9.54132,2.61,19.8151,236,5,
4229.99,4.24408,9.54437,2.61,19.8151,236,5,
4229.99,4.24377,9.54132,2.61,19.8151,236,5,
4230,4.24377,9.54437,2.61,19.8151,236,5,
4230,4.24408,9.54437,2.61,19.8151,236,5,
4230,4.24377,9.54285,2.61,19.8151,236,5,
4230,4.24347,9.5398,2.61,19.8151,236,5,
4230,4.24377,9.54437,2.61,19.8151,236,5,
4230.01,4.24347,9.53827,2.61,19.8151,236,5,
4230.01,4.24408,9.54437,2.61,19.8151,236,5,
4230.01,4.24438,9.5398,2.61,19.8151,236,5,
4230.01,4.24408,9.54285,2.61,19.8151,236,5,
4230.01,4.24438,9.54437,2.61,19.8151,236,5,
4230.02,4.24377,9.54285,2.61,19.8151,236,5,
4230.02,4.24469,9.54285,2.61,19.8151,236,5,
4230.02,4.24438,9.54132,2.61,19.8151,236,5,
4230.02,4.24408,9.54285,2.61,19.8151,236,5,
4230.02,4.24408,9.54437,2.61,19.8151,236,5,
4230.03,4.24438,9.5398,2.61,19.8151,236,5,
4230.03,4.24377,9.54132,2.61,19.8151,236,5,
4230.03,4.24438,9.54285,2.61,19.8151,236,5,
4230.03,4.24347,9.5398,2.61,19.8151,236,5,
4230.03,4.24408,9.54285,2.61,19.8151,236,5,
4230.04,4.24347,9.5398,2.61,19.8151,236,5,
4230.04,4.24408,9.5398,2.61,19.8151,236,5,
4230.04,4.24377,9.53674,2.61,19.8151,236,5,
4230.04,4.24316,9.54132,2.61,19.8151,236,5,
4230.04,4.24408,9.5398,2.61,19.8151,236,5,
4230.05,4.23889,9.54285,2.61,19.8151,236,5,
4230.05,4.23889,9.54132,2.61,19.8151,236,5,
4230.05,4.23889,9.54285,2.61,19.8151,236,5,
4230.05,4.23889,9.54285,2.61,19.8151,236,5,
4230.05,4.2395,9.54132,2.61,19.8151,236,5,
4230.06,4.23889,9.54437,2.61,19.8151,236,5,
4230.06,4.2392,9.54437,2.61,19.8151,236,5,
4230.06,4.2395,9.54132,2.61,19.8151,236,5,
4230.06,4.2395,9.5398,2.61,19.8151,236,5,
4230.06,4.23981,9.54437,2.61,19.8151,236,5,
4230.07,4.23981,9.54285,2.61,19.8151,236,5,
4230.07,4.23981,9.5398,2.61,19.8151,236,5,
4230.07,4.23889,9.54132,2.61,19.8151,236,5,
4230.07,4.2392,9.5398,2.61,19.8151,236,5,
4230.07,4.23889,9.54437,2.61,19.8151,236,5,
4230.08,4.23859,9.54285,2.61,19.8151,236,5,
4230.08,4.23859,9.53064,2.61,19.8151,236,5,
4230.08,4.2392,9.53369,2.61,19.8151,236,5,
4230.08,4.23889,9.53217,2.61,19.8151,236,5,
4230.08,4.2395,9.52911,2.61,19.8151,236,5,
4230.09,4.23889,9.53217,2.61,19.8151,236,5,
4230.09,4.23981,9.52911,2.61,19.8151,236,5,
4230.09,4.2392,9.52911,2.61,19.8151,236,5,
4230.09,4.23859,9.52911,2.61,19.8151,236,5,
4230.09,4.23889,9.52911,2.61,19.8151,236,5,
4230.1,4.2392,9.52759,2.61,19.8151,236,5,
4230.1,4.23401,9.53064,2.61,19.8151,236,5,
4230.1,4.2334,9.52911,2.61,19.8151,236,5,
4230.1,4.2334,9.52911,2.61,19.8151,236,5,
4230.1,4.23431,9.53217,2.61,19.8151,236,5,
4230.11,4.23401,9.52759,2.61,19.8151,236,5,
4230.11,4.23401,9.52759,2.61,19.8151,236,5,
4230.11,4.23431,9.53064,2.61,19.8151,236,5,
4230.11,4.23401,9.52759,2.61,19.8151,236,5,
4230.11,4.23431,9.52911,2.61,19.8151,236,5,
4230.12,4.2337,9.52911,2.61,19.8151,236,5,
4230.12,4.2337,9.53064,2.61,19.8151,236,5,
4230.12,4.23431,9.52759,2.61,19.8151,236,5,
4230.12,4.2337,9.52911,2.61,19.8151,236,5,
4230.12,4.2334,9.53369,2.61,19.8151,236,5,
4230.13,4.23309,9.52911,2.61,19.8151,236,5,
4230.13,4.23462,9.53064,2.61,19.8151,236,5,
4230.13,4.23401,9.52759,2.61,19.8151,236,5,
4230.13,4.23431,9.52911,2.61,19.8151,236,5,
4230.13,4.23431,9.52911,2.61,19.8151,236,5,
4230.14,4.2334,9.52911,2.61,19.8151,236,5,
4230.14,4.22882,9.52911,2.61,19.8151,236,5,
4230.14,4.22943,9.52911,2.61,19.8151,236,5,
4230.14,4.22913,9.53064,2.61,19.8151,236,5,
4230.14,4.22882,9.53064,2.61,19.8151,236,5,
4230.15,4.22913,9.53064,2.61,19.8151,236,5,
4230.15,4.22974,9.52911,2.61,19.8151,236,5,
4230.15,4.22913,9.52911,2.61,19.8151,236,5,
4230.15,4.22913,9.53064,2.61,19.8151,236,5,
4230.15,4.22913,9.52606,2.61,19.8151,236,5,
4230.16,4.22943,9.52606,2.61,19.8151,236,5,
4230.16,4.22882,9.53064,2.61,19.8151,236,5,
4230.16,4.22852,9.52759,2.61,19.8151,236,5,
4230.16,4.22882,9.53064,2.61,19.8151,236,5,
4230.16,4.22882,9.52759,2.61,19.8151,236,5,
4230.17,4.22943,9.52759,2.61,19.8151,236,5,
4230.17,4.22974,9.53064,2.61,19.8151,236,5,
4230.17,4.22913,9.52759,2.61,19.8151,236,5,
4230.17,4.22424,9.52759,2.61,19.8151,236,5,
4230.17,4.22485,9.52911,2.61,19.8151,236,5,
4230.18,4.22363,9.52911,2.61,19.8151,236,5,
4230.18,4.22424,9.53064,2.61,19.8151,236,5,
4230.18,4.22455,9.52759,2.61,19.8151,236,5,
4230.18,4.22363,9.52759,2.61,19.8151,236,5,
4230.18,4.22394,9.53064,2.61,19.8151,236,5,
4230.19,4.22394,9.52911,2.61,19.8151,236,5,
4230.19,4.22424,9.52911,2.61,19.8151,236,5,
4230.19,4.22394,9.53217,2.61,19.8151,236,5,
4230.19,4.22424,9.52911,2.61,19.8151,236,5,
4230.19,4.22455,9.52759,2.61,19.8151,236,5,
4230.2,4.22394,9.52911,2.61,19.8151,236,5,
4230.2,4.22394,9.53064,2.61,19.8151,236,5,
4230.2,4.22333,9.52911,2.61,19.8151,236,5,
4230.2,4.22394,9.53064,2.61,19.8151,236,5,
4230.2,4.21906,9.53217,2.61,19.8151,236,5,
4230.21,4.21936,9.53217,2.61,19.8151,236,5,
4230.21,4.21936,9.53217,2.61,19.8151,236,5,
4230.21,4.21875,9.52759,2.61,19.8151,236,5,
4230.21,4.21906,9.53217,2.61,19.8151,236,5,
4230.21,4.21967,9.52606,2.61,19.8151,236,5,
4230.22,4.21875,9.52911,2.61,19.8151,236,5,
4230.22,4.21936,9.52149,2.61,19.8151,236,5,
4230.22,4.21967,9.51691,2.61,19.8151,236,5,
4230.22,4.21936,9.51538,2.61,19.8151,236,5,
4230.22,4.21936,9.51691,2.61,19.8151,236,5,
4230.23,4.21936,9.51691,2.61,19.8151,236,5,
4230.23,4.21967,9.51996,2.61,19.8151,236,5,
4230.23,4.21967,9.51843,2.61,19.8151,236,5,
4230.23,4.21997,9.51538,2.61,19.8151,236,5,
4230.23,4.21936,9.52149,2.61,19.8151,236,5,
4230.24,4.21478,9.51843,2.61,19.8151,236,5,
4230.24,4.21478,9.51386,2.61,19.8151,236,5,
4230.24,4.21448,9.51538,2.61,19.8151,236,5,
4230.24,4.21417,9.51691,2.61,19.8151,236,5,
4230.24,4.21478,9.51538,2.61,19.8151,236,5,
4230.25,4.21509,9.51691,2.61,19.8151,236,5,
4230.25,4.21417,9.51538,2.61,19.8151,236,5,
4230.25,4.21448,9.51843,2.61,19.8151,236,5,
4230.25,4.21478,9.51386,2.61,19.8151,236,5,
4230.25,4.21448,9.51691,2.61,19.8151,236,5,
4230.26,4.21478,9.51538,2.61,19.8151,236,5,
4230.26,4.21417,9.51386,2.61,19.8151,236,5,
4230.26,4.21478,9.51538,2.61,19.8151,236,5,
4230.26,4.21478,9.51691,2.61,19.8151,236,5,
4230.26,4.21478,9.51843,2.61,19.8151,236,5,
4230.27,4.21387,9.51843,2.61,19.8151,236,5,
4230.27,4.20959,9.51538,2.61,19.8151,236,5,
4230.27,4.20959,9.51691,2.61,19.8151,236,5,
4230.27,4.2099,9.51996,2.61,19.8151,236,5,
4230.27,4.20959,9.52149,2.61,19.8151,236,5,
4230.28,4.21021,9.51843,2.61,19.8151,236,5,
4230.28,4.21021,9.51996,2.61,19.8151,236,5,
4230.28,4.21021,9.51691,2.61,19.8151,236,5,
4230.28,4.2099,9.51843,2.61,19.8151,236,5,
4230.28,4.21021,9.51996,2.61,19.8151,236,5,
4230.29,4.20929,9.51691,2.61,19.8151,236,5,
4230.29,4.2099,9.51691,2.61,19.8151,236,5,
4230.29,4.2099,9.51843,2.61,19.8151,236,5,
4230.29,4.2099,9.51691,2.61,19.8151,236,5,
4230.29,4.21021,9.51691,2.61,19.8151,236,5,
4230.3,4.2099,9.51843,2.61,19.8151,236,5,
4230.3,4.20471,9.51538,2.61,19.8151,236,5,
4230.3,4.20563,9.51843,2.61,19.8151,236,5,
4230.3,4.20593,9.51538,2.61,19.8151,236,5,
4230.3,4.20502,9.51843,2.61,19.8151,236,5,
4230.31,4.20441,9.51538,2.61,19.8151,236,5,
4230.31,4.20471,9.52149,2.61,19.8151,236,5,
4230.31,4.20471,9.51691,2.61,19.8151,236,5,
4230.31,4.20502,9.51691,2.61,19.8151,236,5,
4230.31,4.20471,9.51843,2.61,19.8151,236,5,
4230.32,4.20471,9.51843,2.61,19.8151,236,5,
4230.32,4.20532,9.51691,2.61,19.8151,236,5,
4230.32,4.20502,9.51691,2.61,19.8151,236,5,
4230.32,4.20471,9.51538,2.61,19.8151,236,5,
4230.32,4.20166,9.51843,2.61,19.8151,236,5,
4230.33,4.20013,9.51843,2.61,19.8151,236,5,
4230.33,4.19922,9.51538,2.61,19.8151,236,5,
4230.33,4.20044,9.51691,2.61,19.8151,236,5,
4230.33,4.20044,9.51691,2.61,19.8151,236,5,
4230.33,4.20013,9.51691,2.61,19.8151,236,5,
4230.34,4.19952,9.51538,2.61,19.8151,236,5,
4230.34,4.19952,9.51843,2.61,19.8151,236,5,
4230.34,4.19952,9.51386,2.61,19.8151,236,5,
4230.34,4.19983,9.51843,2.61,19.8151,236,5,
4230.34,4.19983,9.51386,2.61,19.8151,236,5,
4230.35,4.20013,9.51691,2.61,19.8151,236,5,
4230.35,4.19556,9.51691,2.61,19.8151,236,5,
4230.35,4.19495,9.51843,2.61,19.8151,236,5,
4230.35,4.19525,9.51691,2.61,19.8151,236,5,
4230.35,4.19586,9.51996,2.61,19.8151,236,5,
4230.36,4.19495,9.51691,2.61,19.8151,236,5,
4230.36,4.19525,9.51386,2.61,19.8151,236,5,
4230.36,4.19525,9.51538,2.61,19.8151,236,5,
4230.36,4.19434,9.51691,2.61,19.8151,236,5,
4230.36,4.19495,9.51843,2.61,19.8151,236,5,
4230.37,4.19525,9.51996,2.61,19.8151,236,5,
4230.37,4.19525,9.51691,2.61,19.8151,236,5,
4230.37,4.19037,9.51538,2.61,19.8151,236,5,
4230.37,4.19006,9.51691,2.61,19.8151,236,5,
4230.37,4.19037,9.51996,2.61,19.8151,236,5,
4230.38,4.19006,9.51691,2.61,19.8151,236,5,
4230.38,4.19037,9.51691,2.61,19.8151,236,5,
4230.38,4.18976,9.51691,2.61,19.8151,236,5,
4230.38,4.18945,9.51538,2.61,19.8151,236,5,
4230.38,4.19006,9.5108,2.61,19.8151,236,5,
4230.39,4.19006,9.51996,2.61,19.8151,236,5,
4230.39,4.18976,9.51233,2.61,19.8151,236,5,
4230.39,4.18549,9.51843,2.61,19.8151,236,5,
4230.39,4.18488,9.51538,2.61,19.8151,236,5,
4230.39,4.18457,9.51843,2.61,19.8151,236,5,
4230.4,4.18518,9.51843,2.61,19.8151,236,5,
4230.4,4.18549,9.51843,2.61,19.8151,236,5,
4230.4,4.18518,9.51691,2.61,19.8151,236,5,
4230.4,4.18488,9.51386,2.61,19.8151,236,5,
4230.4,4.18549,9.51691,2.61,19.8151,236,5,
4230.41,4.18488,9.51538,2.61,19.8151,236,5,
4230.41,4.18518,9.51843,2.61,19.8151,236,5,
4230.41,4.17969,9.51691,2.61,19.8151,236,5,
4230.41,4.1803,9.51691,2.61,19.8151,236,5,
4230.41,4.17999,9.51843,2.61,19.8151,236,5,
4230.42,4.17969,9.51691,2.61,19.8151,236,5,
4230.42,4.1803,9.51538,2.61,19.8151,236,5,
4230.42,4.17969,9.51691,2.61,19.8151,236,5,
4230.42,4.17969,9.51538,2.61,19.8151,236,5,
4230.42,4.17969,9.51691,2.61,19.8151,236,5,
4230.43,4.17999,9.51538,0.414,19.8151,236,5,
4230.43,4.17664,9.51538,0.414,19.8151,236,5,
4230.43,4.1748,9.51691,0.414,19.8151,236,5,
4230.43,4.17542,9.51538,0.414,19.8151,236,5,
4230.43,4.1748,9.51691,0.414,19.8151,236,5,
4230.44,4.17542,9.51843,0.414,19.8151,236,5,
4230.44,4.1748,9.51843,0.414,19.8151,236,5,
4230.44,4.17572,9.51843,0.414,19.8151,236,5,
4230.44,4.1748,9.51691,0.414,19.8151,236,5,
4230.44,4.17572,9.51691,0.414,19.8151,236,5,
4230.45,4.17267,9.51843,0.414,19.8151,236,5,
4230.45,4.17084,9.51691,0.414,19.8151,236,5,
4230.45,4.17053,9.51691,0.414,19.8151,236,5,
4230.45,4.16992,9.51691,0.414,19.8151,236,5,
4230.45,4.17114,9.51538,0.414,19.8151,236,5,
4230.46,4.17023,9.51691,0.414,19.8151,236,5,
4230.46,4.17053,9.51843,0.414,19.8151,236,5,
4230.46,4.17053,9.51843,0.414,19.8151,236,5,
4230.46,4.17023,9.51843,0.414,19.8151,236,5,
4230.46,4.16748,9.51538,0.414,19.8151,236,5,
4230.47,4.16473,9.51843,0.414,19.8151,236,5,
4230.47,4.16534,9.51843,0.414,19.8151,236,5,
4230.47,4.16504,9.51843,0.414,19.8151,236,5,
4230.47,4.16504,9.51691,0.414,19.8151,236,5,
4230.47,4.16504,9.51843,0.414,19.8151,236,5,
4230.48,4.16534,9.51843,0.414,19.8151,236,5,
4230.48,4.16504,9.51843,0.414,19.8151,236,5,
4230.48,4.16565,9.51538,0.414,19.8151,236,5,
4230.48,4.16504,9.51691,0.414,19.8151,236,5,
4230.48,4.16077,9.51996,0.414,19.8151,236,5,
4230.49,4.16077,9.51996,0.414,19.8151,236,5,
4230.49,4.16077,9.51538,0.414,19.8151,236,5,
4230.49,4.16077,9.51691,0.414,19.8151,236,5,
4230.49,4.16046,9.51843,0.414,19.8151,236,5,
4230.49,4.16077,9.51843,0.414,19.8151,236,5,
4230.5,4.16107,9.51691,0.414,19.8151,236,5,
4230.5,4.16107,9.51843,0.414,19.8151,236,5,
4230.5,4.16016,9.51538,0.414,19.8151,236,5,
4230.5,4.15558,9.51691,0.414,19.8151,236,5,
4230.5,4.15619,9.52149,0.414,19.8151,236,5,
4230.51,4.15619,9.51538,0.414,19.8151,236,5,
4230.51,4.15588,9.51843,0.414,19.8151,236,5,
4230.51,4.15619,9.51691,0.414,19.8151,236,5,
4230.51,4.15649,9.51538,0.414,19.8151,236,5,
4230.51,4.15619,9.51691,0.414,19.8151,236,5,
4230.52,4.15619,9.51538,0.414,19.8151,236,5,
4230.52,4.15375,9.51843,0.414,19.8151,236,5,
4230.52,4.15131,9.51843,0.414,19.8151,236,5,
4230.52,4.15161,9.51843,0.414,19.8151,236,5,
4230.52,4.15161,9.51691,0.414,19.8151,236,5,
4230.53,4.151,9.51843,0.414,19.8151,236,5,
4230.53,4.15039,9.51538,0.414,19.8151,236,5,
4230.53,4.151,9.51691,0.414,19.8151,236,5,
4230.53,4.15039,9.51538,0.414,19.8151,236,5,
4230.53,4.1507,9.51691,0.414,19.8151,236,5,
4230.54,4.14795,9.51691,0.414,19.8151,236,5,
4230.54,4.14551,9.51691,0.414,19.8151,236,5,
4230.54,4.14551,9.51538,0.414,19.8151,236,5,
4230.54,4.14551,9.51691,0.414,19.8151,236,5,
4230.54,4.14551,9.51691,0.414,19.8151,236,5,
4230.55,4.14551,9.51843,0.414,19.8151,236,5,
4230.55,4.1449,9.51996,0.414,19.8151,236,5,
4230.55,4.14581,9.51996,0.414,19.8151,236,5,
4230.55,4.14551,9.51843,0.414,19.8151,236,5,
4230.55,4.14246,9.51996,0.414,19.8151,236,5,
4230.56,4.14093,9.51538,0.414,19.8151,236,5,
4230.56,4.14154,9.51538,0.414,19.8151,236,5,
4230.56,4.14062,9.51691,0.414,19.8151,236,5,
4230.56,4.14062,9.51538,0.414,19.8151,236,5,
4230.56,4.14062,9.51691,0.414,19.8151,236,5,
4230.57,4.14032,9.51843,0.414,19.8151,236,5,
4230.57,4.14093,9.51233,0.414,19.8151,236,5,
4230.57,4.14062,9.51691,0.414,19.8151,236,5,
4230.57,4.13605,9.51691,0.414,19.8151,236,5,
4230.57,4.13605,9.51843,0.414,19.8151,236,5,
4230.58,4.13605,9.51843,0.414,19.8151,236,5,
4230.58,4.13574,9.51996,0.414,19.8151,236,5,
4230.58,4.13605,9.51538,0.414,19.8151,236,5,
4230.58,4.13574,9.51843,0.414,19.8151,236,5,
4230.58,4.13605,9.51386,0.414,19.8151,236,5,
4230.59,4.13605,9.51386,0.414,19.8151,236,5,
4230.59,4.13605,9.51691,0.414,19.8151,236,5,
4230.59,4.13116,9.51691,0.414,19.8151,236,5,
4230.59,4.13055,9.51691,0.414,19.8151,236,5,
4230.59,4.13086,9.51691,0.414,19.8151,236,5,
4230.6,4.13116,9.51691,0.414,19.8151,236,5,
4230.6,4.13116,9.51843,0.414,19.8151,236,5,
4230.6,4.13147,9.51691,0.414,19.8151,236,5,
4230.6,4.13086,9.51996,0.414,19.8151,236,5,
4230.6,4.13086,9.51691,0.414,19.8151,236,5,
4230.61,4.12628,9.52759,0.414,19.8151,236,5,
4230.61,4.12598,9.53064,0.414,19.8151,236,5,
4230.61,4.12598,9.52911,0.414,19.8151,236,5,
4230.61,4.12598,9.52759,0.414,19.8151,236,5,
4230.61,4.12659,9.53217,0.414,19.8151,236,5,
4230.62,4.12628,9.52911,0.414,19.8151,236,5,
4230.62,4.12537,9.53064,0.414,19.8151,236,5,
4230.62,4.12598,9.52911,0.414,19.8151,236,5,
4230.62,4.1217,9.52911,0.414,19.8151,236,5,
4230.62,4.1214,9.53217,0.414,19.8151,236,5,
4230.63,4.12109,9.52911,0.414,19.8151,236,5,
4230.63,4.1214,9.53064,0.414,19.8151,236,5,
4230.63,4.1217,9.52911,0.414,19.8151,236,5,
4230.63,4.1214,9.52759,0.414,19.8151,236,5,
4230.63,4.1217,9.53217,0.414,19.8151,236,5,
4230.64,4.1217,9.53064,0.414,19.8151,236,5,
4230.64,4.11713,9.53064,0.414,19.8151,236,5,
4230.64,4.11682,9.52911,0.414,19.8151,236,5,
4230.64,4.11621,9.52759,0.414,19.8151,236,5,
4230.64,4.11713,9.52606,0.414,19.8151,236,5,
4230.65,4.11652,9.53064,0.414,19.8151,236,5,
4230.65,4.11713,9.52759,0.414,19.8151,236,5,
4230.65,4.11621,9.52759,0.414,19.8151,236,5,
4230.65,4.11682,9.53217,0.414,19.8151,236,5,
4230.65,4.11255,9.52606,0.414,19.8151,236,5,
4230.66,4.11133,9.52759,0.414,19.8151,236,5,
4230.66,4.11163,9.52759,0.414,19.8151,236,5,
4230.66,4.11163,9.53064,0.414,19.8151,236,5,
4230.66,4.11194,9.52911,0.414,19.8151,236,5,
4230.66,4.11133,9.53064,0.414,19.8151,236,5,
4230.67,4.11194,9.52911,0.414,19.8151,236,5,
4230.67,4.11133,9.53064,0.414,19.8151,236,5,
4230.67,4.10675,9.52759,0.414,19.8151,236,5,
4230.67,4.10706,9.52606,0.414,19.8151,236,5,
4230.67,4.10675,9.52911,0.414,19.8151,236,5,
4230.68,4.10675,9.52759,0.414,19.8151,236,5,
4230.68,4.10706,9.52759,0.414,19.8151,236,5,
4230.68,4.10675,9.52911,0.414,19.8151,236,5,
4230.68,4.10706,9.53064,0.414,19.8151,236,5,
4230.68,4.10706,9.52759,0.414,19.8151,236,5,
4230.69,4.10187,9.52911,0.414,19.8151,236,5,
4230.69,4.10217,9.53064,0.414,19.8151,236,5,
4230.69,4.10217,9.52911,0.414,19.8151,236,5,
4230.69,4.10187,9.52759,0.414,19.8151,236,5,
4230.69,4.10217,9.52911,0.414,19.8151,236,5,
4230.7,4.10126,9.52911,0.414,19.8151,236,5,
4230.7,4.10187,9.53064,0.414,19.8151,236,5,
4230.7,4.10187,9.52759,0.414,19.8151,236,5,
4230.7,4.09698,9.52911,0.414,19.8151,236,5,
4230.7,4.09698,9.53064,0.414,19.8151,236,5,
4230.71,4.09607,9.53217,0.414,19.8151,236,5,
4230.71,4.09668,9.52911,0.414,19.8151,236,5,
4230.71,4.09698,9.52454,0.414,19.8151,236,5,
4230.71,4.09668,9.53064,0.414,19.8151,236,5,
4230.71,4.09698,9.52911,0.414,19.8151,236,5,
4230.72,4.09363,9.52911,0.414,19.8151,236,5,
4230.72,4.0921,9.53064,0.414,19.8151,236,5,
4230.72,4.0918,9.52911,0.414,19.8151,236,5,
4230.72,4.09241,9.52911,0.414,19.8151,236,5,
4230.72,4.0918,9.52759,0.414,19.8151,236,5,
4230.73,4.09241,9.52606,0.414,19.8151,236,5,
4230.73,4.0921,9.52911,0.414,19.8151,236,5,
4230.73,4.0921,9.52606,0.414,19.8151,236,5,
4230.73,4.08813,9.52759,0.414,19.8151,236,5,
4230.73,4.08783,9.53064,0.414,19.8151,236,5,
4230.74,4.0863,9.52911,0.414,19.8151,236,5,
4230.74,4.08661,9.52759,0.414,19.8151,236,5,
4230.74,4.08691,9.52759,0.414,19.8151,236,5,
4230.74,4.08783,9.53064,0.414,19.8151,236,5,
4230.74,4.08661,9.52911,0.414,19.8151,236,5,
4230.75,4.08722,9.52454,0.414,19.8151,236,5,
4230.75,4.08234,9.52911,0.414,19.8151,236,5,
4230.75,4.08203,9.52911,0.414,19.8151,236,5,
4230.75,4.08203,9.52606,0.414,19.8151,236,5,
4230.75,4.08203,9.52911,0.414,19.8151,236,5,
4230.76,4.08264,9.52759,0.414,19.8151,236,5,
4230.76,4.08295,9.5398,0.414,19.8151,236,5,
4230.76,4.08203,9.5398,0.414,19.8151,236,5,
4230.76,4.08173,9.54132,0.414,19.8151,236,5,
4230.76,4.07684,9.54132,0.414,19.8151,236,5,
4230.77,4.07715,9.5398,0.414,19.8151,236,5,
4230.77,4.07715,9.53827,0.414,19.8151,236,5,
4230.77,4.07684,9.54132,0.414,19.8151,236,5,
4230.77,4.07623,9.5398,0.414,19.8151,236,5,
4230.77,4.07715,9.54285,0.414,19.8151,236,5,
4230.78,4.07684,9.54132,0.414,19.8151,236,5,
4230.78,4.0744,9.5398,0.414,19.8151,236,5,
4230.78,4.07227,9.54285,0.414,19.8151,236,5,
4230.78,4.07227,9.5398,0.414,19.8151,236,5,
4230.78,4.07166,9.5398,0.414,19.8151,236,5,
4230.79,4.07257,9.54132,0.414,19.8151,236,5,
4230.79,4.07227,9.5398,0.414,19.8151,236,5,
4230.79,4.07135,9.54132,0.414,19.8151,236,5,
4230.79,4.07196,9.5398,0.414,19.8151,236,5,
4230.79,4.06799,9.5398,0.414,19.8151,236,5,
4230.8,4.06769,9.54132,0.414,19.8151,236,5,
4230.8,4.06769,9.5398,0.414,19.8151,236,5,
4230.8,4.06738,9.54285,0.414,19.8151,236,5,
4230.8,4.06708,9.54437,0.414,19.8151,236,5,
4230.8,4.06677,9.54132,0.414,19.8151,236,5,
4230.81,4.06677,9.54132,0.414,19.8151,236,5,
4230.81,4.06738,9.54285,0.414,19.8151,236,5,
4230.81,4.06219,9.54285,0.414,19.8151,236,5,
4230.81,4.06158,9.54285,0.414,19.8151,236,5,
4230.81,4.06281,9.53827,0.414,19.8151,236,5,
4230.82,4.06219,9.5398,0.414,19.8151,236,5,
4230.82,4.06189,9.53674,0.414,19.8151,236,5,
4230.82,4.0625,9.54132,0.414,19.8151,236,5,
4230.82,4.06189,9.5459,0.414,19.8151,236,5,
4230.82,4.05792,9.54132,0.414,19.8151,236,5,
4230.83,4.05762,9.5398,0.414,19.8151,236,5,
4230.83,4.05792,9.5398,0.414,19.8151,236,5,
4230.83,4.05762,9.54285,0.414,19.8151,236,5,
4230.83,4.05823,9.53827,0.414,19.8151,236,5,
4230.83,4.05762,9.54132,0.414,19.8151,236,5,
4230.84,4.0564,9.54132,0.414,19.8151,236,5,
4230.84,4.05212,9.5398,0.414,19.8151,236,5,
4230.84,4.05273,9.53827,0,19.8151,236,5,
4230.84,4.05273,9.54132,0,19.8151,236,5,
4230.84,4.05334,9.5459,0,19.8151,236,5,
4230.85,4.05304,9.54437,0,19.8151,236,5,
4230.85,4.05365,9.53827,0,19.8151,236,5,
4230.85,4.04724,9.53827,0,19.8151,236,5,
4230.85,4.04755,9.54132,0,19.8151,236,5,
4230.85,4.04755,9.5398,0,19.8151,236,5,
4230.86,4.04816,9.54285,0,19.8151,236,5,
4230.86,4.04816,9.5398,0,19.8151,236,5,
4230.86,4.04755,9.53674,0,19.8151,236,5,
4230.86,4.04266,9.54132,0,19.8151,236,5,
4230.86,4.04297,9.54132,0,19.8151,236,5,
4230.87,4.04327,9.5398,0,19.8151,236,5,
4230.87,4.04297,9.5398,0,19.8151,236,5,
4230.87,4.04297,9.54132,0,19.8151,236,5,
4230.87,4.03839,9.5398,0,19.8151,236,5,
4230.87,4.03778,9.54132,0,19.8151,236,5,
4230.88,4.03839,9.55505,0,19.8151,236,5,
4230.88,4.0387,9.55353,0,19.8151,236,5,
4230.88,4.03839,9.55505,0,19.8151,236,5,
4230.88,4.03381,9.55353,0,19.8151,236,5,
4230.88,4.03351,9.55505,0,19.8151,236,5,
4230.89,4.0329,9.552,0,19.8151,236,5,
4230.89,4.03351,9.55505,0,19.8151,236,5,
4230.89,4.0332,9.55353,0,19.8151,236,5,
4230.89,4.02832,9.552,0,19.8151,236,5,
4230.89,4.02802,9.55353,0,19.8151,236,5,
4230.9,4.02832,9.55505,0,19.8151,236,5,
4230.9,4.02832,9.55048,0,19.8151,236,5,
4230.9,4.02863,9.55505,0,19.8151,236,5,
4230.9,4.02283,9.552,0,19.8151,236,5,
4230.9,4.02344,9.55505,0,19.8151,236,5,
4230.91,4.02344,9.55353,0,19.8151,236,5,
4230.91,4.02374,9.55353,0,19.8151,236,5,
4230.91,4.02283,9.55353,0,19.8151,236,5,
4230.91,4.01855,9.55505,0,19.8151,236,5,
4230.91,4.01825,9.54437,0,19.8151,236,5,
4230.92,4.01825,9.55505,0,19.8151,236,5,
4230.92,4.01855,9.55505,0,19.8151,236,5,
4230.92,4.01367,9.55353,0,19.8151,236,5,
4230.92,4.01367,9.552,0,19.8151,236,5,
4230.92,4.01337,9.55505,0,19.8151,236,5,
4230.93,4.01276,9.552,0,19.8151,236,5,
4230.93,4.01367,9.552,0,19.8151,236,5,
4230.93,4.00818,9.55505,0,19.8151,236,5,
4230.93,4.00787,9.55658,0,19.8151,236,5,
4230.93,4.00879,9.55048,0,19.8151,236,5,
4230.94,4.00787,9.55353,0,19.8151,236,5,
4230.94,4.00391,9.55505,0,19.8151,236,5,
4230.94,4.00421,9.55505,0,19.8151,236,5,
4230.94,4.00391,9.55658,0,19.8151,236,5,
4230.94,4.00391,9.552,0,19.8151,236,5,
4230.95,4.00085,9.552,0,19.8151,236,5,
4230.95,3.99902,9.55353,0,19.8151,236,5,
4230.95,3.99841,9.552,0,19.8151,236,5,
4230.95,3.99872,9.55353,0,19.8151,236,5,
4230.95,3.99841,9.552,0,19.8151,236,5,
4230.96,3.99414,9.552,0,19.8151,236,5,
4230.96,3.99353,9.55353,0,19.8151,236,5,
4230.96,3.99323,9.55353,0,19.8151,236,5,
4230.96,3.99323,9.552,0,19.8151,236,5,
4230.96,3.98926,9.552,0,19.8151,236,5,
4230.97,3.98804,9.55811,0,19.8151,236,5,
4230.97,3.98865,9.55505,0,19.8151,236,5,
4230.97,3.98987,9.55353,0,19.8151,236,5,
4230.97,3.98438,9.55353,0,19.8151,236,5,
4230.97,3.98376,9.55505,0,19.8151,236,5,
4230.98,3.98376,9.552,0,19.8151,236,5,
4230.98,3.98438,9.55353,0,19.8151,236,5,
4230.98,3.9801,9.56726,0,19.8151,236,5,
4230.98,3.97919,9.56421,0,19.8151,236,5,
4230.98,3.9798,9.56726,0,19.8151,236,5,
4230.99,3.97919,9.56879,0,19.8151,236,5,
4230.99,3.97491,9.56726,0,19.8151,236,5,
4230.99,3.974,9.56726,0,19.8151,236,5,
4230.99,3.9743,9.56574,0,19.8151,236,5,
4230.99,3.974,9.56574,0,19.8151,236,5,
4231,3.97003,9.56421,0,19.8151,236,5,
4231,3.96912,9.56574,0,19.8151,236,5,
4231,3.96973,9.56574,0,19.8151,236,5,
4231,3.96973,9.56421,0,19.8151,236,5,
4231,3.96515,9.56574,0,19.8151,236,5,
4231.01,3.96454,9.56421,0,19.8151,236,5,
4231.01,3.96423,9.56574,0,19.8151,236,5,
4231.01,3.96484,9.56421,0,19.8151,236,5,
4231.01,3.96027,9.56726,0,19.8151,236,5,
4231.01,3.95905,9.56726,0,19.8151,236,5,
4231.02,3.96057,9.56726,0,19.8151,236,5,
4231.02,3.95966,9.56574,0,19.8151,236,5,
4231.02,3.95416,9.56574,0,19.8151,236,5,
4231.02,3.95477,9.56574,0,19.8151,236,5,
4231.02,3.95538,9.56421,0,19.8151,236,5,
4231.03,3.95477,9.56879,0,19.8151,236,5,
4231.03,3.9502,9.56574,0,19.8151,236,5,
4231.03,3.9502,9.56574,0,19.8151,236,5,
4231.03,3.94989,9.56726,0,19.8151,236,5,
4231.03,3.94958,9.56726,0,19.8151,236,5,
4231.04,3.94531,9.56574,0,19.8151,236,5,
4231.04,3.94501,9.56421,0,19.8151,236,5,
4231.04,3.94531,9.56879,0,19.8151,236,5,
4231.04,3.9444,9.56726,0,19.8151,236,5,
4231.04,3.93951,9.56421,0,19.8151,236,5,
4231.05,3.93951,9.56726,0,19.8151,236,5,
4231.05,3.94012,9.56726,0,19.8151,236,5,
4231.05,3.93921,9.56421,0,19.8151,236,5,
4231.05,3.93463,9.56879,0,19.8151,236,5,
4231.05,3.93555,9.56421,0,19.8151,236,5,
4231.06,3.93524,9.56574,0,19.8151,236,5,
4231.06,3.93463,9.56574,0,19.8151,236,5,
4231.06,3.93005,9.56574,0,19.8151,236,5,
4231.06,3.93066,9.56574,0,19.8151,236,5,
4231.06,3.93036,9.56726,0,19.8151,236,5,
4231.07,3.927,9.56726,0,19.8151,236,5,
4231.07,3.92487,9.56574,0,19.8151,236,5,
4231.07,3.92517,9.56574,0,19.8151,236,5,
4231.07,3.92548,9.56574,0,19.8151,236,5,
4231.07,3.92181,9.56421,0,19.8151,236,5,
4231.08,3.9209,9.56268,0,19.8151,236,5,
4231.08,3.91998,9.56574,0,19.8151,236,5,
4231.08,3.92029,9.56421,0,19.8151,236,5,
4231.08,3.91632,9.57794,0,19.8151,236,5,
4231.08,3.91479,9.57794,0,19.8151,236,5,
4231.09,3.9151,9.57794,0,19.8151,236,5,
4231.09,3.91541,9.57489,0,19.8151,236,5,
4231.09,3.91022,9.57794,0,19.8151,236,5,
4231.09,3.91052,9.57642,0,19.8151,236,5,
4231.09,3.91022,9.57642,0,19.8151,236,5,
4231.1,3.91052,9.57794,0,19.8151,236,5,
4231.1,3.90564,9.57337,0,19.8151,236,5,
4231.1,3.90594,9.57794,0,19.8151,236,5,
4231.1,3.90533,9.57794,0,19.8151,236,5,
4231.1,3.90533,9.57794,0,19.8151,236,5,
4231.11,3.90106,9.57794,0,19.8151,236,5,
4231.11,3.90106,9.57642,0,19.8151,236,5,
4231.11,3.90106,9.58252,0,19.8151,236,5,
4231.11,3.90045,9.57947,0,19.8151,236,5,
4231.11,3.89648,9.57489,0,19.8151,236,5,
4231.12,3.89557,9.57794,0,19.8151,236,5,
4231.12,3.89557,9.57794,0,19.8151,236,5,
4231.12,3.89221,9.57794,0,19.8151,236,5,
4231.12,3.89099,9.57794,0,19.8151,236,5,
4231.12,3.89069,9.57489,0,19.8151,236,5,
4231.13,3.89069,9.57642,0,19.8151,236,5,
4231.13,3.88824,9.57947,0,19.8151,236,5,
4231.13,3.88611,9.57642,0,19.8151,236,5,
4231.13,3.88611,9.57947,0,19.8151,236,5,
4231.13,3.88641,9.57794,0,19.8151,236,5,
4231.14,3.88123,9.58405,0,19.8151,236,5,
4231.14,3.88123,9.57794,0,19.8151,236,5,
4231.14,3.88062,9.57947,0,19.8151,236,5,
4231.14,3.88092,9.57489,0,19.8151,236,5,
4231.14,3.87695,9.57794,0,19.8151,236,5,
4231.15,3.87604,9.57642,0,19.8151,236,5,
4231.15,3.87604,9.57947,0,19.8151,236,5,
4231.15,3.87573,9.58099,0,19.8151,236,5,
4231.15,3.87238,9.57642,0,19.8151,236,5,
4231.15,3.87177,9.57489,0,19.8151,236,5,
4231.16,3.87146,9.57642,0,19.8151,236,5,
4231.16,3.87177,9.57794,0,19.8151,236,5,
4231.16,3.86688,9.57794,0,19.8151,236,5,
4231.16,3.86719,9.57642,0,19.8151,236,5,
4231.16,3.86688,9.57947,0,19.8151,236,5,
4231.17,3.86627,9.58099,0,19.8151,236,5,
4231.17,3.86261,9.57947,0,19.8151,236,5,
4231.17,3.8623,9.57794,0,19.8151,236,5,
4231.17,3.86169,9.57794,0,19.8151,236,5,
4231.17,3.8623,9.57489,0,19.8151,236,5,
4231.18,3.85742,9.57947,0,19.8151,236,5,
4231.18,3.85681,9.59015,0,19.8151,236,5,
4231.18,3.8562,9.58862,0,19.8151,236,5,
4231.18,3.85681,9.59015,0,19.8151,236,5,
4231.18,3.85193,9.5871,0,19.8151,236,5,
4231.19,3.85193,9.58862,0,19.8151,236,5,
4231.19,3.85223,9.59168,0,19.8151,236,5,
4231.19,3.85223,9.58862,0,19.8151,236,5,
4231.19,3.84949,9.59015,0,19.8151,236,5,
4231.19,3.84827,9.59015,0,19.8151,236,5,
4231.2,3.84766,9.59015,0,19.8151,236,5,
4231.2,3.84796,9.59015,0,19.8151,236,5,
4231.2,3.8443,9.58862,0,19.8151,236,5,
4231.2,3.84247,9.58557,0,19.8151,236,5,
4231.2,3.84186,9.59015,0,19.8151,236,5,
4231.21,3.84186,9.59015,0,19.8151,236,5,
4231.21,3.84277,9.59168,0,19.8151,236,5,
4231.21,3.83759,9.58862,0,19.8151,236,5,
4231.21,3.83728,9.59015,0,19.8151,236,5,
4231.21,3.83636,9.59015,0,19.8151,236,5,
4231.22,3.83728,9.58862,0,19.8151,236,5,
4231.22,3.8324,9.59168,0,19.8151,236,5,
4231.22,3.83179,9.5871,0,19.8151,236,5,
4231.22,3.83209,9.58862,0,19.8151,236,5,
4231.22,3.83118,9.5871,0,19.8151,236,5,
4231.23,3.82751,9.59015,0,19.8151,236,5,
4231.23,3.8266,9.5932,0,19.8151,236,5,
4231.23,3.8269,9.5932,0,19.8151,236,5,
4231.23,3.82721,9.59168,0,19.8151,236,5,
4231.23,3.82385,9.59168,0,19.8151,236,5,
4231.24,3.82141,9.59168,0,19.8151,236,5,
4231.24,3.82141,9.59015,0,19.8151,236,5,
4231.24,3.82202,9.59168,0,19.8151,236,5,
4231.24,3.82233,9.59168,0,19.8151,236,5,
4231.24,3.81653,9.58862,0,19.8151,236,5,
4231.25,3.81653,9.59015,0,19.8151,236,5,
4231.25,3.81775,9.59015,0,19.8151,236,5,
4231.25,3.81653,9.5932,0,19.8151,236,5,
4231.25,3.81226,9.5932,0,19.8151,236,5,
4231.25,3.81256,9.59015,0,19.8151,236,5,
4231.26,3.81195,9.59168,0,19.8151,236,5,
4231.26,3.81287,9.5932,0,19.8151,236,5,
4231.26,3.80798,9.59168,0,19.8151,236,5,
4231.26,3.80768,9.59168,0,19.8151,236,5,
4231.26,3.80737,9.59015,0,19.8151,236,5,
4231.27,3.80768,9.5871,0,19.8151,236,5,
4231.27,3.80463,9.59015,0,19.8151,236,5,
4231.27,3.8031,9.58862,0,19.8151,236,5,
4231.27,3.80249,9.59168,0,19.8151,236,5,
4231.27,3.80249,9.59168,0,19.8151,236,5,
4231.28,3.79944,9.59015,0,19.8151,236,5,
4231.28,3.79791,9.59778,0,19.8151,236,5,
4231.28,3.79883,9.60388,0,19.8151,236,5,
4231.28,3.79791,9.60083,0,19.8151,236,5,
4231.28,3.79486,9.60693,0,19.8151,236,5,
4231.29,3.79272,9.60388,0,19.8151,236,5,
4231.29,3.79303,9.60083,0,19.8151,236,5,
4231.29,3.79303,9.60083,0,19.8151,236,5,
4231.29,3.78998,9.59931,0,19.8151,236,5,
4231.29,3.78845,9.59931,0,19.8151,236,5,
4231.3,3.78784,9.60236,0,19.8151,236,5,
4231.3,3.78754,9.60388,0,19.8151,236,5,
4231.3,3.78479,9.60236,0,19.8151,236,5,
4231.3,3.78357,9.59931,0,19.8151,236,5,
4231.3,3.78296,9.60236,0,19.8151,236,5,
4231.31,3.78265,9.60083,0,19.8151,236,5,
4231.31,3.77838,9.59931,0,19.8151,236,5,
4231.31,3.77869,9.60388,0,19.8151,236,5,
4231.31,3.77808,9.60388,0,19.8151,236,5,
4231.31,3.77808,9.60236,0,19.8151,236,5,
4231.32,3.7735,9.60236,0,19.8151,236,5,
4231.32,3.77319,9.59931,0,19.8151,236,5,
4231.32,3.77289,9.59778,0,19.8151,236,5,
4231.32,3.77289,9.60083,0,19.8151,236,5,
4231.32,3.76831,9.59931,0,19.8151,236,5,
4231.33,3.7674,9.60388,0,19.8151,236,5,
4231.33,3.76801,9.60541,0,19.8151,236,5,
4231.33,3.76526,9.60388,0,19.8151,236,5,
4231.33,3.76343,9.60083,0,19.8151,236,5,
4231.33,3.76373,9.60083,0,19.8151,236,5,
4231.34,3.76343,9.59778,0,19.8151,236,5,
4231.34,3.75885,9.60236,0,19.8151,236,5,
4231.34,3.75793,9.60083,0,19.8151,236,5,
4231.34,3.75885,9.60541,0,19.8151,236,5,
4231.34,3.75824,9.60083,0,19.8151,236,5,
4231.35,3.75366,9.60083,0,19.8151,236,5,
4231.35,3.75397,9.60236,0,19.8151,236,5,
4231.35,3.75366,9.60236,0,19.8151,236,5,
4231.35,3.74878,9.59931,0,19.8151,236,5,
4231.35,3.74939,9.59931,0,19.8151,236,5,
4231.36,3.74847,9.59931,0,19.8151,236,5,
4231.36,3.74542,9.59778,0,19.8151,236,5,
4231.36,3.7442,9.60083,0,19.8151,236,5,
4231.36,3.7442,9.60083,0,19.8151,236,5,
4231.36,3.7439,9.60083,0,19.8151,236,5,
4231.37,3.73932,9.60541,0,19.8151,236,5,
4231.37,3.73901,9.60083,0,19.8151,236,5,
4231.37,3.73871,9.60388,0,19.8151,236,5,
4231.37,3.73505,9.60388,0,19.8151,236,5,
4231.37,3.73413,9.60693,0,19.8151,236,5,
4231.38,3.73413,9.61304,0,19.8151,236,5,
4231.38,3.72955,9.61304,0,19.8151,236,5,
4231.38,3.72894,9.61456,0,19.8151,236,5,
4231.38,3.72986,9.61609,0,19.8151,236,5,
4231.38,3.72406,9.61762,0,19.8151,236,5,
4231.39,3.72498,9.61456,0,19.8151,236,5,
4231.39,3.72528,9.61456,0,19.8151,236,5,
4231.39,3.71979,9.61151,0,19.8151,236,5,
4231.39,3.71979,9.61456,0,19.8151,236,5,
4231.39,3.7207,9.61304,0,19.8151,236,5,
4231.4,3.7146,9.61609,0,19.8151,236,5,
4231.4,3.7146,9.61609,0,19.8151,236,5,
4231.4,3.71429,9.61456,0,19.8151,236,5,
4231.4,3.70941,9.61609,0,19.8151,236,5,
4231.4,3.71033,9.61304,0,19.8151,236,5,
4231.41,3.71002,9.61762,0,19.8151,236,5,
4231.41,3.70483,9.61456,0,19.8151,236,5,
4231.41,3.70544,9.61456,0,19.8151,236,5,
4231.41,3.70209,9.61456,0,19.8151,236,5,
4231.41,3.69965,9.61304,0,19.8151,236,5,
4231.42,3.70026,9.61456,0,19.8151,236,5,
4231.42,3.69537,9.61914,0,19.8151,236,5,
4231.42,3.69568,9.61762,0,19.8151,236,5,
4231.42,3.69507,9.61304,0,19.8151,236,5,
4231.42,3.69019,9.61762,0,19.8151,236,5,
4231.43,3.69019,9.61456,0,19.8151,236,5,
4231.43,3.68774,9.61609,0,19.8151,236,5,
4231.43,3.6853,9.61456,0,19.8151,236,5,
4231.43,3.6853,9.61609,0,19.8151,236,5,
4231.43,3.68134,9.61609,0,19.8151,236,5,
4231.44,3.68073,9.61151,0,19.8151,236,5,
4231.44,3.67981,9.61762,0,19.8151,236,5,
4231.44,3.67523,9.61151,0,19.8151,236,5,
4231.44,3.67584,9.61609,0,19.8151,236,5,
4231.44,3.67279,9.61609,0,19.8151,236,5,
4231.45,3.67035,9.61304,0,19.8151,236,5,
4231.45,3.67126,9.61456,0,19.8151,236,5,
4231.45,3.66608,9.61609,0,19.8151,236,5,
4231.45,3.66577,9.61456,0,19.8151,236,5,
4231.45,3.6618,9.61456,0,19.8151,236,5,
4231.46,3.66089,9.61456,0,19.8151,236,5,
4231.46,3.66028,9.61609,0,19.8151,236,5,
4231.46,3.6557,9.61456,0,19.8151,236,5,
4231.46,3.65601,9.61456,0,19.8151,236,5,
4231.46,3.65265,9.61762,0,19.8151,236,5,
4231.47,3.65112,9.61304,0,19.8151,236,5,
4231.47,3.65021,9.60999,0,19.8151,236,5,
4231.47,3.64563,9.61304,0,19.8151,236,5,
4231.47,3.64563,9.61456,0,19.8151,236,5,
4231.47,3.64166,9.61609,0,19.8151,236,5,
4231.48,3.64166,9.61914,0,19.8151,236,5,
4231.48,3.64044,9.61609,0,19.8151,236,5,
4231.48,3.63617,9.61456,0,19.8151,236,5,
4231.48,3.63617,9.61609,0,19.8151,236,5,
4231.48,3.63068,9.61456,0,19.8151,236,5,
4231.49,3.63159,9.61762,0,19.8151,236,5,
4231.49,3.62823,9.61304,0,19.8151,236,5,
4231.49,3.62701,9.61151,0,19.8151,236,5,
4231.49,3.62518,9.6283,0,19.8151,236,5,
4231.49,3.62091,9.6283,0,19.8151,236,5,
4231.5,3.62122,9.6283,0,19.8151,236,5,
4231.5,3.61664,9.62677,0,19.8151,236,5,
4231.5,3.61664,9.6283,0,19.8151,236,5,
4231.5,3.61389,9.62677,0,19.8151,236,5,
4231.5,3.61145,9.62677,0,19.8151,236,5,
4231.51,3.61145,9.6283,0,19.8151,236,5,
4231.51,3.60657,9.62677,0,19.8151,236,5,
4231.51,3.60687,9.62982,0,19.8151,236,5,
4231.51,3.60199,9.6283,0,19.8151,236,5,
4231.51,3.60138,9.62677,0,19.8151,236,5,
4231.52,3.60107,9.6283,0,19.8151,236,5,
4231.52,3.5965,9.6283,0,19.8151,236,5,
4231.52,3.59741,9.62677,0,19.8151,236,5,
4231.52,3.59314,9.62677,0,19.8151,236,5,
4231.52,3.59192,9.62525,0,19.8151,236,5,
4231.53,3.58704,9.62677,0,19.8151,236,5,
4231.53,3.58765,9.62525,0,19.8151,236,5,
4231.53,3.58673,9.63135,0,19.8151,236,5,
4231.53,3.58215,9.62677,0,19.8151,236,5,
4231.53,3.58246,9.6283,0,19.8151,236,5,
4231.54,3.57697,9.62525,0,19.8151,236,5,
4231.54,3.57727,9.62677,0,19.8151,236,5,
4231.54,3.5733,9.62525,0,19.8151,236,5,
4231.54,3.57208,9.6283,0,19.8151,236,5,
4231.54,3.56934,9.62677,0,19.8151,236,5,
4231.55,3.56781,9.62525,0,19.8151,236,5,
4231.55,3.5675,9.62372,0,19.8151,236,5,
4231.55,3.5614,9.62372,0,19.8151,236,5,
4231.55,3.56323,9.6283,0,19.8151,236,5,
4231.55,3.55804,9.62525,0,19.8151,236,5,
4231.56,3.55743,9.62525,0,19.8151,236,5,
4231.56,3.55438,9.62525,0,19.8151,236,5,
4231.56,3.55255,9.6283,0,19.8151,236,5,
4231.56,3.55286,9.6283,0,19.8151,236,5,
4231.56,3.54828,9.62982,0,19.8151,236,5,
4231.57,3.54797,9.62677,0,19.8151,236,5,
4231.57,3.54279,9.62677,0,19.8151,236,5,
4231.57,3.54309,9.62525,0,19.8151,236,5,
4231.57,3.53851,9.6283,0,19.8151,236,5,
4231.57,3.53851,9.62677,0,19.8151,236,5,
4231.58,3.53516,9.62525,0,19.8151,236,5,
4231.58,3.53302,9.62677,0,19.8151,236,5,
4231.58,3.53302,9.62677,0,19.8151,236,5,
4231.58,3.52875,9.6283,0,19.8151,236,5,
4231.58,3.52844,9.6283,0,19.8151,236,5,
4231.59,3.52325,9.62525,0,19.8151,236,5,
4231.59,3.52417,9.62677,0,19.8151,236,5,
4231.59,3.51898,9.62982,0,19.8151,236,5,
4231.59,3.51868,9.6283,0,19.8151,236,5,
4231.59,3.51349,9.6283,0,19.8151,236,5,
4231.6,3.5141,9.62525,0,19.8151,236,5,
4231.6,3.51074,9.62525,0,19.8151,236,5,
4231.6,3.50891,9.62525,0,19.8151,236,5,
4231.6,3.50769,9.62372,0,19.8151,236,5,
4231.6,3.50403,9.62525,0,19.8151,236,5,
4231.61,3.50403,9.62525,0,19.8151,236,5,
4231.61,3.49915,9.62677,0,19.8151,236,5,
4231.61,3.49915,9.62982,0,19.8151,236,5,
4231.61,3.49365,9.62372,0,19.8151,236,5,
4231.61,3.49426,9.62677,0,19.8151,236,5,
4231.62,3.4906,9.6283,0,19.8151,236,5,
4231.62,3.48907,9.62677,0,19.8151,236,5,
4231.62,3.48602,9.62677,0,19.8151,236,5,
4231.62,3.48419,9.6283,0,19.8151,236,5,
4231.62,3.48145,9.6283,0,19.8151,236,5,
4231.63,3.48022,9.6283,0,19.8151,236,5,
4231.63,3.47961,9.62372,0,19.8151,236,5,
4231.63,3.47443,9.63135,0,19.8151,236,5,
4231.63,3.47382,9.62677,0,19.8151,236,5,
4231.63,3.46985,9.62982,0,19.8151,236,5,
4231.64,3.46924,9.62372,0,19.8151,236,5,
4231.64,3.46497,9.62677,0,19.8151,236,5,
4231.64,3.46497,9.62677,0,19.8151,236,5,
4231.64,3.45978,9.62677,0,19.8151,236,5,
4231.64,3.45978,9.6283,0,19.8151,236,5,
4231.65,3.45581,9.62677,0,19.8151,236,5,
4231.65,3.45459,9.62677,0,19.8151,236,5,
4231.65,3.45062,9.6283,0,19.8151,236,5,
4231.65,3.45001,9.6283,0,19.8151,236,5,
4231.65,3.44696,9.62677,0,19.8151,236,5,
4231.66,3.44482,9.62677,0,19.8151,236,5,
4231.66,3.44452,9.62372,0,19.8151,236,5,
4231.66,3.44055,9.6283,0,19.8151,236,5,
4231.66,3.44055,9.62525,0,19.8151,236,5,
4231.66,3.43597,9.64203,0,19.8151,236,5,
4231.67,3.43536,9.64356,0,19.8151,236,5,
4231.67,3.43079,9.63898,0,19.8151,236,5,
4231.67,3.43109,9.63745,0,19.8151,236,5,
4231.67,3.4259,9.6405,0,19.8151,236,5,
4231.67,3.42529,9.63898,0,19.8151,236,5,
4231.68,3.42102,9.63898,0,19.8151,236,5,
4231.68,3.4201,9.6405,0,19.8151,236,5,
4231.68,3.41766,9.64203,0,19.8151,236,5,
4231.68,3.41614,9.6405,0,19.8151,236,5,
4231.68,3.41492,9.63898,0,19.8151,236,5,
4231.69,3.41064,9.63898,0,19.8151,236,5,
4231.69,3.41034,9.63898,0,19.8151,236,5,
4231.69,3.40607,9.64356,0,19.8151,236,5,
4231.69,3.40546,9.6405,0,19.8151,236,5,
4231.69,3.40027,9.64203,0,19.8151,236,5,
4231.7,3.40118,9.63745,0,19.8151,236,5,
4231.7,3.39691,9.6405,0,19.8151,236,5,
4231.7,3.39661,9.64203,0,19.8151,236,5,
4231.7,3.39172,9.63898,0,19.8151,236,5,
4231.7,3.38623,9.64203,0,19.8151,236,5,
4231.71,3.38654,9.63898,0,19.8151,236,5,
4231.71,3.38165,9.6405,0,19.8151,236,5,
4231.71,3.38135,9.63898,0,19.8151,236,5,
4231.71,3.37891,9.64203,0,19.8151,236,5,
4231.71,3.37677,9.64203,0,19.8151,236,5,
4231.72,3.37646,9.64203,0,19.8151,236,5,
4231.72,3.37128,9.63745,0,19.8151,236,5,
4231.72,3.37219,9.63745,0,19.8151,236,5,
4231.72,3.36639,9.63898,0,19.8151,236,5,
4231.72,3.3667,9.63593,0,19.8151,236,5,
4231.73,3.36212,9.63745,0,19.8151,236,5,
4231.73,3.36182,9.63898,0,19.8151,236,5,
4231.73,3.35785,9.6405,0,19.8151,236,5,
4231.73,3.35663,9.6405,0,19.8151,236,5,
4231.73,3.35724,9.6405,0,19.8151,236,5,
4231.74,3.35175,9.6405,0,19.8151,236,5,
4231.74,3.35266,9.63745,0,19.8151,236,5,
4231.74,3.34747,9.63745,0,19.8151,236,5,
4231.74,3.34686,9.63898,0,19.8151,236,5,
4231.74,3.34412,9.6405,0,19.8151,236,5,
4231.75,3.34229,9.6405,0,19.8151,236,5,
4231.75,3.34167,9.63898,0,19.8151,236,5,
4231.75,3.3371,9.6405,0,19.8151,236,5,
4231.75,3.3374,9.6405,0,19.8151,236,5,
4231.75,3.33221,9.6405,0,19.8151,236,5,
4231.76,3.33252,9.63898,0,19.8151,236,5,
4231.76,3.32947,9.64508,0,19.8151,236,5,
4231.76,3.32794,9.6405,0,19.8151,236,5,
4231.76,3.32764,9.63745,0,19.8151,236,5,
4231.76,3.32184,9.6405,0,19.8151,236,5,
4231.77,3.32306,9.63898,0,19.8151,236,5,
4231.77,3.31848,9.63745,0,19.8151,236,5,
4231.77,3.31818,9.6405,0,19.8151,236,5,
4231.77,3.31482,9.63898,0,19.8151,236,5,
4231.77,3.31329,9.63745,0,19.8151,236,5,
4231.78,3.31329,9.63898,0,19.8151,236,5,
4231.78,3.30841,9.63898,0,19.8151,236,5,
4231.78,3.3078,9.6405,0,19.8151,236,5,
4231.78,3.30292,9.64356,0,19.8151,236,5,
4231.78,3.30322,9.64203,0,19.8151,236,5,
4231.79,3.30261,9.63898,0,19.8151,236,5,
4231.79,3.29834,9.6405,0,19.8151,236,5,
4231.79,3.29803,9.63745,0,19.8151,236,5,
4231.79,3.29407,9.6405,0,19.8151,236,5,
4231.79,3.29285,9.63745,0,19.8151,236,5,
4231.8,3.2901,9.64356,0,19.8151,236,5,
4231.8,3.28827,9.63898,0,19.8151,236,5,
4231.8,3.28796,9.63898,0,19.8151,236,5,
4231.8,3.28369,9.6405,0,19.8151,236,5,
4231.8,3.284,9.63898,0,19.8151,236,5,
4231.81,3.28003,9.64203,0,19.8151,236,5,
4231.81,3.2782,9.6405,0,19.8151,236,5,
4231.81,3.2782,9.6405,0,19.8151,236,5,
4231.81,3.27362,9.63745,0,19.8151,236,5,
4231.81,3.27362,9.63898,0,19.8151,236,5,
4231.82,3.26965,9.63898,0,19.8151,236,5,
4231.82,3.26874,9.6405,0,19.8151,236,5,
4231.82,3.26813,9.63745,0,19.8151,236,5,
4231.82,3.26385,9.64203,0,19.8151,236,5,
4231.82,3.26355,9.6405,0,19.8151,236,5,
4231.83,3.25897,9.6405,0,19.8151,236,5,
4231.83,3.25867,9.63593,0,19.8151,236,5,
4231.83,3.25592,9.63898,0,19.8151,236,5,
4231.83,3.25409,9.63898,0,19.8151,236,5,
4231.83,3.25378,9.6405,0,19.8151,236,5,
4231.84,3.24921,9.6405,0,19.8151,236,5,
4231.84,3.2489,9.6405,0,19.8151,236,5,
4231.84,3.24463,9.64203,0,19.8151,236,5,
4231.84,3.24463,9.63898,0,19.8151,236,5,
4231.84,3.24432,9.63898,0,19.8151,236,5,
4231.85,3.23944,9.6405,0,19.8151,236,5,
4231.85,3.23944,9.64203,0,19.8151,236,5,
4231.85,3.23517,9.64203,0,19.8151,236,5,
4231.85,3.23456,9.6405,0,19.8151,236,5,
4231.85,3.2309,9.6405,0,19.8151,236,5,
4231.86,3.22968,9.63898,0,19.8151,236,5,
4231.86,3.22968,9.63898,0,19.8151,236,5,
4231.86,3.22479,9.64356,0,19.8151,236,5,
4231.86,3.22449,9.64203,0,19.8151,236,5,
4231.86,3.22144,9.63745,0,19.8151,236,5,
4231.87,3.2196,9.64203,0,19.8151,236,5,
4231.87,3.22052,9.63745,0,19.8151,236,5,
4231.87,3.21472,9.6405,0,19.8151,236,5,
4231.87,3.21472,9.63898,0,19.8151,236,5,
4231.87,3.20984,9.6405,0,19.8151,236,5,
4231.88,3.20953,9.64203,0,19.8151,236,5,
4231.88,3.20984,9.64203,0,19.8151,236,5,
4231.88,3.20526,9.63898,0,19.8151,236,5,
4231.88,3.20557,9.6405,0,19.8151,236,5,
4231.88,3.20007,9.6405,0,19.8151,236,5,
4231.89,3.20007,9.63898,0,19.8151,236,5,
4231.89,3.19733,9.64203,0,19.8151,236,5,
4231.89,3.19458,9.63898,0,19.8151,236,5,
4231.89,3.19519,9.63898,0,19.8151,236,5,
4231.89,3.19031,9.6405,0,19.8151,236,5,
4231.9,3.19031,9.63898,0,19.8151,236,5,
4231.9,3.18604,9.63898,0,19.8151,236,5,
4231.9,3.18512,9.6405,0,19.8151,236,5,
4231.9,3.18542,9.63898,0,19.8151,236,5,
4231.9,3.18268,9.6405,0,19.8151,236,5,
4231.91,3.17993,9.63745,0,19.8151,236,5,
4231.91,3.18085,9.63898,0,19.8151,236,5,
4231.91,3.17535,9.63898,0,19.8151,236,5,
4231.91,3.17596,9.63898,0,19.8151,236,5,
4231.91,3.17261,9.63745,0,19.8151,236,5,
4231.92,3.16986,9.6405,0,19.8151,236,5,
4231.92,3.17078,9.64203,0,19.8151,236,5,
4231.92,3.1662,9.63898,0,19.8151,236,5,
4231.92,3.16528,9.63745,0,19.8151,236,5,
4231.92,3.16254,9.63898,0,19.8151,236,5,
4231.93,3.16162,9.63898,0,19.8151,236,5,
4231.93,3.16132,9.64203,0,19.8151,236,5,
4231.93,3.15674,9.6405,0,19.8151,236,5,
4231.93,3.15613,9.63745,0,19.8151,236,5,
4231.93,3.15308,9.63745,0,19.8151,236,5,
4231.94,3.15247,9.63745,0,19.8151,236,5,
4231.94,3.15186,9.6405,0,19.8151,236,5,
4231.94,3.14697,9.63745,0,19.8151,236,5,
4231.94,3.14728,9.6405,0,19.8151,236,5,
4231.94,3.14423,9.63745,0,19.8151,236,5,
4231.95,3.1424,9.6405,0,19.8151,236,5,
4231.95,3.14209,9.63593,0,19.8151,236,5,
4231.95,3.13782,9.63745,0,19.8151,236,5,
4231.95,3.13721,9.6405,0,19.8151,236,5,
4231.95,3.13385,9.6405,0,19.8151,236,5,
4231.96,3.13202,9.63898,0,19.8151,236,5,
4231.96,3.13171,9.63898,0,19.8151,236,5,
4231.96,3.12744,9.63898,0,19.8151,236,5,
4231.96,3.12714,9.6405,0,19.8151,236,5,
4231.96,3.12622,9.64203,0,19.8151,236,5,
4231.97,3.12164,9.63898,0,19.8151,236,5,
4231.97,3.12195,9.64203,0,19.8151,236,5,
4231.97,3.11737,9.63745,0,19.8151,236,5,
4231.97,3.11707,9.63898,0,19.8151,236,5,
4231.97,3.11676,9.64203,0,19.8151,236,5,
4231.98,3.11646,9.64203,0,19.8151,236,5,
4231.98,3.11676,9.63898,0,19.8151,236,5,
4231.98,3.1131,9.6405,0,19.8151,236,5,
4231.98,3.10883,9.63745,0,19.8151,236,5,
4231.98,3.10699,9.64356,0,19.8151,236,5,
4231.99,3.1073,9.6405,0,19.8151,236,5,
4231.99,3.10181,9.63593,0,19.8151,236,5,
4231.99,3.10211,9.63898,0,19.8151,236,5,
4231.99,3.10242,9.63593,0,19.8151,236,5,
4231.99,3.09753,9.64203,0,19.8151,236,5,
4232,3.09723,9.6405,0,19.8151,236,5,
4232,3.09387,9.63898,0,19.8151,236,5,
4232,3.09235,9.64203,0,19.8151,236,5,
4232,3.09235,9.6405,0,19.8151,236,5,
4232,3.08807,9.63898,0,19.8151,236,5,
4232.01,3.08685,9.63898,0,19.8151,236,5,
4232.01,3.08746,9.6405,0,19.8151,236,5,
4232.01,3.08228,9.63898,0,19.8151,236,5,
4232.01,3.08258,9.64203,0,19.8151,236,5,
4232.01,3.08197,9.63898,0,19.8151,236,5,
4232.02,3.07861,9.6405,0,19.8151,236,5,
4232.02,3.078,9.64356,0,19.8151,236,5,
4232.02,3.07739,9.64356,0,19.8151,236,5,
4232.02,3.07709,9.63745,0,19.8151,236,5,
4232.02,3.07831,9.64203,0,19.8151,236,5,
4232.03,3.07739,9.64203,0,19.8151,236,5,
4232.03,3.07739,9.63898,0,19.8151,236,5,
4232.03,3.07739,9.6405,0,19.8151,236,5,
4232.03,3.07739,9.63898,0,19.8151,236,5,
4232.03,3.0777,9.63898,0,19.8151,236,5,
4232.04,3.0777,9.6405,0,19.8151,236,5,
4232.04,3.0777,9.63135,0,19.8151,236,5,
4232.04,3.078,9.62677,0,19.8151,236,5,
4232.04,3.0777,9.62677,0,19.8151,236,5,
4232.04,3.07739,9.62677,0,19.8151,236,5,
4232.05,3.078,9.62372,0,19.8151,236,5,
4232.05,3.07495,9.62677,0,19.8151,236,5,
4232.05,3.0484,9.62525,3.456,19.8151,236,5,
4232.05,3.04749,9.6283,3.456,19.8151,236,5,
4232.05,3.04352,9.62982,3.456,19.8151,236,5,
4232.06,3.04352,9.62677,3.456,19.8151,236,5,
4232.06,3.04047,9.62372,3.456,19.8151,236,5,
4232.06,3.03864,9.62677,3.456,19.8151,236,5,
4232.06,3.03955,9.62677,3.456,19.8151,236,5,
4232.06,3.03558,9.62372,3.456,19.8151,236,5,
4232.07,3.03345,9.62677,3.456,19.8151,236,5,
4232.07,3.03375,9.62677,3.456,19.8151,236,5,
4232.07,3.02979,9.62982,3.456,19.8151,236,5,
4232.07,3.02887,9.6283,3.456,19.8151,236,5,
4232.07,3.02887,9.62677,3.456,19.8151,236,5,
4232.08,3.0246,9.6283,3.456,19.8151,236,5,
4232.08,3.02429,9.6283,3.456,19.8151,236,5,
4232.08,3.02429,9.6283,3.456,19.8151,236,5,
4232.08,3.0188,9.62525,3.456,19.8151,236,5,
4232.08,3.0191,9.62677,3.456,19.8151,236,5,
4232.09,3.0188,9.62982,3.456,19.8151,236,5,
4232.09,3.01361,9.6283,3.456,19.8151,236,5,
4232.09,3.01453,9.62525,3.456,19.8151,236,5,
4232.09,3.01483,9.62525,3.456,19.8151,236,5,
4232.09,3.00934,9.6283,3.456,19.8151,236,5,
4232.1,3.00934,9.62677,3.456,19.8151,236,5,
4232.1,3.00903,9.62982,3.456,19.8151,236,5,
4232.1,3.00415,9.6283,3.456,19.8151,236,5,
4232.1,3.00354,9.62982,3.456,19.8151,236,5,
4232.1,3.00446,9.62677,3.456,19.8151,236,5,
4232.11,2.99957,9.62525,3.456,19.8151,236,5,
4232.11,2.99927,9.62525,3.456,19.8151,236,5,
4232.11,2.99927,9.62525,3.456,19.8151,236,5,
4232.11,2.99469,9.62677,3.456,19.8151,236,5,
4232.11,2.99469,9.6283,3.456,19.8151,236,5,
4232.12,2.99011,9.62372,3.456,19.8151,236,5,
4232.12,2.99011,9.6283,3.456,19.8151,236,5,
4232.12,2.99011,9.62677,3.456,19.8151,236,5,
4232.12,2.98492,9.6283,3.456,19.8151,236,5,
4232.12,2.98492,9.6283,3.456,19.8151,236,5,
4232.13,2.98553,9.62677,3.456,19.8151,236,5,
4232.13,2.98065,9.62677,3.456,19.8151,236,5,
4232.13,2.98035,9.62677,3.456,19.8151,236,5,
4232.13,2.98004,9.62677,3.456,19.8151,236,5,
4232.13,2.97577,9.6283,3.456,19.8151,236,5,
4232.14,2.97516,9.62525,3.456,19.8151,236,5,
4232.14,2.97546,9.62677,3.456,19.8151,236,5,
4232.14,2.9718,9.62677,3.456,19.8151,236,5,
4232.14,2.97058,9.6283,3.456,19.8151,236,5,
4232.14,2.97058,9.6283,3.456,19.8151,236,5,
4232.15,2.96753,9.6283,3.456,19.8151,236,5,
4232.15,2.96448,9.62982,3.456,19.8151,236,5,
4232.15,2.96539,9.62677,3.456,19.8151,236,5,
4232.15,2.96539,9.62525,3.456,19.8151,236,5,
4232.15,2.96082,9.62525,3.456,19.8151,236,5,
4232.16,2.96021,9.6283,3.456,19.8151,236,5,
4232.16,2.96021,9.62982,3.456,19.8151,236,5,
4232.16,2.95563,9.6283,3.456,19.8151,236,5,
4232.16,2.95532,9.62525,3.456,19.8151,236,5,
4232.16,2.95593,9.62525,3.456,19.8151,236,5,
4232.17,2.95044,9.6283,3.456,19.8151,236,5,
4232.17,2.95044,9.6283,3.456,19.8151,236,5,
4232.17,2.95074,9.6283,3.456,19.8151,236,5,
4232.17,2.94739,9.6283,3.456,19.8151,236,5,
4232.17,2.94617,9.62372,3.456,19.8151,236,5,
4232.18,2.94556,9.63135,3.456,19.8151,236,5,
4232.18,2.94525,9.62677,3.456,19.8151,236,5,
4232.18,2.94037,9.62525,3.456,19.8151,236,5,
4232.18,2.94098,9.62677,3.456,19.8151,236,5,
4232.18,2.94098,9.62525,3.456,19.8151,236,5,
4232.19,2.93579,9.62677,3.456,19.8151,236,5,
4232.19,2.93579,9.62525,3.456,19.8151,236,5,
4232.19,2.93549,9.62372,3.456,19.8151,236,5,
4232.19,2.93121,9.62677,3.456,19.8151,236,5,
4232.19,2.9303,9.62372,3.456,19.8151,236,5,
4232.2,2.93091,9.62525,3.456,19.8151,236,5,
4232.2,2.92725,9.62525,3.456,19.8151,236,5,
4232.2,2.92603,9.62677,3.456,19.8151,236,5,
4232.2,2.92633,9.62525,3.456,19.8151,236,5,
4232.2,2.92297,9.62677,3.456,19.8151,236,5,
4232.21,2.92114,9.62372,3.456,19.8151,236,5,
4232.21,2.92206,9.62677,3.456,19.8151,236,5,
4232.21,2.92023,9.62525,3.456,19.8151,236,5,
4232.21,2.91565,9.62525,3.456,19.8151,236,5,
4232.21,2.91626,9.62677,3.456,19.8151,236,5,
4232.22,2.91534,9.62677,3.456,19.8151,236,5,
4232.22,2.91107,9.62525,3.456,19.8151,236,5,
4232.22,2.91046,9.61762,3.456,19.8151,236,5,
4232.22,2.91077,9.61456,3.456,19.8151,236,5,
4232.22,2.90558,9.61456,3.456,19.8151,236,5,
4232.23,2.90588,9.61456,3.456,19.8151,236,5,
4232.23,2.90619,9.61456,3.456,19.8151,236,5,
4232.23,2.90131,9.61609,3.456,19.8151,236,5,
4232.23,2.90161,9.61456,3.456,19.8151,236,5,
4232.23,2.90161,9.61762,3.456,19.8151,236,5,
4232.24,2.89612,9.61762,3.456,19.8151,236,5,
4232.24,2.89703,9.61456,3.456,19.8151,236,5,
4232.24,2.89673,9.61151,3.456,19.8151,236,5,
4232.24,2.89124,9.61609,3.456,19.8151,236,5,
4232.24,2.89185,9.61609,3.456,19.8151,236,5,
4232.25,2.89154,9.61609,3.456,19.8151,236,5,
4232.25,2.88727,9.61609,3.456,19.8151,236,5,
4232.25,2.88666,9.61456,3.456,19.8151,236,5,
4232.25,2.88666,9.61456,3.456,19.8151,236,5,
4232.25,2.88147,9.61609,3.456,19.8151,236,5,
4232.26,2.88177,9.61456,3.456,19.8151,236,5,
4232.26,2.88239,9.61762,3.456,19.8151,236,5,
4232.26,2.87689,9.61762,3.456,19.8151,236,5,
4232.26,2.8772,9.61609,3.456,19.8151,236,5,
4232.26,2.87659,9.61304,3.456,19.8151,236,5,
4232.27,2.87231,9.61456,3.456,19.8151,236,5,
4232.27,2.8717,9.61609,3.456,19.8151,236,5,
4232.27,2.8714,9.61304,3.456,19.8151,236,5,
4232.27,2.86743,9.61762,3.456,19.8151,236,5,
4232.27,2.86682,9.61762,3.456,19.8151,236,5,
4232.28,2.86652,9.60999,3.456,19.8151,236,5,
4232.28,2.86285,9.61609,3.456,19.8151,236,5,
4232.28,2.86194,9.61456,3.456,19.8151,236,5,
4232.28,2.86285,9.61151,3.456,19.8151,236,5,
4232.28,2.85889,9.61456,3.456,19.8151,236,5,
4232.29,2.85706,9.61456,3.456,19.8151,236,5,
4232.29,2.85706,9.61762,3.456,19.8151,236,5,
4232.29,2.854,9.61304,3.456,19.8151,236,5,
4232.29,2.85217,9.61304,3.456,19.8151,236,5,
4232.29,2.85278,9.61456,3.456,19.8151,236,5,
4232.3,2.85187,9.61304,3.456,19.8151,236,5,
4232.3,2.8479,9.61609,3.456,19.8151,236,5,
4232.3,2.8479,9.61609,3.456,19.8151,236,5,
4232.3,2.84668,9.61762,3.456,19.8151,236,5,
4232.3,2.8418,9.61762,3.456,19.8151,236,5,
4232.31,2.84271,9.61609,3.456,19.8151,236,5,
4232.31,2.84241,9.61456,3.456,19.8151,236,5,
4232.31,2.83844,9.61456,3.456,19.8151,236,5,
4232.31,2.83783,9.61609,3.456,19.8151,236,5,
4232.31,2.83752,9.61304,3.456,19.8151,236,5,
4232.32,2.83783,9.61456,3.456,19.8151,236,5,
4232.32,2.83752,9.61609,3.456,19.8151,236,5,
4232.32,2.83234,9.61304,3.456,19.8151,236,5,
4232.32,2.83264,9.61609,3.456,19.8151,236,5,
4232.32,2.83356,9.61304,3.456,19.8151,236,5,
4232.33,2.8302,9.61609,3.456,19.8151,236,5,
4232.33,2.82776,9.61151,3.456,19.8151,236,5,
4232.33,2.82776,9.61609,3.456,19.8151,236,5,
4232.33,2.82806,9.61304,3.456,19.8151,236,5,
4232.33,2.82288,9.60388,3.456,19.8151,236,5,
4232.34,2.82349,9.60083,3.456,19.8151,236,5,
4232.34,2.82288,9.60236,3.456,19.8151,236,5,
4232.34,2.82257,9.60236,3.456,19.8151,236,5,
4232.34,2.8183,9.59778,3.456,19.8151,236,5,
