3900-SECPT.acq
2 msec/sample
6 channels
RSP, X, RSPEC-R
Volts
EDA, Y, PPGED-R
microsiemens
ECG R-R
Seconds
Respiration Rate
BPM
C7 - EDR
Peaks
C14 - Control
Volts
min,CH1,CH14,CH40,CH42,CH47,CH54,
,90386,90386,90386,90386,90386,90386,
67.9156,-4.47723,9.1507,1.206,7.3928,304,5,
67.9157,-4.48212,9.14917,1.206,7.3928,304,5,
67.9157,-4.48822,9.15222,1.206,7.3928,304,5,
67.9157,-4.49615,9.14765,1.206,7.3928,304,5,
67.9158,-4.49982,9.14917,1.206,7.3928,304,5,
67.9158,-4.50653,9.15375,1.206,7.3928,304,5,
67.9158,-4.51141,9.14917,1.206,7.3928,304,5,
67.9159,-4.5163,9.14765,1.206,7.3928,304,5,
67.9159,-4.52179,9.14917,1.206,7.3928,304,5,
67.9159,-4.52667,9.1507,1.206,7.3928,304,5,
67.916,-4.53217,9.14307,1.206,7.3928,304,5,
67.916,-4.53644,9.13696,1.206,7.3928,304,5,
67.916,-4.54163,9.13849,1.206,7.3928,304,5,
67.9161,-4.54651,9.13696,1.206,7.3928,304,5,
67.9161,-4.55139,9.14154,1.206,7.3928,304,5,
67.9161,-4.55566,9.13849,1.206,7.3928,304,5,
67.9162,-4.55994,9.13696,1.206,7.3928,304,5,
67.9162,-4.56573,9.13849,1.206,7.3928,304,5,
67.9162,-4.5694,9.13849,1.206,7.3928,304,5,
67.9163,-4.5752,9.13849,1.206,7.3928,304,5,
67.9163,-4.57855,9.13849,1.206,7.3928,304,5,
67.9163,-4.58069,9.14154,1.206,7.3928,304,5,
67.9164,-4.58496,9.14002,1.206,7.3928,304,5,
67.9164,-4.58984,9.13849,1.206,7.3928,304,5,
67.9164,-4.59473,9.13696,1.206,7.3928,304,5,
67.9165,-4.59869,9.13696,1.206,7.3928,304,5,
67.9165,-4.59991,9.14002,1.206,7.3928,304,5,
67.9165,-4.60449,9.14154,1.206,7.3928,304,5,
67.9166,-4.60815,9.13544,1.206,7.3928,304,5,
67.9166,-4.60999,9.13849,1.206,7.3928,304,5,
67.9166,-4.61487,9.13544,1.206,7.3928,304,5,
67.9167,-4.61792,9.14002,1.206,7.3928,304,5,
67.9167,-4.61975,9.14002,1.206,7.3928,304,5,
67.9167,-4.62402,9.13849,1.206,7.3928,304,5,
67.9168,-4.62402,9.14002,1.206,7.3928,304,5,
67.9168,-4.63013,9.13544,1.206,7.3928,304,5,
67.9168,-4.62982,9.13696,1.206,7.3928,304,5,
67.9169,-4.63379,9.14154,1.206,7.3928,304,5,
67.9169,-4.63776,9.13544,1.206,7.3928,304,5,
67.9169,-4.63959,9.13696,1.206,7.3928,304,5,
67.917,-4.64294,9.13696,1.206,7.3928,304,5,
67.917,-4.64355,9.13849,1.206,7.3928,304,5,
67.917,-4.64447,9.14154,1.206,7.3928,304,5,
67.9171,-4.64935,9.13849,1.206,7.3928,304,5,
67.9171,-4.64966,9.13696,1.206,7.3928,304,5,
67.9171,-4.65332,9.13696,1.206,7.3928,304,5,
67.9172,-4.65424,9.13849,1.206,7.3928,304,5,
67.9172,-4.65851,9.14002,1.206,7.3928,304,5,
67.9172,-4.65881,9.13544,1.206,7.3928,304,5,
67.9173,-4.65912,9.13544,1.206,7.3928,304,5,
67.9173,-4.664,9.13696,1.206,7.3928,304,5,
67.9173,-4.6637,9.13849,1.206,7.3928,304,5,
67.9174,-4.66675,9.13696,1.206,7.3928,304,5,
67.9174,-4.66888,9.13849,1.206,7.3928,304,5,
67.9174,-4.66919,9.13696,1.206,7.3928,304,5,
67.9175,-4.67377,9.14002,1.206,7.3928,304,5,
67.9175,-4.67346,9.13696,1.206,7.3928,304,5,
67.9175,-4.67377,9.13849,1.206,7.3928,304,5,
67.9176,-4.67865,9.13696,1.206,7.3928,304,5,
67.9176,-4.67896,9.13849,1.206,7.3928,304,5,
67.9176,-4.67834,9.13544,1.206,7.3928,304,5,
67.9177,-4.67926,9.13696,1.206,7.3928,304,5,
67.9177,-4.68353,9.13849,1.206,7.3928,304,5,
67.9177,-4.68323,9.13696,1.206,7.3928,304,5,
67.9178,-4.68353,9.13696,1.206,7.3928,304,5,
67.9178,-4.68781,9.14002,1.206,7.3928,304,5,
67.9178,-4.68811,9.13696,1.206,7.3928,304,5,
67.9179,-4.68842,9.13849,1.206,7.3928,304,5,
67.9179,-4.68781,9.14002,1.206,7.3928,304,5,
67.9179,-4.69238,9.13696,1.206,7.3928,304,5,
67.918,-4.6933,9.13544,1.206,7.3928,304,5,
67.918,-4.6936,9.13696,1.206,7.3928,304,5,
67.918,-4.6933,9.13849,1.206,7.3928,304,5,
67.9181,-4.69788,9.13391,1.206,7.3928,304,5,
67.9181,-4.69788,9.14002,1.206,7.3928,304,5,
67.9181,-4.69818,9.14002,1.206,7.3928,304,5,
67.9182,-4.69849,9.13849,1.206,7.3928,304,5,
67.9182,-4.70337,9.14002,1.206,7.3928,304,5,
67.9182,-4.70306,9.13696,1.206,7.3928,304,5,
67.9183,-4.70306,9.13696,1.206,7.3928,304,5,
67.9183,-4.70306,9.13849,1.206,7.3928,304,5,
67.9183,-4.70703,9.13849,1.206,7.3928,304,5,
67.9184,-4.70764,9.13849,1.206,7.3928,304,5,
67.9184,-4.70764,9.14154,1.206,7.3928,304,5,
67.9184,-4.70825,9.13849,1.206,7.3928,304,5,
67.9185,-4.71283,9.13696,1.206,7.3928,304,5,
67.9185,-4.71283,9.13849,1.206,7.3928,304,5,
67.9185,-4.71222,9.13696,1.206,7.3928,304,5,
67.9186,-4.71344,9.13544,1.206,7.3928,304,5,
67.9186,-4.71741,9.13849,1.206,7.3928,304,5,
67.9186,-4.71771,9.13849,1.206,7.3928,304,5,
67.9187,-4.71802,9.13849,1.206,7.3928,304,5,
67.9187,-4.72107,9.13849,1.206,7.3928,304,5,
67.9187,-4.72229,9.13849,1.206,7.3928,304,5,
67.9188,-4.72198,9.13696,1.206,7.3928,304,5,
67.9188,-4.72198,9.13696,1.206,7.3928,304,5,
67.9188,-4.72748,9.14002,1.206,7.3928,304,5,
67.9189,-4.72778,9.13849,1.206,7.3928,304,5,
67.9189,-4.72687,9.13544,1.206,7.3928,304,5,
67.9189,-4.73083,9.14307,1.206,7.3928,304,5,
67.919,-4.73206,9.13391,1.206,7.3928,304,5,
67.919,-4.73297,9.14002,1.206,7.3928,304,5,
67.919,-4.73145,9.13391,1.206,7.3928,304,5,
67.9191,-4.73694,9.13696,1.206,7.3928,304,5,
67.9191,-4.73694,9.13849,1.206,7.3928,304,5,
67.9191,-4.73755,9.13849,1.206,7.3928,304,5,
67.9192,-4.7403,9.13849,1.206,7.3928,304,5,
67.9192,-4.74182,9.14002,1.206,7.3928,304,5,
67.9192,-4.74213,9.13849,1.206,7.3928,304,5,
67.9193,-4.74213,9.14154,1.206,7.3928,304,5,
67.9193,-4.7464,9.13696,1.206,7.3928,304,5,
67.9193,-4.74701,9.14002,1.206,7.3928,304,5,
67.9194,-4.74701,9.13849,1.206,7.3928,304,5,
67.9194,-4.75037,9.13391,1.206,7.3928,304,5,
67.9194,-4.75159,9.14002,1.206,7.3928,304,5,
67.9195,-4.75159,9.13849,1.206,7.3928,304,5,
67.9195,-4.75281,9.14154,1.206,7.3928,304,5,
67.9195,-4.75677,9.14154,1.206,7.3928,304,5,
67.9196,-4.75708,9.13696,1.206,7.3928,304,5,
67.9196,-4.75708,9.13849,1.206,7.3928,304,5,
67.9196,-4.76196,9.14002,1.206,7.3928,304,5,
67.9197,-4.76196,9.14002,1.206,7.3928,304,5,
67.9197,-4.76196,9.13391,1.206,7.3928,304,5,
67.9197,-4.76654,9.13544,1.206,7.3928,304,5,
67.9198,-4.76654,9.13696,1.206,7.3928,304,5,
67.9198,-4.76715,9.13849,1.206,7.3928,304,5,
67.9198,-4.76746,9.13696,1.206,7.3928,304,5,
67.9199,-4.77203,9.13849,1.206,7.3928,304,5,
67.9199,-4.77173,9.14154,1.206,7.3928,304,5,
67.9199,-4.77142,9.13849,1.206,7.3928,304,5,
67.92,-4.77661,9.13849,1.206,7.3928,304,5,
67.92,-4.77661,9.14154,1.206,7.3928,304,5,
67.92,-4.77631,9.13849,1.206,7.3928,304,5,
67.9201,-4.78088,9.13849,1.206,7.3928,304,5,
67.9201,-4.78149,9.14002,1.206,7.3928,304,5,
67.9201,-4.78088,9.13849,1.206,7.3928,304,5,
67.9202,-4.78424,9.13849,1.206,7.3928,304,5,
67.9202,-4.78668,9.13696,1.206,7.3928,304,5,
67.9202,-4.78638,9.13849,1.206,7.3928,304,5,
67.9203,-4.78729,9.13391,1.206,7.3928,304,5,
67.9203,-4.79095,9.13849,1.206,7.3928,304,5,
67.9203,-4.79126,9.14154,1.206,7.3928,304,5,
67.9204,-4.79156,9.13544,1.206,7.3928,304,5,
67.9204,-4.79645,9.13696,1.206,7.3928,304,5,
67.9204,-4.79584,9.13849,1.206,7.3928,304,5,
67.9205,-4.79614,9.14154,1.206,7.3928,304,5,
67.9205,-4.80072,9.13849,1.206,7.3928,304,5,
67.9205,-4.80103,9.13849,1.206,7.3928,304,5,
67.9206,-4.80042,9.13696,1.206,7.3928,304,5,
67.9206,-4.80072,9.14002,1.206,7.3928,304,5,
67.9206,-4.80652,9.14154,1.206,7.3928,304,5,
67.9207,-4.8056,9.13849,1.206,7.3928,304,5,
67.9207,-4.80591,9.14002,1.206,7.3928,304,5,
67.9207,-4.81079,9.13849,1.206,7.3928,304,5,
67.9208,-4.8111,9.14002,1.206,7.3928,304,5,
67.9208,-4.8111,9.13849,1.206,7.3928,304,5,
67.9208,-4.81445,9.13544,1.206,7.3928,304,5,
67.9209,-4.81567,9.12476,1.206,7.3928,304,5,
67.9209,-4.81628,9.12171,1.206,7.3928,304,5,
67.9209,-4.81537,9.12476,1.206,7.3928,304,5,
67.921,-4.82147,9.12476,1.206,7.3928,304,5,
67.921,-4.82117,9.12476,1.206,7.3928,304,5,
67.921,-4.82056,9.12933,1.206,7.3928,304,5,
67.9211,-4.82422,9.12628,1.206,7.3928,304,5,
67.9211,-4.82635,9.12933,1.206,7.3928,304,5,
67.9211,-4.82605,9.12628,1.206,7.3928,304,5,
67.9212,-4.82574,9.12628,1.206,7.3928,304,5,
67.9212,-4.83032,9.12171,1.206,7.3928,304,5,
67.9212,-4.83063,9.12781,1.206,7.3928,304,5,
67.9213,-4.83093,9.12781,1.206,7.3928,304,5,
67.9213,-4.83368,9.12476,1.206,7.3928,304,5,
67.9213,-4.8349,9.12476,1.206,7.3928,304,5,
67.9214,-4.83521,9.12476,1.206,7.3928,304,5,
67.9214,-4.83521,9.12476,1.206,7.3928,304,5,
67.9214,-4.83978,9.12628,1.206,7.3928,304,5,
67.9215,-4.8407,9.12476,1.206,7.3928,304,5,
67.9215,-4.84009,9.12476,1.206,7.3928,304,5,
67.9215,-4.84039,9.12628,1.206,7.3928,304,5,
67.9216,-4.84528,9.12476,1.206,7.3928,304,5,
67.9216,-4.84497,9.12628,1.206,7.3928,304,5,
67.9216,-4.84558,9.12476,1.206,7.3928,304,5,
67.9217,-4.84589,9.12476,1.206,7.3928,304,5,
67.9217,-4.84985,9.12476,1.206,7.3928,304,5,
67.9217,-4.85016,9.12476,1.206,7.3928,304,5,
67.9218,-4.84985,9.12933,1.206,7.3928,304,5,
67.9218,-4.85046,9.12628,1.206,7.3928,304,5,
67.9218,-4.85443,9.12476,1.206,7.3928,304,5,
67.9219,-4.85474,9.12628,1.206,7.3928,304,5,
67.9219,-4.85504,9.12476,1.206,7.3928,304,5,
67.9219,-4.85504,9.12323,1.206,7.3928,304,5,
67.922,-4.85901,9.12781,1.206,7.3928,304,5,
67.922,-4.85962,9.12933,1.206,7.3928,304,5,
67.922,-4.85962,9.12781,1.206,7.3928,304,5,
67.9221,-4.85931,9.12781,1.206,7.3928,304,5,
67.9221,-4.86389,9.12476,1.206,7.3928,304,5,
67.9221,-4.86389,9.12781,1.206,7.3928,304,5,
67.9222,-4.86389,9.12628,1.206,7.3928,304,5,
67.9222,-4.86389,9.12323,1.206,7.3928,304,5,
67.9222,-4.86908,9.12628,1.206,7.3928,304,5,
67.9223,-4.86938,9.12476,1.206,7.3928,304,5,
67.9223,-4.86938,9.12171,1.206,7.3928,304,5,
67.9223,-4.86969,9.12781,1.206,7.3928,304,5,
67.9224,-4.87305,9.12628,1.206,7.3928,304,5,
67.9224,-4.87457,9.12476,1.206,7.3928,304,5,
67.9224,-4.87396,9.12781,1.206,7.3928,304,5,
67.9225,-4.87518,9.12323,1.206,7.3928,304,5,
67.9225,-4.87518,9.12476,1.206,7.3928,304,5,
67.9225,-4.87946,9.12628,1.206,7.3928,304,5,
67.9226,-4.88007,9.12781,1.206,7.3928,304,5,
67.9226,-4.87946,9.12476,1.206,7.3928,304,5,
67.9226,-4.87976,9.12323,1.206,7.3928,304,5,
67.9227,-4.88098,9.12933,1.206,7.3928,304,5,
67.9227,-4.88464,9.12476,1.206,7.3928,304,5,
67.9227,-4.88434,9.12933,1.206,7.3928,304,5,
67.9228,-4.88495,9.12628,1.206,7.3928,304,5,
67.9228,-4.88403,9.12628,1.206,7.3928,304,5,
67.9228,-4.88556,9.12323,1.206,7.3928,304,5,
67.9229,-4.88983,9.12323,1.206,7.3928,304,5,
67.9229,-4.88922,9.12323,1.206,7.3928,304,5,
67.9229,-4.88861,9.12933,1.206,7.3928,304,5,
67.923,-4.88922,9.12628,1.206,7.3928,304,5,
67.923,-4.88983,9.12781,1.206,7.3928,304,5,
67.923,-4.8941,9.12476,1.206,7.3928,304,5,
67.9231,-4.8938,9.12628,1.206,7.3928,304,5,
67.9231,-4.8938,9.12323,1.206,7.3928,304,5,
67.9231,-4.89441,9.12628,1.206,7.3928,304,5,
67.9232,-4.89349,9.12628,1.206,7.3928,304,5,
67.9232,-4.89868,9.12628,1.206,7.3928,304,5,
67.9232,-4.89838,9.12628,1.206,7.3928,304,5,
67.9233,-4.89899,9.12476,1.206,7.3928,304,5,
67.9233,-4.89838,9.12628,1.206,7.3928,304,5,
67.9233,-4.89929,9.12933,1.206,7.3928,304,5,
67.9234,-4.89868,9.12628,1.206,7.3928,304,5,
67.9234,-4.90387,9.12781,1.206,7.3928,304,5,
67.9234,-4.90356,9.12476,1.206,7.3928,304,5,
67.9235,-4.90417,9.12476,1.206,7.3928,304,5,
67.9235,-4.90417,9.12323,1.206,7.3928,304,5,
67.9235,-4.90356,9.12628,1.206,7.3928,304,5,
67.9236,-4.90387,9.12781,1.206,7.3928,304,5,
67.9236,-4.90875,9.12628,1.206,7.3928,304,5,
67.9236,-4.90875,9.12781,1.206,7.3928,304,5,
67.9237,-4.90845,9.12781,1.206,7.3928,304,5,
67.9237,-4.90906,9.12476,1.206,7.3928,304,5,
67.9237,-4.90875,9.12323,1.206,7.3928,304,5,
67.9238,-4.90845,9.12628,1.206,7.3928,304,5,
67.9238,-4.90967,9.12781,1.206,7.3928,304,5,
67.9238,-4.91364,9.12628,1.206,7.3928,304,5,
67.9239,-4.91364,9.12476,1.206,7.3928,304,5,
67.9239,-4.91333,9.12323,1.206,7.3928,304,5,
67.9239,-4.91364,9.12628,1.206,7.3928,304,5,
67.924,-4.91364,9.12933,1.206,7.3928,304,5,
67.924,-4.91364,9.12476,1.206,7.3928,304,5,
67.924,-4.91364,9.12628,1.206,7.3928,304,5,
67.9241,-4.91852,9.12781,1.206,7.3928,304,5,
67.9241,-4.91882,9.12476,1.206,7.3928,304,5,
67.9241,-4.91821,9.12476,1.206,7.3928,304,5,
67.9242,-4.91882,9.12476,1.206,7.3928,304,5,
67.9242,-4.91852,9.12476,1.206,7.3928,304,5,
67.9242,-4.91852,9.12628,1.206,7.3928,304,5,
67.9243,-4.91852,9.12323,1.206,7.3928,304,5,
67.9243,-4.91852,9.12476,1.206,7.3928,304,5,
67.9243,-4.92249,9.12323,1.206,7.3928,304,5,
67.9244,-4.9234,9.12781,1.206,7.3928,304,5,
67.9244,-4.92218,9.12323,1.206,7.3928,304,5,
67.9244,-4.92279,9.12933,1.206,7.3928,304,5,
67.9245,-4.9231,9.12781,1.206,7.3928,304,5,
67.9245,-4.9231,9.12628,1.206,7.3928,304,5,
67.9245,-4.92279,9.12628,1.206,7.3928,304,5,
67.9246,-4.92401,9.12171,1.206,7.3928,304,5,
67.9246,-4.92706,9.12933,1.206,7.3928,304,5,
67.9246,-4.92767,9.12628,1.206,7.3928,304,5,
67.9247,-4.92767,9.12628,1.206,7.3928,304,5,
67.9247,-4.92767,9.12781,1.206,7.3928,304,5,
67.9247,-4.92767,9.12628,1.206,7.3928,304,5,
67.9248,-4.92767,9.12323,1.206,7.3928,304,5,
67.9248,-4.92798,9.12323,1.206,7.3928,304,5,
67.9248,-4.92767,9.12476,1.206,7.3928,304,5,
67.9249,-4.93195,9.12933,1.206,7.3928,304,5,
67.9249,-4.93286,9.12476,1.206,7.3928,304,5,
67.9249,-4.93256,9.12323,1.206,7.3928,304,5,
67.925,-4.93286,9.12628,1.206,7.3928,304,5,
67.925,-4.93256,9.12476,1.206,7.3928,304,5,
67.925,-4.93225,9.12628,1.206,7.3928,304,5,
67.9251,-4.93256,9.12628,1.206,7.3928,304,5,
67.9251,-4.93256,9.12933,1.206,7.3928,304,5,
67.9251,-4.93286,9.12628,1.206,7.3928,304,5,
67.9252,-4.93713,9.12476,1.206,7.3928,304,5,
67.9252,-4.93744,9.14002,1.206,7.3928,304,5,
67.9252,-4.93744,9.13849,1.206,7.3928,304,5,
67.9253,-4.93927,9.13849,1.206,7.3928,304,5,
67.9253,-4.93774,9.13544,1.206,7.3928,304,5,
67.9253,-4.93744,9.14002,1.206,7.3928,304,5,
67.9254,-4.93744,9.14002,1.206,7.3928,304,5,
67.9254,-4.93744,9.13391,1.206,7.3928,304,5,
67.9254,-4.93774,9.13696,1.206,7.3928,304,5,
67.9255,-4.94232,9.14002,1.206,7.3928,304,5,
67.9255,-4.94324,9.13849,1.206,7.3928,304,5,
67.9255,-4.94232,9.13696,1.206,7.3928,304,5,
67.9256,-4.94293,9.13849,1.206,7.3928,304,5,
67.9256,-4.94293,9.13849,1.206,7.3928,304,5,
67.9256,-4.94263,9.14002,1.206,7.3928,304,5,
67.9257,-4.94263,9.13696,1.206,7.3928,304,5,
67.9257,-4.94232,9.13696,1.206,7.3928,304,5,
67.9257,-4.94354,9.13696,1.206,7.3928,304,5,
67.9258,-4.94781,9.13849,1.206,7.3928,304,5,
67.9258,-4.94781,9.14002,1.206,7.3928,304,5,
67.9258,-4.9469,9.14002,1.206,7.3928,304,5,
67.9259,-4.9469,9.13849,1.206,7.3928,304,5,
67.9259,-4.94781,9.14002,1.206,7.3928,304,5,
67.9259,-4.94781,9.13849,1.206,7.3928,304,5,
67.926,-4.94751,9.13696,1.206,7.3928,304,5,
67.926,-4.94781,9.13849,1.206,7.3928,304,5,
67.926,-4.94843,9.13849,1.206,7.3928,304,5,
67.9261,-4.9527,9.14002,1.206,7.3928,304,5,
67.9261,-4.9527,9.13849,1.206,7.3928,304,5,
67.9261,-4.95239,9.13696,1.206,7.3928,304,5,
67.9262,-4.95239,9.14002,1.206,7.3928,304,5,
67.9262,-4.9527,9.13544,1.206,7.3928,304,5,
67.9262,-4.95239,9.13849,1.206,7.3928,304,5,
67.9263,-4.95209,9.14002,1.206,7.3928,304,5,
67.9263,-4.95209,9.13544,1.206,7.3928,304,5,
67.9263,-4.95697,9.13849,1.206,7.3928,304,5,
67.9264,-4.95728,9.13696,1.206,7.3928,304,5,
67.9264,-4.95728,9.13544,1.206,7.3928,304,5,
67.9264,-4.95728,9.13391,1.206,7.3928,304,5,
67.9265,-4.95758,9.13696,1.206,7.3928,304,5,
67.9265,-4.95819,9.13696,1.206,7.3928,304,5,
67.9265,-4.95728,9.13849,1.206,7.3928,304,5,
67.9266,-4.95667,9.13391,1.206,7.3928,304,5,
67.9266,-4.96002,9.13849,1.206,7.3928,304,5,
67.9266,-4.96277,9.14154,1.206,7.3928,304,5,
67.9267,-4.96216,9.13696,1.206,7.3928,304,5,
67.9267,-4.96185,9.14002,1.206,7.3928,304,5,
67.9267,-4.96307,9.13696,1.206,7.3928,304,5,
67.9268,-4.96216,9.14307,1.206,7.3928,304,5,
67.9268,-4.96185,9.13696,1.206,7.3928,304,5,
67.9268,-4.96216,9.14002,1.206,7.3928,304,5,
67.9269,-4.96643,9.13544,1.206,7.3928,304,5,
67.9269,-4.96704,9.14002,1.206,7.3928,304,5,
67.9269,-4.96704,9.13696,1.206,7.3928,304,5,
67.927,-4.96704,9.14002,1.206,7.3928,304,5,
67.927,-4.96704,9.14307,1.206,7.3928,304,5,
67.927,-4.96735,9.13849,1.206,7.3928,304,5,
67.9271,-4.96765,9.13849,1.206,7.3928,304,5,
67.9271,-4.97131,9.13696,1.206,7.3928,304,5,
67.9271,-4.97223,9.13696,1.206,7.3928,304,5,
67.9272,-4.97284,9.13849,1.206,7.3928,304,5,
67.9272,-4.97253,9.14002,1.206,7.3928,304,5,
67.9272,-4.97253,9.13849,1.206,7.3928,304,5,
67.9273,-4.97253,9.13391,1.206,7.3928,304,5,
67.9273,-4.97253,9.14002,1.206,7.3928,304,5,
67.9273,-4.97742,9.14154,1.206,7.3928,304,5,
67.9274,-4.97742,9.13849,1.206,7.3928,304,5,
67.9274,-4.9765,9.14002,1.206,7.3928,304,5,
67.9274,-4.97711,9.13696,1.206,7.3928,304,5,
67.9275,-4.97711,9.13544,1.206,7.3928,304,5,
67.9275,-4.97711,9.13696,1.206,7.3928,304,5,
67.9275,-4.98016,9.14154,1.206,7.3928,304,5,
67.9276,-4.9823,9.13696,1.206,7.3928,304,5,
67.9276,-4.98199,9.13849,1.206,7.3928,304,5,
67.9276,-4.9823,9.13696,1.206,7.3928,304,5,
67.9277,-4.98138,9.13696,1.206,7.3928,304,5,
67.9277,-4.98199,9.13696,1.206,7.3928,304,5,
67.9277,-4.98169,9.13849,1.206,7.3928,304,5,
67.9278,-4.98718,9.13696,1.206,7.3928,304,5,
67.9278,-4.98657,9.13391,1.206,7.3928,304,5,
67.9278,-4.98688,9.13696,1.206,7.3928,304,5,
67.9279,-4.98688,9.13544,1.206,7.3928,304,5,
67.9279,-4.98657,9.13544,1.206,7.3928,304,5,
67.9279,-4.98657,9.13391,1.206,7.3928,304,5,
67.928,-4.99146,9.13696,1.206,7.3928,304,5,
67.928,-4.99115,9.13696,1.206,7.3928,304,5,
67.928,-4.99146,9.13696,1.206,7.3928,304,5,
67.9281,-4.99115,9.13544,1.206,7.3928,304,5,
67.9281,-4.99207,9.13544,1.206,7.3928,304,5,
67.9281,-4.99146,9.14002,1.206,7.3928,304,5,
67.9282,-4.99237,9.14002,1.206,7.3928,304,5,
67.9282,-4.99664,9.13696,1.206,7.3928,304,5,
67.9282,-4.99695,9.13391,1.206,7.3928,304,5,
67.9283,-4.99695,9.13849,1.206,7.3928,304,5,
67.9283,-4.99664,9.14002,1.206,7.3928,304,5,
67.9283,-4.99664,9.14154,1.206,7.3928,304,5,
67.9284,-4.99664,9.13849,1.206,7.3928,304,5,
67.9284,-5.00183,9.13849,1.206,7.3928,304,5,
67.9284,-5.00153,9.13849,1.206,7.3928,304,5,
67.9285,-5.00214,9.13544,1.206,7.3928,304,5,
67.9285,-5.00214,9.13696,1.206,7.3928,304,5,
67.9285,-5.00153,9.13849,1.206,7.3928,304,5,
67.9286,-5.00153,9.13849,1.206,7.3928,304,5,
67.9286,-5.00732,9.13696,1.206,7.3928,304,5,
67.9286,-5.00671,9.13849,1.206,7.3928,304,5,
67.9287,-5.00641,9.13849,1.206,7.3928,304,5,
67.9287,-5.00641,9.13849,1.206,7.3928,304,5,
67.9287,-5.00702,9.14002,1.206,7.3928,304,5,
67.9288,-5.00641,9.13849,1.206,7.3928,304,5,
67.9288,-5.01129,9.13696,1.206,7.3928,304,5,
67.9288,-5.0116,9.13696,1.206,7.3928,304,5,
67.9289,-5.01129,9.13696,1.206,7.3928,304,5,
67.9289,-5.01129,9.13849,1.206,7.3928,304,5,
67.9289,-5.0119,9.14002,1.206,7.3928,304,5,
67.929,-5.01495,9.13696,1.206,7.3928,304,5,
67.929,-5.01617,9.13849,1.206,7.3928,304,5,
67.929,-5.01587,9.14154,1.206,7.3928,304,5,
67.9291,-5.01648,9.13849,1.206,7.3928,304,5,
67.9291,-5.01648,9.13849,1.206,7.3928,304,5,
67.9291,-5.01587,9.13849,1.206,7.3928,304,5,
67.9292,-5.02075,9.14154,1.206,7.3928,304,5,
67.9292,-5.02136,9.13696,1.206,7.3928,304,5,
67.9292,-5.02106,9.13696,1.206,7.3928,304,5,
67.9293,-5.02075,9.13849,1.206,7.3928,304,5,
67.9293,-5.02106,9.13696,1.206,7.3928,304,5,
67.9293,-5.02594,9.13849,1.206,7.3928,304,5,
67.9294,-5.02594,9.14002,1.206,7.3928,304,5,
67.9294,-5.02655,9.13391,1.206,7.3928,304,5,
67.9294,-5.02625,9.13849,1.206,7.3928,304,5,
67.9295,-5.02563,9.14154,1.206,7.3928,304,5,
67.9295,-5.03052,9.14154,1.206,7.3928,304,5,
67.9295,-5.03052,9.14002,1.206,7.3928,304,5,
67.9296,-5.03082,9.13849,1.206,7.3928,304,5,
67.9296,-5.03113,9.13544,1.206,7.3928,304,5,
67.9296,-5.03052,9.14002,1.206,7.3928,304,5,
67.9297,-5.03601,9.13544,1.206,7.3928,304,5,
67.9297,-5.03632,9.13849,1.206,7.3928,304,5,
67.9297,-5.03571,9.13696,1.206,7.3928,304,5,
67.9298,-5.03571,9.14002,1.206,7.3928,304,5,
67.9298,-5.03998,9.13696,1.206,7.3928,304,5,
67.9298,-5.0412,9.13544,1.206,7.3928,304,5,
67.9299,-5.04089,9.14002,1.206,7.3928,304,5,
67.9299,-5.04059,9.13696,1.206,7.3928,304,5,
67.9299,-5.04578,9.13696,1.206,7.3928,304,5,
67.93,-5.04578,9.13696,1.206,7.3928,304,5,
67.93,-5.04578,9.13696,1.206,7.3928,304,5,
67.93,-5.04578,9.13849,1.206,7.3928,304,5,
67.9301,-5.05005,9.14002,1.206,7.3928,304,5,
67.9301,-5.05005,9.13544,1.206,7.3928,304,5,
67.9301,-5.05127,9.13696,1.206,7.3928,304,5,
67.9302,-5.05554,9.13696,1.206,7.3928,304,5,
67.9302,-5.05493,9.13696,1.206,7.3928,304,5,
67.9302,-5.05554,9.13544,1.206,7.3928,304,5,
67.9303,-5.05859,9.13239,1.206,7.3928,304,5,
67.9303,-5.06042,9.14154,1.206,7.3928,304,5,
67.9303,-5.05981,9.14002,1.206,7.3928,304,5,
67.9304,-5.06287,9.14002,1.206,7.3928,304,5,
67.9304,-5.065,9.13849,1.206,7.3928,304,5,
67.9304,-5.06531,9.14002,1.206,7.3928,304,5,
67.9305,-5.06805,9.13696,1.206,7.3928,304,5,
67.9305,-5.07019,9.14002,1.206,7.3928,304,5,
67.9305,-5.06989,9.13849,1.206,7.3928,304,5,
67.9306,-5.07477,9.13696,1.206,7.3928,304,5,
67.9306,-5.07599,9.13544,1.206,7.3928,304,5,
67.9306,-5.07599,9.14154,1.206,7.3928,304,5,
67.9307,-5.07996,9.13849,1.206,7.3928,304,5,
67.9307,-5.08026,9.13696,1.206,7.3928,304,5,
67.9307,-5.08087,9.13696,1.206,7.3928,304,5,
67.9308,-5.08545,9.14002,1.206,7.3928,304,5,
67.9308,-5.08484,9.13849,1.206,7.3928,304,5,
67.9308,-5.09003,9.13696,1.206,7.3928,304,5,
67.9309,-5.08972,9.13696,1.206,7.3928,304,5,
67.9309,-5.09033,9.13696,1.206,7.3928,304,5,
67.9309,-5.09521,9.13849,1.206,7.3928,304,5,
67.931,-5.09369,9.13849,1.206,7.3928,304,5,
67.931,-5.09888,9.13849,1.206,7.3928,304,5,
67.931,-5.09949,9.14002,1.206,7.3928,304,5,
67.9311,-5.10315,9.13696,1.206,7.3928,304,5,
67.9311,-5.10498,9.13849,1.206,7.3928,304,5,
67.9311,-5.10437,9.13696,1.206,7.3928,304,5,
67.9312,-5.10895,9.14154,1.206,7.3928,304,5,
67.9312,-5.10925,9.14154,1.206,7.3928,304,5,
67.9312,-5.1123,9.14917,1.206,7.3928,304,5,
67.9313,-5.11414,9.1507,1.206,7.3928,304,5,
67.9313,-5.11444,9.15527,1.206,7.3928,304,5,
67.9313,-5.11871,9.14765,1.206,7.3928,304,5,
67.9314,-5.11932,9.15222,1.206,7.3928,304,5,
67.9314,-5.12451,9.1507,1.206,7.3928,304,5,
67.9314,-5.12421,9.14917,1.206,7.3928,304,5,
67.9315,-5.12878,9.14765,1.206,7.3928,304,5,
67.9315,-5.12878,9.1507,1.206,7.3928,304,5,
67.9315,-5.1297,9.1507,1.206,7.3928,304,5,
67.9316,-5.13428,9.14917,1.206,7.3928,304,5,
67.9316,-5.13397,9.1507,1.206,7.3928,304,5,
67.9316,-5.13824,9.14917,1.206,7.3928,304,5,
67.9317,-5.13855,9.14459,1.206,7.3928,304,5,
67.9317,-5.14313,9.1507,1.206,7.3928,304,5,
67.9317,-5.14404,9.14917,1.206,7.3928,304,5,
67.9318,-5.14618,9.1507,1.206,7.3928,304,5,
67.9318,-5.14832,9.15222,1.206,7.3928,304,5,
67.9318,-5.14954,9.1507,1.206,7.3928,304,5,
67.9319,-5.1535,9.15222,1.206,7.3928,304,5,
67.9319,-5.1535,9.1507,1.206,7.3928,304,5,
67.9319,-5.15839,9.1507,1.206,7.3928,304,5,
67.932,-5.15869,9.1507,1.206,7.3928,304,5,
67.932,-5.16266,9.14917,1.206,7.3928,304,5,
67.932,-5.16357,9.15375,1.206,7.3928,304,5,
67.9321,-5.16724,9.14765,1.206,7.3928,304,5,
67.9321,-5.16785,9.1507,1.206,7.3928,304,5,
67.9321,-5.16815,9.14917,1.206,7.3928,304,5,
67.9322,-5.17273,9.1507,1.206,7.3928,304,5,
67.9322,-5.17273,9.1507,1.206,7.3928,304,5,
67.9322,-5.17792,9.14917,1.206,7.3928,304,5,
67.9323,-5.17761,9.15375,1.206,7.3928,304,5,
67.9323,-5.18158,9.1507,1.206,7.3928,304,5,
67.9323,-5.1825,9.1507,1.206,7.3928,304,5,
67.9324,-5.1828,9.1507,1.206,7.3928,304,5,
67.9324,-5.18738,9.1507,1.206,7.3928,304,5,
67.9324,-5.18738,9.15222,1.206,7.3928,304,5,
67.9325,-5.19287,9.14765,1.206,7.3928,304,5,
67.9325,-5.19257,9.14612,1.206,7.3928,304,5,
67.9325,-5.19531,9.14765,1.206,7.3928,304,5,
67.9326,-5.19745,9.1507,1.206,7.3928,304,5,
67.9326,-5.19836,9.14765,1.206,7.3928,304,5,
67.9326,-5.20294,9.1507,1.206,7.3928,304,5,
67.9327,-5.20233,9.14765,1.206,7.3928,304,5,
67.9327,-5.20721,9.1507,1.206,7.3928,304,5,
67.9327,-5.20691,9.1507,1.206,7.3928,304,5,
67.9328,-5.20691,9.14765,1.206,7.3928,304,5,
67.9328,-5.2124,9.15222,1.206,7.3928,304,5,
67.9328,-5.21271,9.14917,1.206,7.3928,304,5,
67.9329,-5.2124,9.14765,1.206,7.3928,304,5,
67.9329,-5.21759,9.14765,1.206,7.3928,304,5,
67.9329,-5.21698,9.1507,1.206,7.3928,304,5,
67.933,-5.22034,9.14917,1.206,7.3928,304,5,
67.933,-5.22217,9.1507,1.206,7.3928,304,5,
67.933,-5.22186,9.1507,1.206,7.3928,304,5,
67.9331,-5.22247,9.14917,1.206,7.3928,304,5,
67.9331,-5.22705,9.14917,1.206,7.3928,304,5,
67.9331,-5.22675,9.15222,1.206,7.3928,304,5,
67.9332,-5.22675,9.1507,1.206,7.3928,304,5,
67.9332,-5.23163,9.1507,1.206,7.3928,304,5,
67.9332,-5.23163,9.14917,1.206,7.3928,304,5,
67.9333,-5.23163,9.14612,1.206,7.3928,304,5,
67.9333,-5.23132,9.14917,1.206,7.3928,304,5,
67.9333,-5.2359,9.15527,1.206,7.3928,304,5,
67.9334,-5.23651,9.15222,1.206,7.3928,304,5,
67.9334,-5.23743,9.14917,1.206,7.3928,304,5,
67.9334,-5.23712,9.15375,1.206,7.3928,304,5,
67.9335,-5.24109,9.14917,1.206,7.3928,304,5,
67.9335,-5.2417,9.14917,1.206,7.3928,304,5,
67.9335,-5.24139,9.15375,1.206,7.3928,304,5,
67.9336,-5.242,9.14765,1.206,7.3928,304,5,
67.9336,-5.24139,9.1507,1.206,7.3928,304,5,
67.9336,-5.24506,9.14917,1.206,7.3928,304,5,
67.9337,-5.24628,9.14917,1.206,7.3928,304,5,
67.9337,-5.24628,9.14765,1.206,7.3928,304,5,
67.9337,-5.24658,9.14917,1.206,7.3928,304,5,
67.9338,-5.24658,9.1507,1.206,7.3928,304,5,
67.9338,-5.24658,9.14612,1.206,7.3928,304,5,
67.9338,-5.24689,9.1507,1.206,7.3928,304,5,
67.9339,-5.24933,9.1507,1.206,7.3928,304,5,
67.9339,-5.25085,9.14765,1.206,7.3928,304,5,
67.9339,-5.25146,9.1507,1.206,7.3928,304,5,
67.934,-5.25177,9.1507,1.206,7.3928,304,5,
67.934,-5.25146,9.14917,1.206,7.3928,304,5,
67.934,-5.25177,9.14765,1.206,7.3928,304,5,
67.9341,-5.25146,9.14765,1.206,7.3928,304,5,
67.9341,-5.25116,9.14917,1.206,7.3928,304,5,
67.9341,-5.25116,9.1507,1.206,7.3928,304,5,
67.9342,-5.25208,9.14917,1.206,7.3928,304,5,
67.9342,-5.25177,9.1507,1.206,7.3928,304,5,
67.9342,-5.25177,9.15222,1.206,7.3928,304,5,
67.9343,-5.25208,9.15222,1.206,7.3928,304,5,
67.9343,-5.25116,9.14765,1.206,7.3928,304,5,
67.9343,-5.25513,9.1507,1.206,7.3928,304,5,
67.9344,-5.25604,9.14765,1.206,7.3928,304,5,
67.9344,-5.25665,9.1507,1.206,7.3928,304,5,
67.9344,-5.25665,9.14765,1.206,7.3928,304,5,
67.9345,-5.25604,9.14917,1.206,7.3928,304,5,
67.9345,-5.25665,9.15222,1.206,7.3928,304,5,
67.9345,-5.25696,9.1629,1.206,7.3928,304,5,
67.9346,-5.25574,9.1629,1.206,7.3928,304,5,
67.9346,-5.25665,9.1629,1.206,7.3928,304,5,
67.9346,-5.25665,9.1629,1.206,7.3928,304,5,
67.9347,-5.25696,9.15833,1.206,7.3928,304,5,
67.9347,-5.25208,9.16138,1.206,7.3928,304,5,
67.9347,-5.25116,9.15985,1.206,7.3928,304,5,
67.9348,-5.25177,9.15985,1.206,7.3928,304,5,
67.9348,-5.25085,9.1629,1.206,7.3928,304,5,
67.9348,-5.25177,9.16138,1.206,7.3928,304,5,
67.9349,-5.25177,9.16138,1.206,7.3928,304,5,
67.9349,-5.25146,9.15833,1.206,7.3928,304,5,
67.9349,-5.25146,9.1629,1.206,7.3928,304,5,
67.935,-5.25177,9.1629,1.206,7.3928,304,5,
67.935,-5.25177,9.16596,1.206,7.3928,304,5,
67.935,-5.25177,9.1629,1.206,7.3928,304,5,
67.9351,-5.25116,9.16443,1.206,7.3928,304,5,
67.9351,-5.25177,9.16138,1.206,7.3928,304,5,
67.9351,-5.25177,9.15985,1.206,7.3928,304,5,
67.9352,-5.25177,9.16443,1.206,7.3928,304,5,
67.9352,-5.25116,9.16138,1.206,7.3928,304,5,
67.9352,-5.24841,9.16138,1.206,7.3928,304,5,
67.9353,-5.24719,9.15985,1.206,7.3928,304,5,
67.9353,-5.24628,9.16443,1.206,7.3928,304,5,
67.9353,-5.2475,9.1629,1.206,7.3928,304,5,
67.9354,-5.24689,9.16443,1.206,7.3928,304,5,
67.9354,-5.24628,9.1629,1.206,7.3928,304,5,
67.9354,-5.24719,9.15985,1.206,7.3928,304,5,
67.9355,-5.24689,9.1629,1.206,7.3928,304,5,
67.9355,-5.24628,9.16138,1.206,7.3928,304,5,
67.9355,-5.24231,9.16443,1.206,7.3928,304,5,
67.9356,-5.2417,9.1629,1.206,7.3928,304,5,
67.9356,-5.242,9.16138,1.206,7.3928,304,5,
67.9356,-5.2417,9.1629,1.206,7.3928,304,5,
67.9357,-5.24139,9.16138,1.206,7.3928,304,5,
67.9357,-5.23712,9.1629,1.206,7.3928,304,5,
67.9357,-5.23682,9.1629,1.206,7.3928,304,5,
67.9358,-5.23682,9.1629,1.206,7.3928,304,5,
67.9358,-5.23651,9.15833,1.206,7.3928,304,5,
67.9358,-5.23346,9.1629,1.206,7.3928,304,5,
67.9359,-5.23163,9.15985,1.206,7.3928,304,5,
67.9359,-5.23132,9.16138,1.206,7.3928,304,5,
67.9359,-5.23163,9.16138,1.206,7.3928,304,5,
67.936,-5.22705,9.1629,1.206,7.3928,304,5,
67.936,-5.22766,9.16443,1.206,7.3928,304,5,
67.936,-5.22675,9.16138,1.206,7.3928,304,5,
67.9361,-5.22308,9.16138,1.206,7.3928,304,5,
67.9361,-5.22186,9.1629,1.206,7.3928,304,5,
67.9361,-5.22064,9.16596,1.206,7.3928,304,5,
67.9362,-5.21729,9.16443,1.206,7.3928,304,5,
67.9362,-5.21729,9.16138,1.206,7.3928,304,5,
67.9362,-5.2124,9.16138,1.206,7.3928,304,5,
67.9363,-5.21271,9.1629,1.206,7.3928,304,5,
67.9363,-5.20935,9.16138,1.206,7.3928,304,5,
67.9363,-5.2066,9.16443,1.206,7.3928,304,5,
67.9364,-5.20386,9.1629,1.206,7.3928,304,5,
67.9364,-5.20233,9.16138,1.206,7.3928,304,5,
67.9364,-5.19897,9.15833,1.206,7.3928,304,5,
67.9365,-5.19745,9.15985,1.206,7.3928,304,5,
67.9365,-5.19318,9.1629,1.206,7.3928,304,5,
67.9365,-5.19287,9.1629,1.206,7.3928,304,5,
67.9366,-5.1886,9.1629,1.206,7.3928,304,5,
67.9366,-5.18738,9.16138,1.206,7.3928,304,5,
67.9366,-5.18341,9.16138,1.206,7.3928,304,5,
67.9367,-5.17853,9.16138,1.206,7.3928,304,5,
67.9367,-5.17761,9.1629,1.206,7.3928,304,5,
67.9367,-5.17303,9.16443,1.206,7.3928,304,5,
67.9368,-5.16876,9.16138,1.206,7.3928,304,5,
67.9368,-5.16449,9.1629,1.206,7.3928,304,5,
67.9368,-5.16388,9.16138,1.206,7.3928,304,5,
67.9369,-5.15839,9.15985,1.206,7.3928,304,5,
67.9369,-5.15411,9.1629,1.206,7.3928,304,5,
67.9369,-5.15015,9.16138,1.206,7.3928,304,5,
67.937,-5.14526,9.16138,1.206,7.3928,304,5,
67.937,-5.14374,9.16443,1.206,7.3928,304,5,
67.937,-5.13947,9.16138,1.206,7.3928,304,5,
67.9371,-5.13367,9.15985,1.206,7.3928,304,5,
67.9371,-5.12909,9.1629,1.206,7.3928,304,5,
67.9371,-5.12451,9.1629,1.206,7.3928,304,5,
67.9372,-5.11902,9.16596,1.206,7.3928,304,5,
67.9372,-5.11505,9.1629,1.206,7.3928,304,5,
67.9372,-5.10956,9.15985,1.206,7.3928,304,5,
67.9373,-5.10468,9.16138,1.206,7.3928,304,5,
67.9373,-5.1001,9.16443,1.206,7.3928,304,5,
67.9373,-5.09491,9.16443,1.206,7.3928,304,5,
67.9374,-5.09003,9.1629,1.206,7.3928,304,5,
67.9374,-5.08423,9.15985,1.206,7.3928,304,5,
67.9374,-5.07935,9.16138,1.206,7.3928,304,5,
67.9375,-5.07385,9.16138,1.206,7.3928,304,5,
67.9375,-5.06683,9.1629,1.206,7.3928,304,5,
67.9375,-5.06134,9.16443,1.206,7.3928,304,5,
67.9376,-5.05554,9.16443,1.206,7.3928,304,5,
67.9376,-5.05005,9.16901,1.206,7.3928,304,5,
67.9376,-5.04578,9.17664,1.206,7.3928,304,5,
67.9377,-5.03754,9.17511,1.206,7.3928,304,5,
67.9377,-5.03082,9.17816,1.206,7.3928,304,5,
67.9377,-5.02655,9.17053,1.206,7.3928,304,5,
67.9378,-5.02106,9.17206,1.206,7.3928,304,5,
67.9378,-5.01221,9.17511,1.206,7.3928,304,5,
67.9378,-5.0061,9.17511,1.206,7.3928,304,5,
67.9379,-5.00092,9.17511,1.206,7.3928,304,5,
67.9379,-4.99329,9.17206,1.206,7.3928,304,5,
67.9379,-4.98749,9.17206,1.206,7.3928,304,5,
67.938,-4.98169,9.17511,1.206,7.3928,304,5,
67.938,-4.97375,9.17359,1.206,7.3928,304,5,
67.938,-4.96765,9.17664,1.206,7.3928,304,5,
67.9381,-4.96094,9.17359,1.206,7.3928,304,5,
67.9381,-4.95422,9.17511,1.206,7.3928,304,5,
67.9381,-4.94659,9.17511,1.206,7.3928,304,5,
67.9382,-4.93927,9.17511,1.206,7.3928,304,5,
67.9382,-4.93317,9.17053,1.206,7.3928,304,5,
67.9382,-4.92493,9.17511,1.206,7.3928,304,5,
67.9383,-4.91913,9.17359,1.206,7.3928,304,5,
67.9383,-4.91302,9.17359,1.206,7.3928,304,5,
67.9383,-4.90448,9.17511,1.206,7.3928,304,5,
67.9384,-4.89868,9.17816,1.206,7.3928,304,5,
67.9384,-4.88861,9.17511,1.206,7.3928,304,5,
67.9384,-4.88007,9.17206,1.206,7.3928,304,5,
67.9385,-4.87427,9.17206,1.206,7.3928,304,5,
67.9385,-4.86511,9.17053,1.206,7.3928,304,5,
67.9385,-4.85931,9.17511,1.206,7.3928,304,5,
67.9386,-4.85046,9.17511,1.206,7.3928,304,5,
67.9386,-4.84436,9.17359,1.206,7.3928,304,5,
67.9386,-4.83643,9.17359,1.206,7.3928,304,5,
67.9387,-4.8291,9.17359,1.206,7.3928,304,5,
67.9387,-4.82117,9.17359,1.206,7.3928,304,5,
67.9387,-4.81262,9.17511,1.206,7.3928,304,5,
67.9388,-4.80621,9.17664,1.206,7.3928,304,5,
67.9388,-4.79828,9.17206,1.206,7.3928,304,5,
67.9388,-4.79065,9.17053,1.206,7.3928,304,5,
67.9389,-4.78119,9.17359,1.206,7.3928,304,5,
67.9389,-4.77325,9.17053,1.206,7.3928,304,5,
67.9389,-4.76654,9.17511,1.206,7.3928,304,5,
67.939,-4.75677,9.17359,1.206,7.3928,304,5,
67.939,-4.74884,9.17511,1.206,7.3928,304,5,
67.939,-4.73907,9.17359,1.206,7.3928,304,5,
67.9391,-4.73145,9.17816,1.206,7.3928,304,5,
67.9391,-4.72351,9.17664,1.206,7.3928,304,5,
67.9391,-4.71527,9.17816,1.206,7.3928,304,5,
67.9392,-4.7049,9.17816,1.206,7.3928,304,5,
67.9392,-4.69696,9.17664,1.206,7.3928,304,5,
67.9392,-4.68842,9.17664,1.206,7.3928,304,5,
67.9393,-4.68018,9.17206,1.206,7.3928,304,5,
67.9393,-4.6701,9.17664,1.206,7.3928,304,5,
67.9393,-4.66095,9.17969,1.206,7.3928,304,5,
67.9394,-4.65332,9.17359,1.206,7.3928,304,5,
67.9394,-4.64417,9.17664,1.206,7.3928,304,5,
67.9394,-4.63379,9.17359,1.206,7.3928,304,5,
67.9395,-4.62433,9.17359,1.206,7.3928,304,5,
67.9395,-4.61487,9.17511,1.206,7.3928,304,5,
67.9395,-4.6048,9.17816,1.206,7.3928,304,5,
67.9396,-4.59656,9.17206,1.206,7.3928,304,5,
67.9396,-4.5871,9.17664,1.206,7.3928,304,5,
67.9396,-4.57733,9.17359,1.206,7.3928,304,5,
67.9397,-4.56665,9.17206,1.206,7.3928,304,5,
67.9397,-4.55658,9.17511,1.206,7.3928,304,5,
67.9397,-4.54529,9.17053,1.206,7.3928,304,5,
67.9398,-4.53613,9.17359,1.206,7.3928,304,5,
67.9398,-4.52637,9.17359,1.206,7.3928,304,5,
67.9398,-4.5163,9.17511,1.206,7.3928,304,5,
67.9399,-4.50714,9.17511,1.206,7.3928,304,5,
67.9399,-4.49371,9.17359,1.206,7.3928,304,5,
67.9399,-4.48425,9.17664,1.206,7.3928,304,5,
67.94,-4.47357,9.17359,1.206,7.3928,304,5,
67.94,-4.46259,9.17359,1.206,7.3928,304,5,
67.94,-4.45007,9.17359,2.208,7.3928,304,5,
67.9401,-4.4397,9.17511,2.208,7.3928,304,5,
67.9401,-4.42932,9.17359,2.208,7.3928,304,5,
67.9401,-4.41742,9.17359,2.208,7.3928,304,5,
67.9402,-4.40521,9.17664,2.208,7.3928,304,5,
67.9402,-4.39453,9.17664,2.208,7.3928,304,5,
67.9402,-4.38385,9.17664,2.208,7.3928,304,5,
67.9403,-4.37134,9.17053,2.208,7.3928,304,5,
67.9403,-4.36005,9.17511,2.208,7.3928,304,5,
67.9403,-4.34692,9.18121,2.208,7.3928,304,5,
67.9404,-4.33563,9.18884,2.208,7.3928,304,5,
67.9404,-4.32495,9.18884,2.208,7.3928,304,5,
67.9404,-4.31274,9.18732,2.208,7.3928,304,5,
67.9405,-4.30084,9.18427,2.208,7.3928,304,5,
67.9405,-4.28772,9.18579,2.208,7.3928,304,5,
67.9405,-4.27612,9.18579,2.208,7.3928,304,5,
67.9406,-4.26361,9.18884,2.208,7.3928,304,5,
67.9406,-4.25171,9.18884,2.208,7.3928,304,5,
67.9406,-4.23798,9.18732,2.208,7.3928,304,5,
67.9407,-4.22699,9.19037,2.208,7.3928,304,5,
67.9407,-4.21356,9.18579,2.208,7.3928,304,5,
67.9407,-4.20288,9.18732,2.208,7.3928,304,5,
67.9408,-4.18915,9.18884,2.208,7.3928,304,5,
67.9408,-4.17511,9.18732,2.208,7.3928,304,5,
67.9408,-4.16321,9.18732,2.208,7.3928,304,5,
67.9409,-4.1507,9.18732,2.208,7.3928,304,5,
67.9409,-4.13849,9.18732,2.208,7.3928,304,5,
67.9409,-4.12567,9.18274,2.208,7.3928,304,5,
67.941,-4.11102,9.18732,2.208,7.3928,304,5,
67.941,-4.10004,9.18884,2.208,7.3928,304,5,
67.941,-4.086,9.18732,2.208,7.3928,304,5,
67.9411,-4.07227,9.18732,2.208,7.3928,304,5,
67.9411,-4.06128,9.18579,2.208,7.3928,304,5,
67.9411,-4.04755,9.18732,2.208,7.3928,304,5,
67.9412,-4.03595,9.18732,2.208,7.3928,304,5,
67.9412,-4.02252,9.18274,2.208,7.3928,304,5,
67.9412,-4.0094,9.18884,2.208,7.3928,304,5,
67.9413,-3.9975,9.18732,2.208,7.3928,304,5,
67.9413,-3.98254,9.18884,2.208,7.3928,304,5,
67.9413,-3.96942,9.19037,2.208,7.3928,304,5,
67.9414,-3.95752,9.18884,2.208,7.3928,304,5,
67.9414,-3.94409,9.18732,2.208,7.3928,304,5,
67.9414,-3.93036,9.18884,2.208,7.3928,304,5,
67.9415,-3.91785,9.18884,2.208,7.3928,304,5,
67.9415,-3.90442,9.18579,2.208,7.3928,304,5,
67.9415,-3.8913,9.18732,2.208,7.3928,304,5,
67.9416,-3.87909,9.18732,2.208,7.3928,304,5,
67.9416,-3.86536,9.18884,2.208,7.3928,304,5,
67.9416,-3.85254,9.18732,2.208,7.3928,304,5,
67.9417,-3.84003,9.18884,2.208,7.3928,304,5,
67.9417,-3.82568,9.18579,2.208,7.3928,304,5,
67.9417,-3.81317,9.18884,2.208,7.3928,304,5,
67.9418,-3.80005,9.18732,2.208,7.3928,304,5,
67.9418,-3.78662,9.18732,2.208,7.3928,304,5,
67.9418,-3.77625,9.19037,2.208,7.3928,304,5,
67.9419,-3.76251,9.18579,2.208,7.3928,304,5,
67.9419,-3.74939,9.18579,2.208,7.3928,304,5,
67.9419,-3.73688,9.18427,2.208,7.3928,304,5,
67.942,-3.72375,9.18579,2.208,7.3928,304,5,
67.942,-3.70941,9.18732,2.208,7.3928,304,5,
67.942,-3.69812,9.18579,2.208,7.3928,304,5,
67.9421,-3.6853,9.18884,2.208,7.3928,304,5,
67.9421,-3.6731,9.18732,2.208,7.3928,304,5,
67.9421,-3.65967,9.18732,2.208,7.3928,304,5,
67.9422,-3.64899,9.19037,2.208,7.3928,304,5,
67.9422,-3.63586,9.18732,2.208,7.3928,304,5,
67.9422,-3.62122,9.18732,2.208,7.3928,304,5,
67.9423,-3.61145,9.18884,2.208,7.3928,304,5,
67.9423,-3.59711,9.18732,2.208,7.3928,304,5,
67.9423,-3.58521,9.18884,2.208,7.3928,304,5,
67.9424,-3.5733,9.18732,2.208,7.3928,304,5,
67.9424,-3.5611,9.18884,2.208,7.3928,304,5,
67.9424,-3.54858,9.18579,2.208,7.3928,304,5,
67.9425,-3.53638,9.18884,2.208,7.3928,304,5,
67.9425,-3.52417,9.18732,2.208,7.3928,304,5,
67.9425,-3.51166,9.19037,2.208,7.3928,304,5,
67.9426,-3.49915,9.18732,2.208,7.3928,304,5,
67.9426,-3.48846,9.18732,2.208,7.3928,304,5,
67.9426,-3.47809,9.18732,2.208,7.3928,304,5,
67.9427,-3.46466,9.18427,2.208,7.3928,304,5,
67.9427,-3.45337,9.18579,2.208,7.3928,304,5,
67.9427,-3.44086,9.18732,2.208,7.3928,304,5,
67.9428,-3.43048,9.18884,2.208,7.3928,304,5,
67.9428,-3.41949,9.18884,2.208,7.3928,304,5,
67.9428,-3.40515,9.18732,2.208,7.3928,304,5,
67.9429,-3.39478,9.18732,2.208,7.3928,304,5,
67.9429,-3.38501,9.18427,2.208,7.3928,304,5,
67.9429,-3.37189,9.18732,2.208,7.3928,304,5,
67.943,-3.3606,9.18579,2.208,7.3928,304,5,
67.943,-3.35083,9.18884,2.208,7.3928,304,5,
67.943,-3.33771,9.18884,2.208,7.3928,304,5,
67.9431,-3.32672,9.18884,2.208,7.3928,304,5,
67.9431,-3.31543,9.18427,2.208,7.3928,304,5,
67.9431,-3.30658,9.18427,2.208,7.3928,304,5,
67.9432,-3.29315,9.18579,2.208,7.3928,304,5,
67.9432,-3.28339,9.18884,2.208,7.3928,304,5,
67.9432,-3.2724,9.18732,2.208,7.3928,304,5,
67.9433,-3.26233,9.18732,2.208,7.3928,304,5,
67.9433,-3.25226,9.18732,2.208,7.3928,304,5,
67.9433,-3.23975,9.18579,2.208,7.3928,304,5,
67.9434,-3.22998,9.18884,2.208,7.3928,304,5,
67.9434,-3.2196,9.18579,2.208,7.3928,304,5,
67.9434,-3.20953,9.18579,2.208,7.3928,304,5,
67.9435,-3.19855,9.18427,2.208,7.3928,304,5,
67.9435,-3.18848,9.18732,2.208,7.3928,304,5,
67.9435,-3.17841,9.18732,2.208,7.3928,304,5,
67.9436,-3.16956,9.18427,2.208,7.3928,304,5,
67.9436,-3.15918,9.18732,2.208,7.3928,304,5,
67.9436,-3.1488,9.18732,2.208,7.3928,304,5,
67.9437,-3.13965,9.18579,2.208,7.3928,304,5,
67.9437,-3.13019,9.18884,2.208,7.3928,304,5,
67.9437,-3.11981,9.18732,2.208,7.3928,304,5,
67.9438,-3.10944,9.18884,2.208,7.3928,304,5,
67.9438,-3.10059,9.18579,2.208,7.3928,304,5,
67.9438,-3.09052,9.18884,2.208,7.3928,304,5,
67.9439,-3.08105,9.18732,2.208,7.3928,304,5,
67.9439,-3.07007,9.18427,2.208,7.3928,304,5,
67.9439,-3.06091,9.18732,2.208,7.3928,304,5,
67.944,-3.05328,9.18579,2.208,7.3928,304,5,
67.944,-3.04382,9.18579,2.208,7.3928,304,5,
67.944,-3.03345,9.18732,2.208,7.3928,304,5,
67.9441,-3.02643,9.18884,2.208,7.3928,304,5,
67.9441,-3.01666,9.18732,2.208,7.3928,304,5,
67.9441,-3.00751,9.18427,2.208,7.3928,304,5,
67.9442,-2.99957,9.18884,2.208,7.3928,304,5,
67.9442,-2.98889,9.18732,2.208,7.3928,304,5,
67.9442,-2.98187,9.18579,2.208,7.3928,304,5,
67.9443,-2.97272,9.18579,2.208,7.3928,304,5,
67.9443,-2.96356,9.19037,2.208,7.3928,304,5,
67.9443,-2.95532,9.18884,2.208,7.3928,304,5,
67.9444,-2.9483,9.18579,2.208,7.3928,304,5,
67.9444,-2.93854,9.18579,2.208,7.3928,304,5,
67.9444,-2.93121,9.19037,2.208,7.3928,304,5,
67.9445,-2.92389,9.18884,2.208,7.3928,304,5,
67.9445,-2.91504,9.18579,2.208,7.3928,304,5,
67.9445,-2.90649,9.18732,2.208,7.3928,304,5,
67.9446,-2.89948,9.18579,2.208,7.3928,304,5,
67.9446,-2.89093,9.18732,2.208,7.3928,304,5,
67.9446,-2.88177,9.18732,2.208,7.3928,304,5,
67.9447,-2.87445,9.18579,2.208,7.3928,304,5,
67.9447,-2.86713,9.18732,2.208,7.3928,304,5,
67.9447,-2.86041,9.18732,2.208,7.3928,304,5,
67.9448,-2.85278,9.18884,2.208,7.3928,304,5,
67.9448,-2.84515,9.18884,2.208,7.3928,304,5,
67.9448,-2.83752,9.18732,2.208,7.3928,304,5,
67.9449,-2.8302,9.18579,2.208,7.3928,304,5,
67.9449,-2.82318,9.18427,2.208,7.3928,304,5,
67.9449,-2.81586,9.18579,2.208,7.3928,304,5,
67.945,-2.80884,9.18732,2.208,7.3928,304,5,
67.945,-2.80304,9.18579,2.208,7.3928,304,5,
67.945,-2.79602,9.19647,2.208,7.3928,304,5,
67.9451,-2.78748,9.20105,2.208,7.3928,304,5,
67.9451,-2.78107,9.19953,2.208,7.3928,304,5,
67.9451,-2.77405,9.19953,2.208,7.3928,304,5,
67.9452,-2.76794,9.198,2.208,7.3928,304,5,
67.9452,-2.76276,9.19953,2.208,7.3928,304,5,
67.9452,-2.75452,9.19647,2.208,7.3928,304,5,
67.9453,-2.74841,9.19953,2.208,7.3928,304,5,
67.9453,-2.74323,9.20105,2.208,7.3928,304,5,
67.9453,-2.73529,9.198,2.208,7.3928,304,5,
67.9454,-2.72827,9.19953,2.208,7.3928,304,5,
67.9454,-2.72308,9.198,2.208,7.3928,304,5,
67.9454,-2.7179,9.20258,2.208,7.3928,304,5,
67.9455,-2.70996,9.20105,2.208,7.3928,304,5,
67.9455,-2.70416,9.20105,2.208,7.3928,304,5,
67.9455,-2.69958,9.198,2.208,7.3928,304,5,
67.9456,-2.69348,9.19953,0.1,7.3928,304,5,
67.9456,-2.6889,9.20105,0.1,7.3928,304,5,
67.9456,-2.68097,9.19953,0.1,7.3928,304,5,
67.9457,-2.67578,9.19953,0.1,7.3928,304,5,
67.9457,-2.66998,9.20258,0.1,7.3928,304,5,
67.9457,-2.66449,9.19647,0.1,7.3928,304,5,
67.9458,-2.65991,9.19953,0.1,7.3928,304,5,
67.9458,-2.65411,9.19953,0.1,7.3928,304,5,
67.9458,-2.64893,9.19953,0.1,7.3928,304,5,
67.9459,-2.64496,9.20258,0.1,7.3928,304,5,
67.9459,-2.63947,9.19953,0.1,7.3928,304,5,
67.9459,-2.63214,9.198,0.1,7.3928,304,5,
67.946,-2.62726,9.19953,0.1,7.3928,304,5,
67.946,-2.62238,9.19953,0.1,7.3928,304,5,
67.946,-2.61688,9.20105,0.1,7.3928,304,5,
67.9461,-2.61169,9.19953,0.1,7.3928,304,5,
67.9461,-2.60742,9.198,0.1,7.3928,304,5,
67.9461,-2.60254,9.198,0.1,7.3928,304,5,
67.9462,-2.59735,9.20258,0.1,7.3928,304,5,
67.9462,-2.59552,9.19647,0.1,7.3928,304,5,
67.9462,-2.59064,9.19647,0.1,7.3928,304,5,
67.9463,-2.58575,9.20258,0.1,7.3928,304,5,
67.9463,-2.58057,9.198,0.1,7.3928,304,5,
67.9463,-2.57599,9.19953,0.1,7.3928,304,5,
67.9464,-2.57172,9.198,0.1,7.3928,304,5,
67.9464,-2.56683,9.20105,0.1,7.3928,304,5,
67.9464,-2.56165,9.20105,0.1,7.3928,304,5,
67.9465,-2.55646,9.20105,0.1,7.3928,304,5,
67.9465,-2.5528,9.19953,0.1,7.3928,304,5,
67.9465,-2.55035,9.19953,0.1,7.3928,304,5,
67.9466,-2.54639,9.19953,0.1,7.3928,304,5,
67.9466,-2.54181,9.19647,0.1,7.3928,304,5,
67.9466,-2.53601,9.198,0.1,7.3928,304,5,
67.9467,-2.53235,9.19647,0.1,7.3928,304,5,
67.9467,-2.52869,9.198,0.1,7.3928,304,5,
67.9467,-2.52655,9.19953,0.1,7.3928,304,5,
67.9468,-2.52197,9.20105,0.1,7.3928,304,5,
67.9468,-2.5174,9.19953,0.1,7.3928,304,5,
67.9468,-2.51404,9.19953,0.1,7.3928,304,5,
67.9469,-2.5116,9.19953,0.1,7.3928,304,5,
67.9469,-2.50732,9.198,0.1,7.3928,304,5,
67.9469,-2.50336,9.20105,0.1,7.3928,304,5,
67.947,-2.49969,9.198,0.1,7.3928,304,5,
67.947,-2.49756,9.198,0.1,7.3928,304,5,
67.947,-2.49359,9.20105,0.1,7.3928,304,5,
67.9471,-2.48901,9.19647,0.1,7.3928,304,5,
67.9471,-2.48505,9.198,0.1,7.3928,304,5,
67.9471,-2.48444,9.19953,0.1,7.3928,304,5,
67.9472,-2.47894,9.19647,0.1,7.3928,304,5,
67.9472,-2.47498,9.19953,0.1,7.3928,304,5,
67.9472,-2.47314,9.19647,0.1,7.3928,304,5,
67.9473,-2.46918,9.19953,0.1,7.3928,304,5,
67.9473,-2.46399,9.198,0.1,7.3928,304,5,
67.9473,-2.46277,9.20258,0.1,7.3928,304,5,
67.9474,-2.45941,9.198,0.1,7.3928,304,5,
67.9474,-2.45422,9.198,0.1,7.3928,304,5,
67.9474,-2.45331,9.20105,0.1,7.3928,304,5,
67.9475,-2.44873,9.20105,0.1,7.3928,304,5,
67.9475,-2.44598,9.19647,0.1,7.3928,304,5,
67.9475,-2.44354,9.19953,0.1,7.3928,304,5,
67.9476,-2.43866,9.19953,0.1,7.3928,304,5,
67.9476,-2.43591,9.19953,0.1,7.3928,304,5,
67.9476,-2.43469,9.198,0.1,7.3928,304,5,
67.9477,-2.4295,9.20258,0.1,7.3928,304,5,
67.9477,-2.42889,9.19953,0.1,7.3928,304,5,
67.9477,-2.42432,9.20105,0.1,7.3928,304,5,
67.9478,-2.42035,9.19953,0.1,7.3928,304,5,
67.9478,-2.41943,9.20105,0.1,7.3928,304,5,
67.9478,-2.41577,9.19647,0.1,7.3928,304,5,
67.9479,-2.4118,9.198,0.1,7.3928,304,5,
67.9479,-2.41058,9.20105,0.1,7.3928,304,5,
67.9479,-2.4054,9.19953,0.1,7.3928,304,5,
67.948,-2.40479,9.19647,0.1,7.3928,304,5,
67.948,-2.3999,9.198,0.1,7.3928,304,5,
67.948,-2.39532,9.19953,0.1,7.3928,304,5,
67.9481,-2.39532,9.19647,0.1,7.3928,304,5,
67.9481,-2.38953,9.198,0.1,7.3928,304,5,
67.9481,-2.38953,9.20105,0.1,7.3928,304,5,
67.9482,-2.38495,9.198,0.1,7.3928,304,5,
67.9482,-2.38129,9.198,0.1,7.3928,304,5,
67.9482,-2.38007,9.198,0.1,7.3928,304,5,
67.9483,-2.37549,9.19647,0.1,7.3928,304,5,
67.9483,-2.37213,9.19647,0.1,7.3928,304,5,
67.9483,-2.37091,9.19953,0.1,7.3928,304,5,
67.9484,-2.36603,9.20105,0.1,7.3928,304,5,
67.9484,-2.36572,9.19953,0.1,7.3928,304,5,
67.9484,-2.36053,9.19953,0.1,7.3928,304,5,
67.9485,-2.35748,9.19647,0.1,7.3928,304,5,
67.9485,-2.35535,9.19953,0.1,7.3928,304,5,
67.9485,-2.35107,9.19495,0.1,7.3928,304,5,
67.9486,-2.35016,9.198,0.1,7.3928,304,5,
67.9486,-2.34711,9.19953,0.1,7.3928,304,5,
67.9486,-2.34161,9.198,0.1,7.3928,304,5,
67.9487,-2.3407,9.20105,0.1,7.3928,304,5,
67.9487,-2.33673,9.19953,0.1,7.3928,304,5,
67.9487,-2.33337,9.19495,0.1,7.3928,304,5,
67.9488,-2.33185,9.19647,0.1,7.3928,304,5,
67.9488,-2.32697,9.19953,0.1,7.3928,304,5,
67.9488,-2.32605,9.19953,0.1,7.3928,304,5,
67.9489,-2.32178,9.20105,0.1,7.3928,304,5,
67.9489,-2.31842,9.17664,0.1,7.3928,304,5,
67.9489,-2.31689,9.17206,0.1,7.3928,304,5,
67.949,-2.31232,9.17206,0.1,7.3928,304,5,
67.949,-2.30865,9.17206,0.1,7.3928,304,5,
67.949,-2.30713,9.17206,0.1,7.3928,304,5,
67.9491,-2.30255,9.17664,0.1,7.3928,304,5,
67.9491,-2.30133,9.17206,0.1,7.3928,304,5,
67.9491,-2.29645,9.17359,0.1,7.3928,304,5,
67.9492,-2.29279,9.17664,0.1,7.3928,304,5,
67.9492,-2.29279,9.17359,0.1,7.3928,304,5,
67.9492,-2.28699,9.17359,0.1,7.3928,304,5,
67.9493,-2.28333,9.1629,0.1,7.3928,304,5,
67.9493,-2.2821,9.16443,0.1,7.3928,304,5,
67.9493,-2.27814,9.16138,0.1,7.3928,304,5,
67.9494,-2.27631,9.1629,0.1,7.3928,304,5,
67.9494,-2.27203,9.16138,0.1,7.3928,304,5,
67.9494,-2.2702,9.1629,0.1,7.3928,304,5,
67.9495,-2.26746,9.1629,0.1,7.3928,304,5,
67.9495,-2.26288,9.15985,0.1,7.3928,304,5,
67.9495,-2.26227,9.1629,0.1,7.3928,304,5,
67.9496,-2.258,9.16138,0.1,7.3928,304,5,
67.9496,-2.25372,9.16596,0.1,7.3928,304,5,
67.9496,-2.25281,9.1629,0.1,7.3928,304,5,
67.9497,-2.24854,9.16443,0.1,7.3928,304,5,
67.9497,-2.24487,9.16596,0.1,7.3928,304,5,
67.9497,-2.24335,9.16443,0.1,7.3928,304,5,
67.9498,-2.23785,9.1629,0.1,7.3928,304,5,
67.9498,-2.23755,9.15833,0.1,7.3928,304,5,
67.9498,-2.23297,9.16443,0.1,7.3928,304,5,
67.9499,-2.23022,9.17359,0.1,7.3928,304,5,
67.9499,-2.2287,9.17359,0.1,7.3928,304,5,
67.9499,-2.22412,9.17206,0.1,7.3928,304,5,
67.95,-2.22351,9.17206,0.1,7.3928,304,5,
67.95,-2.21832,9.17359,0.1,7.3928,304,5,
67.95,-2.21497,9.17359,0.1,7.3928,304,5,
67.9501,-2.21436,9.17511,0.1,7.3928,304,5,
67.9501,-2.20978,9.17664,0.1,7.3928,304,5,
67.9501,-2.20856,9.17511,0.1,7.3928,304,5,
67.9502,-2.20428,9.17053,0.1,7.3928,304,5,
67.9502,-2.20093,9.17511,0.1,7.3928,304,5,
67.9502,-2.19879,9.17664,0.1,7.3928,304,5,
67.9503,-2.19513,9.17206,0.1,7.3928,304,5,
67.9503,-2.1933,9.17359,0.1,7.3928,304,5,
67.9503,-2.18933,9.17511,0.1,7.3928,304,5,
67.9504,-2.18567,9.17206,0.1,7.3928,304,5,
67.9504,-2.18506,9.17511,0.1,7.3928,304,5,
67.9504,-2.18048,9.17969,0.1,7.3928,304,5,
67.9505,-2.17896,9.17359,0.1,7.3928,304,5,
67.9505,-2.17499,9.17206,0.1,7.3928,304,5,
67.9505,-2.17102,9.17206,0.1,7.3928,305,5,
67.9506,-2.1701,9.17816,0.1,7.3928,305,5,
67.9506,-2.16522,9.18274,0.1,7.3928,305,5,
67.9506,-2.16431,9.18732,0.1,7.3928,305,5,
67.9507,-2.16064,9.18732,0.1,7.3928,305,5,
67.9507,-2.15546,9.18579,0.1,7.3928,305,5,
67.9507,-2.15607,9.18884,0.1,7.3928,305,5,
67.9508,-2.15118,9.18732,0.1,7.3928,305,5,
67.9508,-2.14996,9.18884,0.1,7.3928,305,5,
67.9508,-2.14478,9.18579,0.1,7.3928,305,5,
67.9509,-2.14111,9.18579,0.1,7.3928,305,5,
67.9509,-2.1405,9.19037,0.1,7.3928,305,5,
67.9509,-2.13593,9.18732,0.1,7.3928,305,5,
67.951,-2.13226,9.18427,0.1,7.3928,305,5,
67.951,-2.13043,9.18732,0.1,7.3928,305,5,
67.951,-2.12555,9.18884,0.1,7.3928,305,5,
67.9511,-2.12524,9.18732,0.1,7.3928,305,5,
67.9511,-2.12067,9.18732,0.1,7.3928,305,5,
67.9511,-2.11731,9.18732,0.1,7.3928,305,5,
67.9512,-2.11639,9.18732,0.1,7.3928,305,5,
67.9512,-2.11182,9.19037,0.1,7.3928,305,5,
67.9512,-2.11029,9.18579,0.1,7.3928,305,5,
67.9513,-2.10632,9.18579,0.1,7.3928,305,5,
67.9513,-2.10205,9.18732,0.1,7.3928,305,5,
67.9513,-2.10144,9.19495,0.1,7.3928,305,5,
67.9514,-2.09656,9.198,0.1,7.3928,305,5,
67.9514,-2.0932,9.198,0.1,7.3928,305,5,
67.9514,-2.09167,9.19495,0.1,7.3928,305,5,
67.9515,-2.08649,9.20105,0.1,7.3928,305,5,
67.9515,-2.08588,9.19953,0.1,7.3928,305,5,
67.9515,-2.08191,9.20105,0.1,7.3928,305,5,
67.9516,-2.07825,9.20258,0.1,7.3928,305,5,
67.9516,-2.07672,9.198,0.1,7.3928,305,5,
67.9516,-2.07214,9.20105,0.1,7.3928,305,5,
67.9517,-2.06848,9.20105,0.1,7.3928,305,5,
67.9517,-2.06757,9.20105,0.1,7.3928,305,5,
67.9517,-2.06299,9.198,0.1,7.3928,305,5,
67.9518,-2.06055,9.19953,0.1,7.3928,305,5,
67.9518,-2.05688,9.20258,0.1,7.3928,305,5,
67.9518,-2.05353,9.19953,0.1,7.3928,305,5,
67.9519,-2.052,9.20105,0.1,7.3928,305,5,
67.9519,-2.04803,9.198,0.1,7.3928,305,5,
67.9519,-2.04712,9.20258,0.1,7.3928,305,5,
67.952,-2.04254,9.19953,0.1,7.3928,305,5,
67.952,-2.03766,9.19953,0.1,7.3928,305,5,
67.952,-2.03735,9.19953,0.1,7.3928,305,5,
67.9521,-2.03278,9.19953,0.1,7.3928,305,5,
67.9521,-2.02972,9.19953,0.1,7.3928,305,5,
67.9521,-2.02759,9.19953,0.1,7.3928,305,5,
67.9522,-2.02301,9.19953,0.1,7.3928,305,5,
67.9522,-2.0224,9.198,0.1,7.3928,305,5,
67.9522,-2.01813,9.20258,0.1,7.3928,305,5,
67.9523,-2.01416,9.19953,0.1,7.3928,305,5,
67.9523,-2.01324,9.20105,0.1,7.3928,305,5,
67.9523,-2.00897,9.20105,0.1,7.3928,305,5,
67.9524,-2.00714,9.19953,0.1,7.3928,305,5,
67.9524,-2.00348,9.19953,0.1,7.3928,305,5,
67.9524,-2.00073,9.19953,0.1,7.3928,305,5,
67.9525,-1.9989,9.20258,0.1,7.3928,305,5,
67.9525,-1.99341,9.20258,0.1,7.3928,305,5,
67.9525,-1.9928,9.19953,0.1,7.3928,305,5,
67.9526,-1.98883,9.198,0.1,7.3928,305,5,
67.9526,-1.98517,9.198,0.1,7.3928,305,5,
67.9526,-1.98395,9.198,0.1,7.3928,305,5,
67.9527,-1.97876,9.20258,0.1,7.3928,305,5,
67.9527,-1.97784,9.20258,0.1,7.3928,305,5,
67.9527,-1.97357,9.19953,0.1,7.3928,305,5,
67.9528,-1.97083,9.19953,0.1,7.3928,305,5,
67.9528,-1.96899,9.198,0.1,7.3928,305,5,
67.9528,-1.96442,9.19953,0.1,7.3928,305,5,
67.9529,-1.9635,9.20258,0.1,7.3928,305,5,
67.9529,-1.95953,9.20258,0.1,7.3928,305,5,
67.9529,-1.95618,9.19953,0.1,7.3928,305,5,
67.953,-1.95496,9.20105,0.1,7.3928,305,5,
67.953,-1.94977,9.20258,0.1,7.3928,305,5,
67.953,-1.94916,9.19953,0.1,7.3928,305,5,
67.9531,-1.94458,9.19953,0.1,7.3928,305,5,
67.9531,-1.94122,9.19953,0.1,7.3928,305,5,
67.9531,-1.94,9.20105,0.1,7.3928,305,5,
67.9532,-1.93481,9.198,0.1,7.3928,305,5,
67.9532,-1.9339,9.198,0.1,7.3928,305,5,
67.9532,-1.93054,9.198,0.1,7.3928,305,5,
67.9533,-1.92657,9.19953,0.1,7.3928,305,5,
67.9533,-1.92505,9.19953,0.1,7.3928,305,5,
67.9533,-1.92017,9.19953,0.1,7.3928,305,5,
67.9534,-1.91956,9.198,0.1,7.3928,305,5,
67.9534,-1.91467,9.19953,0.1,7.3928,305,5,
67.9534,-1.91101,9.19495,0.1,7.3928,305,5,
67.9535,-1.9104,9.198,0.1,7.3928,305,5,
67.9535,-1.90521,9.19953,0.1,7.3928,305,5,
67.9535,-1.90155,9.19953,0.1,7.3928,305,5,
67.9536,-1.90063,9.20105,0.1,7.3928,305,5,
67.9536,-1.89575,9.19647,0.1,7.3928,305,5,
67.9536,-1.89453,9.20105,0.1,7.3928,305,5,
67.9537,-1.89056,9.198,0.1,7.3928,305,5,
67.9537,-1.8866,9.19953,0.1,7.3928,305,5,
67.9537,-1.88538,9.19953,0.1,7.3928,305,5,
67.9538,-1.88019,9.19953,0.1,7.3928,305,5,
67.9538,-1.87622,9.20105,0.1,7.3928,305,5,
67.9538,-1.87592,9.2041,0.1,7.3928,305,5,
67.9539,-1.87134,9.20258,0.1,7.3928,305,5,
67.9539,-1.86798,9.198,0.1,7.3928,305,5,
67.9539,-1.86584,9.19953,0.1,7.3928,305,5,
67.954,-1.86127,9.198,0.1,7.3928,305,5,
67.954,-1.85822,9.198,0.1,7.3928,305,5,
67.954,-1.85638,9.19953,0.1,7.3928,305,5,
67.9541,-1.8512,9.19953,0.1,7.3928,305,5,
67.9541,-1.84723,9.19953,0.1,7.3928,305,5,
67.9541,-1.84662,9.20105,0.1,7.3928,305,5,
67.9542,-1.84082,9.19953,0.1,7.3928,305,5,
67.9542,-1.83685,9.198,0.1,7.3928,305,5,
67.9542,-1.83716,9.198,0.1,7.3928,305,5,
67.9543,-1.83197,9.19647,0.1,7.3928,305,5,
67.9543,-1.82739,9.198,0.1,7.3928,305,5,
67.9543,-1.82343,9.198,0.1,7.3928,305,5,
67.9544,-1.8219,9.20105,0.1,7.3928,305,5,
67.9544,-1.81732,9.19647,0.1,7.3928,305,5,
67.9544,-1.81274,9.20258,0.1,7.3928,305,5,
67.9545,-1.81152,9.20105,0.1,7.3928,305,5,
67.9545,-1.80756,9.20563,0.1,7.3928,305,5,
67.9545,-1.80237,9.198,0.1,7.3928,305,5,
67.9546,-1.7984,9.198,0.1,7.3928,305,5,
67.9546,-1.79596,9.20258,0.1,7.3928,305,5,
67.9546,-1.7926,9.20105,0.1,7.3928,305,5,
67.9547,-1.78711,9.19953,0.1,7.3928,305,5,
67.9547,-1.78314,9.19953,0.1,7.3928,305,5,
67.9547,-1.78192,9.19953,0.1,7.3928,305,5,
67.9548,-1.77734,9.198,0.1,7.3928,305,5,
67.9548,-1.77246,9.198,0.1,7.3928,305,5,
67.9548,-1.76941,9.20105,0.1,7.3928,305,5,
67.9549,-1.76788,9.19953,0.1,7.3928,305,5,
67.9549,-1.76331,9.19953,0.1,7.3928,305,5,
67.9549,-1.75873,9.19953,0.1,7.3928,305,5,
67.955,-1.75354,9.19953,0.1,7.3928,305,5,
67.955,-1.75079,9.19953,0.1,7.3928,305,5,
67.955,-1.74805,9.198,0.1,7.3928,305,5,
67.9551,-1.74438,9.198,0.1,7.3928,305,5,
67.9551,-1.7392,9.198,0.1,7.3928,305,5,
67.9551,-1.73401,9.20105,0.1,7.3928,305,5,
67.9552,-1.73096,9.19953,0.1,7.3928,305,5,
67.9552,-1.72821,9.19495,0.1,7.3928,305,5,
67.9552,-1.72485,9.19953,0.1,7.3928,305,5,
67.9553,-1.71967,9.19953,0.1,7.3928,305,5,
67.9553,-1.71539,9.19953,0.1,7.3928,305,5,
67.9553,-1.71143,9.20105,0.1,7.3928,305,5,
67.9554,-1.70959,9.198,0.1,7.3928,305,5,
67.9554,-1.7041,9.198,0.1,7.3928,305,5,
67.9554,-1.69952,9.19953,0.1,7.3928,305,5,
67.9555,-1.69525,9.198,0.1,7.3928,305,5,
67.9555,-1.69037,9.2041,0.1,7.3928,305,5,
67.9555,-1.68671,9.19953,0.1,7.3928,305,5,
67.9556,-1.68182,9.19953,0.1,7.3928,305,5,
67.9556,-1.67938,9.20105,0.1,7.3928,305,5,
67.9556,-1.6745,9.198,0.1,7.3928,305,5,
67.9557,-1.67114,9.19953,0.1,7.3928,305,5,
67.9557,-1.66565,9.2041,0.1,7.3928,305,5,
67.9557,-1.66016,9.198,0.1,7.3928,305,5,
67.9558,-1.65619,9.198,0.1,7.3928,305,5,
67.9558,-1.65039,9.19953,0.1,7.3928,305,5,
67.9558,-1.64673,9.19647,0.1,7.3928,305,5,
67.9559,-1.64276,9.20105,0.1,7.3928,305,5,
67.9559,-1.64001,9.19953,0.1,7.3928,305,5,
67.9559,-1.63574,9.20258,0.1,7.3928,305,5,
67.956,-1.63086,9.20258,0.1,7.3928,305,5,
67.956,-1.62476,9.198,0.1,7.3928,305,5,
67.956,-1.6214,9.19647,0.1,7.3928,305,5,
67.9561,-1.61621,9.19953,0.1,7.3928,305,5,
67.9561,-1.61133,9.19953,0.1,7.3928,305,5,
67.9561,-1.60614,9.198,0.1,7.3928,305,5,
67.9562,-1.60095,9.19953,0.1,7.3928,305,5,
67.9562,-1.59637,9.198,0.1,7.3928,305,5,
67.9562,-1.5918,9.19953,0.1,7.3928,305,5,
67.9563,-1.58661,9.19647,0.1,7.3928,305,5,
67.9563,-1.58112,9.19953,0.1,7.3928,305,5,
67.9563,-1.57654,9.19953,0.1,7.3928,305,5,
67.9564,-1.57135,9.198,0.1,7.3928,305,5,
67.9564,-1.56647,9.198,0.1,7.3928,305,5,
67.9564,-1.56097,9.198,0.1,7.3928,305,5,
67.9565,-1.55426,9.19953,0.1,7.3928,305,5,
67.9565,-1.55029,9.19647,0.1,7.3928,305,5,
67.9565,-1.54419,9.19953,0.1,7.3928,305,5,
67.9566,-1.53778,9.19953,0.1,7.3928,305,5,
67.9566,-1.53412,9.19647,0.1,7.3928,305,5,
67.9566,-1.52893,9.19953,0.1,7.3928,305,5,
67.9567,-1.52252,9.198,0.1,7.3928,305,5,
67.9567,-1.51764,9.19647,0.1,7.3928,305,5,
67.9567,-1.51031,9.19647,0.1,7.3928,305,5,
67.9568,-1.50391,9.19953,0.1,7.3928,305,5,
67.9568,-1.49872,9.19953,0.1,7.3928,305,5,
67.9568,-1.49323,9.19953,0.1,7.3928,305,5,
67.9569,-1.4856,9.19647,0.1,7.3928,305,5,
67.9569,-1.48102,9.198,0.1,7.3928,305,5,
67.9569,-1.47522,9.19953,0.1,7.3928,305,5,
67.957,-1.46851,9.20105,0.1,7.3928,305,5,
67.957,-1.46088,9.19953,0.1,7.3928,305,5,
67.957,-1.45447,9.19953,0.1,7.3928,305,5,
67.9571,-1.44989,9.20105,0.1,7.3928,305,5,
67.9571,-1.44409,9.19647,0.1,7.3928,305,5,
67.9571,-1.43646,9.198,0.1,7.3928,305,5,
67.9572,-1.43005,9.19953,0.1,7.3928,305,5,
67.9572,-1.42365,9.19647,0.1,7.3928,305,5,
67.9572,-1.41724,9.198,0.1,7.3928,305,5,
67.9573,-1.41144,9.19953,0.1,7.3928,305,5,
67.9573,-1.40503,9.19953,0.1,7.3928,305,5,
67.9573,-1.39709,9.19647,0.1,7.3928,305,5,
67.9574,-1.39221,9.20105,0.1,7.3928,305,5,
67.9574,-1.38489,9.198,0.1,7.3928,305,5,
67.9574,-1.37787,9.19647,0.1,7.3928,305,5,
67.9575,-1.37177,9.19953,0.1,7.3928,305,5,
67.9575,-1.36322,9.20105,0.1,7.3928,305,5,
67.9575,-1.35681,9.19647,0.1,7.3928,305,5,
67.9576,-1.35132,9.19647,0.1,7.3928,305,5,
67.9576,-1.34308,9.20105,0.1,7.3928,305,5,
67.9576,-1.33698,9.20105,0.1,7.3928,305,5,
67.9577,-1.33209,9.19647,0.1,7.3928,305,5,
67.9577,-1.32385,9.19647,0.1,7.3928,305,5,
67.9577,-1.31653,9.19953,0.1,7.3928,305,5,
67.9578,-1.3089,9.19953,0.1,7.3928,305,5,
67.9578,-1.3028,9.20105,0.1,7.3928,305,5,
67.9578,-1.2973,9.19953,0.1,7.3928,305,5,
67.9579,-1.28876,9.20105,0.1,7.3928,305,5,
67.9579,-1.28235,9.19953,0.1,7.3928,305,5,
67.9579,-1.27502,9.19953,0.1,7.3928,305,5,
67.958,-1.26801,9.19953,0.1,7.3928,305,5,
67.958,-1.26312,9.20105,0.1,7.3928,305,5,
67.958,-1.25549,9.20258,0.1,7.3928,305,5,
67.9581,-1.24847,9.19953,0.1,7.3928,305,5,
67.9581,-1.24023,9.198,0.1,7.3928,305,5,
67.9581,-1.23505,9.20258,0.1,7.3928,305,5,
67.9582,-1.22864,9.20105,0.1,7.3928,305,5,
67.9582,-1.21979,9.19953,0.1,7.3928,305,5,
67.9582,-1.21399,9.20105,0.1,7.3928,305,5,
67.9583,-1.20605,9.19647,0.1,7.3928,305,5,
67.9583,-1.19965,9.19647,0.1,7.3928,305,5,
67.9583,-1.19141,9.198,0.1,7.3928,305,5,
67.9584,-1.18561,9.198,0.1,7.3928,305,5,
67.9584,-1.1795,9.20105,0.1,7.3928,305,5,
67.9584,-1.17218,9.20258,0.1,7.3928,305,5,
67.9585,-1.16608,9.20105,0.1,7.3928,305,5,
67.9585,-1.15814,9.20105,0.1,7.3928,305,5,
67.9585,-1.15143,9.19647,0.1,7.3928,305,5,
67.9586,-1.14563,9.198,0.1,7.3928,305,5,
67.9586,-1.138,9.20105,0.1,7.3928,305,5,
67.9586,-1.13251,9.19953,0.1,7.3928,305,5,
67.9587,-1.12274,9.20258,0.1,7.3928,305,5,
67.9587,-1.11664,9.19953,0.1,7.3928,305,5,
67.9587,-1.11206,9.198,0.1,7.3928,305,5,
67.9588,-1.10321,9.19953,0.1,7.3928,305,5,
67.9588,-1.0968,9.198,0.1,7.3928,305,5,
67.9588,-1.09161,9.20105,0.1,7.3928,305,5,
67.9589,-1.08429,9.198,0.1,7.3928,305,5,
67.9589,-1.07727,9.198,0.1,7.3928,305,5,
67.9589,-1.06934,9.198,0.1,7.3928,305,5,
67.959,-1.06293,9.18732,0.1,7.3928,305,5,
67.959,-1.05743,9.18732,0.1,7.3928,305,5,
67.959,-1.0498,9.18884,0.1,7.3928,305,5,
67.9591,-1.04248,9.18732,0.1,7.3928,305,5,
67.9591,-1.03729,9.18884,0.1,7.3928,305,5,
67.9591,-1.03058,9.18884,0.1,7.3928,305,5,
67.9592,-1.02356,9.19037,0.1,7.3928,305,5,
67.9592,-1.01776,9.18884,0.1,7.3928,305,5,
67.9592,-1.01105,9.18274,0.1,7.3928,305,5,
67.9593,-1.00433,9.18732,0.1,7.3928,305,5,
67.9593,-0.998535,9.18579,0.1,7.3928,305,5,
67.9593,-0.991211,9.18427,0.1,7.3928,305,5,
67.9594,-0.985107,9.18732,0.1,7.3928,305,5,
67.9594,-0.978699,9.18884,0.1,7.3928,305,5,
67.9594,-0.970764,9.18427,0.1,7.3928,305,5,
67.9595,-0.966492,9.18732,0.1,7.3928,305,5,
67.9595,-0.960388,9.18884,0.1,7.3928,305,5,
67.9595,-0.95459,9.18579,0.1,7.3928,305,5,
67.9596,-0.94696,9.18579,0.1,7.3928,305,5,
67.9596,-0.941162,9.18579,0.1,7.3928,305,5,
67.9596,-0.935364,9.18579,0.1,7.3928,305,5,
67.9597,-0.926819,9.18579,0.1,7.3928,305,5,
67.9597,-0.922241,9.18884,0.1,7.3928,305,5,
67.9597,-0.916443,9.18732,0.1,7.3928,305,5,
67.9598,-0.910034,9.18732,0.1,7.3928,305,5,
67.9598,-0.90332,9.18884,0.1,7.3928,305,5,
67.9598,-0.897217,9.18732,0.1,7.3928,305,5,
67.9599,-0.891724,9.18884,0.1,7.3928,305,5,
67.9599,-0.885925,9.18884,0.1,7.3928,305,5,
67.9599,-0.877686,9.18427,0.1,7.3928,305,5,
67.96,-0.873718,9.19037,0.1,7.3928,305,5,
67.96,-0.86731,9.18884,0.1,7.3928,305,5,
67.96,-0.861816,9.18579,0.1,7.3928,305,5,
67.9601,-0.856628,9.18884,0.1,7.3928,305,5,
67.9601,-0.848694,9.18732,0.1,7.3928,305,5,
67.9601,-0.842285,9.18732,0.1,7.3928,305,5,
67.9602,-0.837402,9.18427,0.1,7.3928,305,5,
67.9602,-0.831909,9.18427,0.1,7.3928,305,5,
67.9602,-0.827026,9.18732,0.1,7.3928,305,5,
67.9603,-0.818787,9.18884,0.1,7.3928,305,5,
67.9603,-0.814514,9.18579,0.1,7.3928,305,5,
67.9603,-0.808105,9.18579,0.1,7.3928,305,5,
67.9604,-0.803833,9.18732,0.1,7.3928,305,5,
67.9604,-0.797424,9.19037,0.1,7.3928,305,5,
67.9604,-0.792542,9.18884,0.1,7.3928,305,5,
67.9605,-0.785217,9.18732,0.1,7.3928,305,5,
67.9605,-0.779724,9.18732,0.1,7.3928,305,5,
67.9605,-0.773621,9.18732,0.1,7.3928,305,5,
67.9606,-0.769043,9.18732,0.1,7.3928,305,5,
67.9606,-0.762939,9.19037,0.1,7.3928,305,5,
67.9606,-0.757751,9.18732,0.1,7.3928,305,5,
67.9607,-0.753174,9.18884,0.1,7.3928,305,5,
67.9607,-0.744934,9.18732,0.1,7.3928,305,5,
67.9607,-0.740051,9.18732,0.1,7.3928,305,5,
67.9608,-0.736084,9.18732,0.1,7.3928,305,5,
67.9608,-0.730286,9.18579,0.1,7.3928,305,5,
67.9608,-0.724792,9.1919,0.1,7.3928,305,5,
67.9609,-0.71991,9.18884,0.1,7.3928,305,5,
67.9609,-0.714417,9.18732,0.1,7.3928,305,5,
67.9609,-0.710449,9.18579,0.984,7.3928,305,5,
67.961,-0.705261,9.18884,0.984,7.3928,305,5,
67.961,-0.699463,9.18732,0.984,7.3928,305,5,
67.961,-0.69458,9.18884,0.984,7.3928,305,5,
67.9611,-0.689697,9.19037,0.984,7.3928,305,5,
67.9611,-0.684814,9.18732,0.984,7.3928,305,5,
67.9611,-0.679626,9.18732,0.984,7.3928,305,5,
67.9612,-0.672302,9.18732,0.984,7.3928,305,5,
67.9612,-0.666809,9.18579,0.984,7.3928,305,5,
67.9612,-0.662231,9.18427,0.984,7.3928,305,5,
67.9613,-0.658264,9.18579,0.984,7.3928,305,5,
67.9613,-0.652771,9.18579,0.984,7.3928,305,5,
67.9613,-0.647583,9.18884,0.984,7.3928,305,5,
67.9614,-0.642395,9.18427,0.984,7.3928,305,5,
67.9614,-0.638123,9.18732,0.984,7.3928,305,5,
67.9614,-0.632629,9.18732,0.984,7.3928,305,5,
67.9615,-0.627747,9.18579,0.984,7.3928,305,5,
67.9615,-0.622559,9.18427,0.984,7.3928,305,5,
67.9615,-0.621338,9.18579,0.984,7.3928,305,5,
67.9616,-0.61615,9.18274,0.984,7.3928,305,5,
67.9616,-0.611877,9.18732,0.984,7.3928,305,5,
67.9616,-0.606079,9.19037,0.984,7.3928,305,5,
67.9617,-0.601807,9.19037,0.984,7.3928,305,5,
67.9617,-0.597534,9.18732,0.984,7.3928,305,5,
67.9617,-0.592346,9.18579,0.984,7.3928,305,5,
67.9618,-0.587158,9.18732,0.984,7.3928,305,5,
67.9618,-0.58197,9.18732,0.984,7.3928,305,5,
67.9618,-0.577393,9.18732,0.984,7.3928,305,5,
67.9619,-0.573425,9.18732,0.984,7.3928,305,5,
67.9619,-0.568237,9.18121,0.984,7.3928,305,5,
67.9619,-0.565186,9.18579,0.984,7.3928,305,5,
67.962,-0.559082,9.18732,0.984,7.3928,305,5,
67.962,-0.557556,9.19037,0.984,7.3928,305,5,
67.962,-0.552368,9.18732,0.984,7.3928,305,5,
67.9621,-0.548401,9.18884,0.984,7.3928,305,5,
67.9621,-0.543823,9.19037,0.984,7.3928,305,5,
67.9621,-0.53894,9.18732,0.984,7.3928,305,5,
67.9622,-0.533142,9.18732,0.984,7.3928,305,5,
67.9622,-0.530396,9.18732,0.984,7.3928,305,5,
67.9622,-0.525208,9.19037,0.984,7.3928,305,5,
67.9623,-0.523071,9.18579,0.984,7.3928,305,5,
67.9623,-0.518799,9.18732,0.984,7.3928,305,5,
67.9623,-0.513916,9.18732,0.984,7.3928,305,5,
67.9624,-0.509949,9.18732,0.984,7.3928,305,5,
67.9624,-0.504456,9.18732,0.984,7.3928,305,5,
67.9624,-0.501099,9.18732,0.984,7.3928,305,5,
67.9625,-0.498047,9.18579,0.984,7.3928,305,5,
67.9625,-0.493774,9.18427,0.984,7.3928,305,5,
67.9625,-0.489807,9.19037,0.984,7.3928,305,5,
67.9626,-0.484924,9.18579,0.984,7.3928,305,5,
67.9626,-0.480957,9.18274,0.984,7.3928,305,5,
67.9626,-0.47821,9.19037,0.984,7.3928,305,5,
67.9627,-0.474243,9.18732,0.984,7.3928,305,5,
67.9627,-0.46936,9.18579,0.984,7.3928,305,5,
67.9627,-0.464172,9.18884,0.984,7.3928,305,5,
67.9628,-0.460815,9.18732,0.984,7.3928,305,5,
67.9628,-0.459595,9.18884,0.984,7.3928,305,5,
67.9628,-0.455017,9.18732,0.984,7.3928,305,5,
67.9629,-0.449829,9.18579,0.984,7.3928,305,5,
67.9629,-0.445862,9.18884,0.984,7.3928,305,5,
67.9629,-0.444336,9.18732,0.984,7.3928,305,5,
67.963,-0.440063,9.18884,0.984,7.3928,305,5,
67.963,-0.43457,9.18579,0.984,7.3928,305,5,
67.963,-0.431519,9.1919,0.984,7.3928,305,5,
67.9631,-0.430298,9.18427,0.984,7.3928,305,5,
67.9631,-0.42572,9.18579,0.984,7.3928,305,5,
67.9631,-0.422058,9.19037,0.984,7.3928,305,5,
67.9632,-0.416565,9.18579,0.984,7.3928,305,5,
67.9632,-0.415649,9.18732,0.984,7.3928,305,5,
67.9632,-0.411377,9.18884,0.984,7.3928,305,5,
67.9633,-0.406494,9.18884,0.984,7.3928,305,5,
67.9633,-0.405273,9.18884,0.984,7.3928,305,5,
67.9633,-0.401917,9.18579,0.984,7.3928,305,5,
67.9634,-0.396729,9.18884,0.984,7.3928,305,5,
67.9634,-0.393372,9.18732,0.984,7.3928,305,5,
67.9634,-0.39093,9.18732,0.984,7.3928,305,5,
67.9635,-0.386963,9.18579,0.984,7.3928,305,5,
67.9635,-0.38208,9.18579,0.984,7.3928,305,5,
67.9635,-0.38147,9.18732,0.984,7.3928,305,5,
67.9636,-0.376892,9.18884,0.984,7.3928,305,5,
67.9636,-0.372314,9.19037,0.984,7.3928,305,5,
67.9636,-0.368652,9.18732,0.984,7.3928,305,5,
67.9637,-0.366516,9.19037,0.984,7.3928,305,5,
67.9637,-0.362244,9.18732,0.984,7.3928,305,5,
67.9637,-0.358582,9.18732,0.984,7.3928,305,5,
67.9638,-0.35614,9.18732,0.984,7.3928,305,5,
67.9638,-0.351868,9.18884,0.984,7.3928,305,5,
67.9638,-0.3479,9.19037,0.984,7.3928,305,5,
67.9639,-0.346985,9.18427,0.984,7.3928,305,5,
67.9639,-0.342407,9.18732,0.984,7.3928,305,5,
67.9639,-0.33783,9.18427,0.984,7.3928,305,5,
67.964,-0.334167,9.18121,0.984,7.3928,305,5,
67.964,-0.332031,9.17664,0.984,7.3928,305,5,
67.964,-0.327759,9.17511,0.984,7.3928,305,5,
67.9641,-0.323792,9.17359,0.984,7.3928,305,5,
67.9641,-0.323486,9.17206,0.984,7.3928,305,5,
67.9641,-0.317993,9.17359,0.984,7.3928,305,5,
67.9642,-0.314331,9.17664,0.984,7.3928,305,5,
67.9642,-0.3125,9.17206,0.984,7.3928,305,5,
67.9642,-0.307312,9.17511,0.984,7.3928,305,5,
67.9643,-0.30365,9.17816,0.984,7.3928,305,5,
67.9643,-0.302429,9.17511,0.984,7.3928,305,5,
67.9643,-0.298462,9.16901,0.984,7.3928,305,5,
67.9644,-0.292358,9.17664,0.984,7.3928,305,5,
67.9644,-0.291443,9.17664,0.984,7.3928,305,5,
67.9644,-0.288086,9.17664,0.984,7.3928,305,5,
67.9645,-0.283813,9.17359,0.984,7.3928,305,5,
67.9645,-0.282593,9.17511,0.984,7.3928,305,5,
67.9645,-0.27832,9.17816,0.984,7.3928,305,5,
67.9646,-0.274048,9.17511,0.984,7.3928,305,5,
67.9646,-0.270386,9.17359,0.984,7.3928,305,5,
67.9646,-0.267944,9.17664,0.984,7.3928,305,5,
67.9647,-0.263367,9.17359,0.984,7.3928,305,5,
67.9647,-0.260315,9.17511,0.984,7.3928,305,5,
67.9647,-0.258789,9.17206,0.984,7.3928,305,5,
67.9648,-0.253906,9.17664,0.984,7.3928,305,5,
67.9648,-0.250244,9.17664,0.984,7.3928,305,5,
67.9648,-0.249329,9.17511,0.984,7.3928,305,5,
67.9649,-0.244446,9.17511,0.984,7.3928,305,5,
67.9649,-0.240173,9.17816,0.984,7.3928,305,5,
67.9649,-0.238647,9.17511,0.984,7.3928,305,5,
67.965,-0.234375,9.17359,0.984,7.3928,305,5,
67.965,-0.229797,9.17359,0.984,7.3928,305,5,
67.965,-0.228577,9.17206,0.984,7.3928,305,5,
67.9651,-0.224915,9.17359,0.984,7.3928,305,5,
67.9651,-0.220032,9.17511,0.984,7.3928,305,5,
67.9651,-0.218811,9.17511,0.984,7.3928,305,5,
67.9652,-0.214233,9.17359,0.984,7.3928,305,5,
67.9652,-0.209961,9.17206,0.984,7.3928,305,5,
67.9652,-0.209045,9.17816,0.984,7.3928,305,5,
67.9653,-0.204468,9.17359,0.984,7.3928,305,5,
67.9653,-0.19989,9.17359,0.984,7.3928,305,5,
67.9653,-0.19928,9.17664,0.984,7.3928,305,5,
67.9654,-0.195618,9.17511,0.984,7.3928,305,5,
67.9654,-0.19043,9.17359,0.984,7.3928,305,5,
67.9654,-0.187073,9.17359,0.984,7.3928,305,5,
67.9655,-0.184937,9.17511,0.984,7.3928,305,5,
67.9655,-0.180359,9.17511,0.984,7.3928,305,5,
67.9655,-0.179749,9.17816,0.984,7.3928,305,5,
67.9656,-0.174866,9.17359,0.984,7.3928,305,5,
67.9656,-0.170898,9.17206,0.984,7.3928,305,5,
67.9656,-0.169983,9.17359,0.984,7.3928,305,5,
67.9657,-0.166016,9.17816,0.984,7.3928,305,5,
67.9657,-0.161133,9.17359,0.984,7.3928,305,5,
67.9657,-0.160522,9.17206,0.984,7.3928,305,5,
67.9658,-0.15564,9.17511,0.984,7.3928,305,5,
67.9658,-0.151672,9.17511,0.984,7.3928,305,5,
67.9658,-0.151367,9.17511,0.984,7.3928,305,5,
67.9659,-0.146179,9.17816,0.984,7.3928,305,5,
67.9659,-0.142822,9.17816,0.984,7.3928,305,5,
67.9659,-0.140686,9.17359,0.984,7.3928,305,5,
67.966,-0.136719,9.17664,0.984,7.3928,305,5,
67.966,-0.135193,9.17359,0.984,7.3928,305,5,
67.966,-0.131836,9.17359,0.984,7.3928,305,5,
67.9661,-0.126953,9.17359,0.984,7.3928,305,5,
67.9661,-0.126343,9.17511,0.984,7.3928,305,5,
67.9661,-0.12146,9.17511,0.984,7.3928,305,5,
67.9662,-0.118408,9.17511,0.984,7.3928,305,5,
67.9662,-0.116272,9.17206,0.984,7.3928,305,5,
67.9662,-0.112305,9.17511,0.984,7.3928,305,5,
67.9663,-0.112305,9.17511,0.984,7.3928,305,5,
67.9663,-0.106812,9.17206,0.984,7.3928,305,5,
67.9663,-0.106506,9.17511,0.984,7.3928,305,5,
67.9664,-0.102234,9.17206,0.984,7.3928,305,5,
67.9664,-0.0970459,9.17664,0.984,7.3928,305,5,
67.9664,-0.0970459,9.17511,0.984,7.3928,305,5,
67.9665,-0.0927734,9.17206,0.984,7.3928,305,5,
67.9665,-0.0909424,9.17816,0.984,7.3928,305,5,
67.9665,-0.0872803,9.17206,0.984,7.3928,305,5,
67.9666,-0.0839233,9.17206,0.984,7.3928,305,5,
67.9666,-0.0827026,9.17511,0.984,7.3928,305,5,
67.9666,-0.0778198,9.17206,0.984,7.3928,305,5,
67.9667,-0.0775146,9.17053,0.984,7.3928,305,5,
67.9667,-0.0726318,9.17359,0.984,7.3928,305,5,
67.9667,-0.0732422,9.17359,0.984,7.3928,305,5,
67.9668,-0.0686646,9.17969,0.984,7.3928,305,5,
67.9668,-0.0668335,9.17664,0.984,7.3928,305,5,
67.9668,-0.062561,9.17511,0.984,7.3928,305,5,
67.9669,-0.0616455,9.17664,0.984,7.3928,305,5,
67.9669,-0.0576782,9.17664,0.984,7.3928,305,5,
67.9669,-0.0552368,9.17359,0.984,7.3928,305,5,
67.967,-0.0534058,9.17511,0.984,7.3928,305,5,
67.967,-0.0497437,9.17816,0.984,7.3928,305,5,
67.967,-0.0485229,9.17816,0.984,7.3928,305,5,
67.9671,-0.0454712,9.17053,0.984,7.3928,305,5,
67.9671,-0.0436401,9.17511,0.984,7.3928,305,5,
67.9671,-0.039978,9.17816,0.984,7.3928,305,5,
67.9672,-0.0387573,9.17511,0.984,7.3928,305,5,
67.9672,-0.0335693,9.17664,0.984,7.3928,305,5,
67.9672,-0.0335693,9.17511,0.984,7.3928,305,5,
67.9673,-0.0302124,9.17511,0.984,7.3928,305,5,
67.9673,-0.0289917,9.17359,0.984,7.3928,305,5,
67.9673,-0.0253296,9.17816,0.984,7.3928,305,5,
67.9674,-0.0234985,9.17359,0.984,7.3928,305,5,
67.9674,-0.0204468,9.17511,0.984,7.3928,305,5,
67.9674,-0.0189209,9.17816,0.984,7.3928,305,5,
67.9675,-0.0158691,9.17511,0.984,7.3928,305,5,
67.9675,-0.0140381,9.17359,0.984,7.3928,305,5,
67.9675,-0.0131226,9.17359,0.984,7.3928,305,5,
67.9676,-0.00946045,9.17359,0.984,7.3928,305,5,
67.9676,-0.00915527,9.17511,0.984,7.3928,305,5,
67.9676,-0.00457764,9.17511,0.984,7.3928,305,5,
67.9677,-0.00396729,9.17206,0.984,7.3928,305,5,
67.9677,0.000610352,9.17511,0.984,7.3928,305,5,
67.9677,0.000305176,9.17359,0.984,7.3928,305,5,
67.9678,0.00518799,9.17664,0.984,7.3928,305,5,
67.9678,0.00579834,9.17664,0.984,7.3928,305,5,
67.9678,0.00640869,9.17359,0.984,7.3928,305,5,
67.9679,0.0100708,9.17206,0.984,7.3928,305,5,
67.9679,0.010376,9.17359,0.984,7.3928,305,5,
67.9679,0.0152588,9.17511,0.984,7.3928,305,5,
67.968,0.0161743,9.17359,0.984,7.3928,305,5,
67.968,0.0195312,9.17359,0.984,7.3928,305,5,
67.968,0.0198364,9.17664,0.984,7.3928,305,5,
67.9681,0.0210571,9.17359,0.984,7.3928,305,5,
67.9681,0.0247192,9.17816,0.984,7.3928,305,5,
67.9681,0.0256348,9.17664,0.984,7.3928,305,5,
67.9682,0.0302124,9.17206,0.984,7.3928,305,5,
67.9682,0.0296021,9.17359,0.984,7.3928,305,5,
67.9682,0.0302124,9.17511,0.984,7.3928,305,5,
67.9683,0.0350952,9.17206,0.984,7.3928,305,5,
67.9683,0.0350952,9.17511,0.984,7.3928,305,5,
67.9683,0.0390625,9.17511,0.984,7.3928,305,5,
67.9684,0.039978,9.17511,0.984,7.3928,305,5,
67.9684,0.039978,9.17511,0.984,7.3928,305,5,
67.9684,0.0445557,9.17511,0.984,7.3928,305,5,
67.9685,0.0442505,9.16748,0.984,7.3928,305,5,
67.9685,0.0454712,9.16596,0.984,7.3928,305,5,
67.9685,0.0500488,9.16596,0.984,7.3928,305,5,
67.9686,0.0500488,9.1629,0.984,7.3928,305,5,
67.9686,0.0534058,9.16138,0.984,7.3928,305,5,
67.9686,0.0549316,9.1629,0.984,7.3928,305,5,
67.9687,0.0546265,9.16138,0.984,7.3928,305,5,
67.9687,0.0588989,9.16138,0.984,7.3928,305,5,
67.9687,0.0595093,9.16138,0.984,7.3928,305,5,
67.9688,0.0595093,9.1629,0.984,7.3928,305,5,
67.9688,0.0631714,9.16443,0.984,7.3928,305,5,
67.9688,0.0646973,9.1629,0.984,7.3928,305,5,
67.9689,0.0643921,9.16443,0.984,7.3928,305,5,
67.9689,0.0653076,9.1629,0.984,7.3928,305,5,
67.9689,0.0698853,9.16443,0.984,7.3928,305,5,
67.969,0.0692749,9.16443,0.984,7.3928,305,5,
67.969,0.0695801,9.1629,0.984,7.3928,305,5,
67.969,0.0744629,9.1629,0.984,7.3928,305,5,
67.9691,0.0744629,9.1629,0.984,7.3928,305,5,
67.9691,0.0747681,9.1629,0.984,7.3928,305,5,
67.9691,0.0790405,9.1629,0.984,7.3928,305,5,
67.9692,0.0790405,9.16138,0.984,7.3928,305,5,
67.9692,0.0793457,9.16138,0.984,7.3928,305,5,
67.9692,0.0799561,9.15985,0.984,7.3928,305,5,
67.9693,0.0839233,9.16443,0.984,7.3928,305,5,
67.9693,0.0830078,9.15985,0.984,7.3928,305,5,
67.9693,0.0839233,9.16443,0.984,7.3928,305,5,
67.9694,0.0863647,9.16748,0.984,7.3928,305,5,
67.9694,0.0878906,9.16443,0.984,7.3928,305,5,
67.9694,0.088501,9.1629,0.984,7.3928,305,5,
67.9695,0.0881958,9.15985,0.984,7.3928,305,5,
67.9695,0.0915527,9.16443,0.984,7.3928,305,5,
67.9695,0.0930786,9.16138,0.984,7.3928,305,5,
67.9696,0.093689,9.15833,0.984,7.3928,305,5,
67.9696,0.0930786,9.16138,0.984,7.3928,305,5,
67.9696,0.093689,9.1629,0.984,7.3928,305,5,
67.9697,0.0985718,9.16443,0.984,7.3928,305,5,
67.9697,0.0985718,9.16138,0.984,7.3928,305,5,
67.9697,0.0985718,9.16443,0.984,7.3928,305,5,
67.9698,0.0979614,9.16138,0.984,7.3928,305,5,
67.9698,0.102844,9.1629,0.984,7.3928,305,5,
67.9698,0.102844,9.1629,0.984,7.3928,305,5,
67.9699,0.103455,9.16443,0.984,7.3928,305,5,
67.9699,0.102844,9.15985,0.984,7.3928,305,5,
67.9699,0.10376,9.16138,0.984,7.3928,305,5,
67.97,0.108337,9.16138,0.984,7.3928,305,5,
67.97,0.107727,9.16443,0.984,7.3928,305,5,
67.97,0.108643,9.1629,0.984,7.3928,305,5,
67.9701,0.108032,9.16138,0.984,7.3928,305,5,
67.9701,0.108643,9.1629,0.984,7.3928,305,5,
67.9701,0.11261,9.1629,0.984,7.3928,305,5,
67.9702,0.112915,9.1629,0.984,7.3928,305,5,
67.9702,0.11261,9.1629,0.984,7.3928,305,5,
67.9702,0.11322,9.16443,0.984,7.3928,305,5,
67.9703,0.112915,9.1629,0.984,7.3928,305,5,
67.9703,0.11322,9.16138,0.984,7.3928,305,5,
67.9703,0.117493,9.1629,0.984,7.3928,305,5,
67.9704,0.117798,9.16138,0.984,7.3928,305,5,
67.9704,0.118713,9.16138,0.984,7.3928,305,5,
67.9704,0.117493,9.16443,0.984,7.3928,305,5,
67.9705,0.117798,9.16138,0.984,7.3928,305,5,
67.9705,0.117798,9.16443,0.984,7.3928,305,5,
67.9705,0.122986,9.16138,0.984,7.3928,305,5,
67.9706,0.122375,9.16138,0.984,7.3928,305,5,
67.9706,0.122986,9.1629,0.984,7.3928,305,5,
67.9706,0.122681,9.16138,0.984,7.3928,305,5,
67.9707,0.123291,9.16138,0.984,7.3928,305,5,
67.9707,0.122986,9.16443,0.984,7.3928,305,5,
67.9707,0.123291,9.1629,0.984,7.3928,305,5,
67.9708,0.123596,9.16138,0.984,7.3928,305,5,
67.9708,0.128479,9.16138,0.984,7.3928,305,5,
67.9708,0.127869,9.16443,0.984,7.3928,305,5,
67.9709,0.127869,9.1629,0.984,7.3928,305,5,
67.9709,0.128174,9.1629,0.984,7.3928,305,5,
67.9709,0.128784,9.1629,0.984,7.3928,305,5,
67.971,0.128479,9.16443,0.984,7.3928,305,5,
67.971,0.128174,9.1629,0.984,7.3928,305,5,
67.971,0.128784,9.16596,0.984,7.3928,305,5,
67.9711,0.128479,9.15833,0.984,7.3928,305,5,
67.9711,0.129089,9.1629,0.984,7.3928,305,5,
67.9711,0.133057,9.16138,0.984,7.3928,305,5,
67.9712,0.133667,9.16443,0.984,7.3928,305,5,
67.9712,0.133362,9.16138,0.984,7.3928,305,5,
67.9712,0.132751,9.1629,0.984,7.3928,305,5,
67.9713,0.133057,9.16138,0.984,7.3928,305,5,
67.9713,0.133057,9.16138,0.984,7.3928,305,5,
67.9713,0.131836,9.1629,0.984,7.3928,305,5,
67.9714,0.132446,9.15985,0.984,7.3928,305,5,
67.9714,0.132141,9.1629,0.984,7.3928,305,5,
67.9714,0.132141,9.1629,0.984,7.3928,305,5,
67.9715,0.132751,9.1629,0.984,7.3928,305,5,
67.9715,0.132141,9.15833,0.984,7.3928,305,5,
67.9715,0.132446,9.16138,0.984,7.3928,305,5,
67.9716,0.132141,9.1629,0.984,7.3928,305,5,
67.9716,0.132751,9.16443,0.984,7.3928,305,5,
67.9716,0.135193,9.16443,0.984,7.3928,305,5,
67.9717,0.137634,9.16138,0.984,7.3928,305,5,
67.9717,0.137329,9.16138,0.984,7.3928,305,5,
67.9717,0.137329,9.15985,0.984,7.3928,305,5,
67.9718,0.136719,9.1629,0.984,7.3928,305,5,
67.9718,0.136719,9.1629,0.984,7.3928,305,5,
67.9718,0.137634,9.1629,0.984,7.3928,305,5,
67.9719,0.137634,9.1629,0.984,7.3928,305,5,
67.9719,0.137634,9.16138,0.984,7.3928,305,5,
67.9719,0.137024,9.1629,0.984,7.3928,305,5,
67.972,0.137634,9.15985,0.984,7.3928,305,5,
67.972,0.137939,9.1629,0.984,7.3928,305,5,
67.972,0.137634,9.15985,0.984,7.3928,305,5,
67.9721,0.137634,9.16138,0.984,7.3928,305,5,
67.9721,0.137024,9.1629,0.984,7.3928,305,5,
67.9721,0.137939,9.1629,0.984,7.3928,305,5,
67.9722,0.13855,9.15985,0.984,7.3928,305,5,
67.9722,0.137939,9.1629,0.984,7.3928,305,5,
67.9722,0.138245,9.1629,0.984,7.3928,305,5,
67.9723,0.137634,9.1568,0.984,7.3928,305,5,
67.9723,0.137634,9.14917,0.984,7.3928,305,5,
67.9723,0.137634,9.14917,0.984,7.3928,305,5,
67.9724,0.137329,9.15222,0.984,7.3928,305,5,
67.9724,0.137634,9.1507,0.984,7.3928,305,5,
67.9724,0.137939,9.1507,0.984,7.3928,305,5,
67.9725,0.137634,9.1507,0.984,7.3928,305,5,
67.9725,0.137634,9.14917,0.984,7.3928,305,5,
67.9725,0.138245,9.14917,0.984,7.3928,305,5,
67.9726,0.137329,9.1507,0.984,7.3928,305,5,
67.9726,0.137939,9.14917,0.984,7.3928,305,5,
67.9726,0.137329,9.1507,0.984,7.3928,305,5,
67.9727,0.137939,9.14765,0.984,7.3928,305,5,
67.9727,0.137329,9.1507,0.984,7.3928,305,5,
67.9727,0.137634,9.14917,0.984,7.3928,305,5,
67.9728,0.138245,9.14765,0.984,7.3928,305,5,
67.9728,0.137939,9.15375,0.984,7.3928,305,5,
67.9728,0.137939,9.14917,0.984,7.3928,305,5,
67.9729,0.137634,9.1507,0.984,7.3928,305,5,
67.9729,0.137329,9.14917,0.984,7.3928,305,5,
67.9729,0.133057,9.1507,0.984,7.3928,305,5,
67.973,0.132446,9.1507,0.984,7.3928,305,5,
67.973,0.132446,9.1507,0.984,7.3928,305,5,
67.973,0.132751,9.15222,0.984,7.3928,305,5,
67.9731,0.132751,9.14917,0.984,7.3928,305,5,
67.9731,0.133362,9.1507,0.984,7.3928,305,5,
67.9731,0.133057,9.1507,0.984,7.3928,305,5,
67.9732,0.133057,9.14765,0.984,7.3928,305,5,
67.9732,0.133057,9.14765,0.984,7.3928,305,5,
67.9732,0.132446,9.1507,0.984,7.3928,305,5,
67.9733,0.132446,9.14917,0.984,7.3928,305,5,
67.9733,0.132751,9.14917,0.984,7.3928,305,5,
67.9733,0.132141,9.14765,0.984,7.3928,305,5,
67.9734,0.133057,9.14917,0.984,7.3928,305,5,
67.9734,0.132446,9.1507,0.984,7.3928,305,5,
67.9734,0.133057,9.15375,0.984,7.3928,305,5,
67.9735,0.127869,9.15375,0.984,7.3928,305,5,
67.9735,0.128174,9.14917,0.984,7.3928,305,5,
67.9735,0.128479,9.15222,0.984,7.3928,305,5,
67.9736,0.127258,9.15375,0.984,7.3928,305,5,
67.9736,0.128174,9.1507,0.984,7.3928,305,5,
67.9736,0.128479,9.14917,0.984,7.3928,305,5,
67.9737,0.127563,9.15222,0.984,7.3928,305,5,
67.9737,0.128174,9.14917,0.984,7.3928,305,5,
67.9737,0.127563,9.15375,0.984,7.3928,305,5,
67.9738,0.127563,9.15222,0.984,7.3928,305,5,
67.9738,0.122986,9.1507,0.984,7.3928,305,5,
67.9738,0.122681,9.1507,0.984,7.3928,305,5,
67.9739,0.123901,9.14917,0.984,7.3928,305,5,
67.9739,0.122986,9.14765,0.984,7.3928,305,5,
67.9739,0.122681,9.15222,0.984,7.3928,305,5,
67.974,0.123596,9.15222,0.984,7.3928,305,5,
67.974,0.119629,9.15222,0.984,7.3928,305,5,
67.974,0.117188,9.15222,0.984,7.3928,305,5,
67.9741,0.118103,9.1507,0.984,7.3928,305,5,
67.9741,0.118103,9.14917,0.984,7.3928,305,5,
67.9741,0.117798,9.14917,0.984,7.3928,305,5,
67.9742,0.118408,9.15375,0.984,7.3928,305,5,
67.9742,0.112915,9.14917,0.984,7.3928,305,5,
67.9742,0.113525,9.15222,0.984,7.3928,305,5,
67.9743,0.112915,9.15222,0.984,7.3928,305,5,
67.9743,0.113831,9.14917,0.984,7.3928,305,5,
67.9743,0.109558,9.15222,0.984,7.3928,305,5,
67.9744,0.108337,9.15222,0.984,7.3928,305,5,
67.9744,0.108032,9.15222,0.984,7.3928,305,5,
67.9744,0.108032,9.15375,0.984,7.3928,305,5,
67.9745,0.107117,9.14612,0.984,7.3928,305,5,
67.9745,0.103149,9.14917,0.984,7.3928,305,5,
67.9745,0.103455,9.14917,0.984,7.3928,305,5,
67.9746,0.102844,9.15375,0.984,7.3928,305,5,
67.9746,0.100098,9.1507,0.984,7.3928,305,5,
67.9746,0.0979614,9.14917,0.984,7.3928,305,5,
67.9747,0.0982666,9.1507,0.984,7.3928,305,5,
67.9747,0.0982666,9.15375,0.984,7.3928,305,5,
67.9747,0.0930786,9.14917,0.984,7.3928,305,5,
67.9748,0.093689,9.1507,0.984,7.3928,305,5,
67.9748,0.0933838,9.1507,0.984,7.3928,305,5,
67.9748,0.0888062,9.14765,0.984,7.3928,305,5,
67.9749,0.088501,9.1507,0.984,7.3928,305,5,
67.9749,0.088501,9.15222,0.984,7.3928,305,5,
67.9749,0.085144,9.15375,0.984,7.3928,305,5,
67.975,0.083313,9.15375,0.984,7.3928,305,5,
67.975,0.083313,9.14765,0.984,7.3928,305,5,
67.975,0.0802612,9.15375,0.984,7.3928,305,5,
67.9751,0.0796509,9.14917,0.984,7.3928,305,5,
67.9751,0.0793457,9.14917,0.984,7.3928,305,5,
67.9751,0.0759888,9.14917,0.984,7.3928,305,5,
67.9752,0.0747681,9.15222,0.984,7.3928,305,5,
67.9752,0.0744629,9.1507,0.984,7.3928,305,5,
67.9752,0.0701904,9.14917,0.984,7.3928,305,5,
67.9753,0.0692749,9.14917,0.984,7.3928,305,5,
67.9753,0.0698853,9.1507,0.984,7.3928,305,5,
67.9753,0.0650024,9.15222,0.984,7.3928,305,5,
67.9754,0.0646973,9.1507,0.984,7.3928,305,5,
67.9754,0.0637817,9.14765,0.984,7.3928,305,5,
67.9754,0.0595093,9.1507,0.984,7.3928,305,5,
67.9755,0.0598145,9.14612,0.984,7.3928,305,5,
67.9755,0.0558472,9.15222,0.984,7.3928,305,5,
67.9755,0.0546265,9.14917,0.984,7.3928,305,5,
67.9756,0.0540161,9.1507,0.984,7.3928,305,5,
67.9756,0.050354,9.14917,0.984,7.3928,305,5,
67.9756,0.0500488,9.14917,0.984,7.3928,305,5,
67.9757,0.0463867,9.1507,0.984,7.3928,305,5,
67.9757,0.045166,9.14765,0.984,7.3928,305,5,
67.9757,0.045166,9.14917,0.984,7.3928,305,5,
67.9758,0.0405884,9.14765,0.984,7.3928,305,5,
67.9758,0.039978,9.14612,0.984,7.3928,305,5,
67.9758,0.0369263,9.1507,0.984,7.3928,305,5,
67.9759,0.0350952,9.14765,0.984,7.3928,305,5,
67.9759,0.0341797,9.1507,0.984,7.3928,305,5,
67.9759,0.0305176,9.14917,0.984,7.3928,305,5,
67.976,0.0308228,9.14765,0.984,7.3928,305,5,
67.976,0.0253296,9.15222,0.984,7.3928,305,5,
67.976,0.0256348,9.1507,0.984,7.3928,305,5,
67.9761,0.0219727,9.14917,0.984,7.3928,305,5,
67.9761,0.0201416,9.14612,0.984,7.3928,305,5,
67.9761,0.0198364,9.14765,0.984,7.3928,305,5,
67.9762,0.0149536,9.15222,0.984,7.3928,305,5,
67.9762,0.015564,9.15375,0.984,7.3928,305,5,
67.9762,0.0106812,9.15375,0.984,7.3928,305,5,
67.9763,0.0109863,9.14917,0.984,7.3928,305,5,
67.9763,0.00610352,9.1507,0.984,7.3928,305,5,
67.9763,0.00579834,9.1507,0.984,7.3928,305,5,
67.9764,0.000610352,9.1507,0.984,7.3928,305,5,
67.9764,0.000610352,9.15222,0.984,7.3928,305,5,
67.9764,-0.00305176,9.1507,0.984,7.3928,305,5,
67.9765,-0.00396729,9.15222,0.984,7.3928,305,5,
67.9765,-0.00457764,9.15222,0.984,7.3928,305,5,
67.9765,-0.00854492,9.14765,0.984,7.3928,305,5,
67.9766,-0.00915527,9.14917,0.984,7.3928,305,5,
67.9766,-0.0143433,9.14917,0.984,7.3928,305,5,
67.9766,-0.0137329,9.14307,0.984,7.3928,305,5,
67.9767,-0.0186157,9.1507,0.984,7.3928,305,5,
67.9767,-0.0189209,9.14917,0.984,7.3928,305,5,
67.9767,-0.0231934,9.1507,0.984,7.3928,305,5,
67.9768,-0.0231934,9.15222,0.984,7.3928,305,5,
67.9768,-0.0280762,9.1507,0.984,7.3928,305,5,
67.9768,-0.0286865,9.15222,0.984,7.3928,305,5,
67.9769,-0.032959,9.1507,0.984,7.3928,305,5,
67.9769,-0.0338745,9.14765,0.984,7.3928,305,5,
67.9769,-0.038147,9.14765,0.984,7.3928,305,5,
67.977,-0.038147,9.1507,0.984,7.3928,305,5,
67.977,-0.0411987,9.14917,0.984,7.3928,305,5,
67.977,-0.043335,9.14612,0.984,7.3928,305,5,
67.9771,-0.0466919,9.15375,0.984,7.3928,305,5,
67.9771,-0.0482178,9.14917,0.984,7.3928,305,5,
67.9771,-0.0512695,9.1507,0.984,7.3928,305,5,
67.9772,-0.0527954,9.1507,0.984,7.3928,305,5,
67.9772,-0.0561523,9.14917,0.984,7.3928,305,5,
67.9772,-0.0576782,9.14917,0.984,7.3928,305,5,
67.9773,-0.0613403,9.1507,0.984,7.3928,305,5,
67.9773,-0.062561,9.14765,0.984,7.3928,305,5,
67.9773,-0.0665283,9.1507,0.984,7.3928,305,5,
67.9774,-0.0671387,9.15375,0.984,7.3928,305,5,
67.9774,-0.071106,9.1507,0.984,7.3928,305,5,
67.9774,-0.072937,9.14917,0.984,7.3928,305,5,
67.9775,-0.0756836,9.14917,0.984,7.3928,305,5,
67.9775,-0.0772095,9.13849,0.984,7.3928,305,5,
67.9775,-0.0805664,9.14002,0.984,7.3928,305,5,
67.9776,-0.0817871,9.13544,0.984,7.3928,305,5,
67.9776,-0.0869751,9.14002,0.984,7.3928,305,5,
67.9776,-0.0875854,9.13544,0.984,7.3928,305,5,
67.9777,-0.0921631,9.14002,0.984,7.3928,305,5,
67.9777,-0.0918579,9.13849,0.984,7.3928,305,5,
67.9777,-0.0973511,9.13849,0.984,7.3928,305,5,
67.9778,-0.0976562,9.14154,0.984,7.3928,305,5,
67.9778,-0.102234,9.13696,0.984,7.3928,305,5,
67.9778,-0.103149,9.13696,0.984,7.3928,305,5,
67.9779,-0.106506,9.14002,0.984,7.3928,305,5,
67.9779,-0.111389,9.13544,0.984,7.3928,305,5,
67.9779,-0.111084,9.13849,0.984,7.3928,305,5,
67.978,-0.115051,9.14002,0.984,7.3928,305,5,
67.978,-0.116882,9.14154,0.984,7.3928,305,5,
67.978,-0.12146,9.14002,0.984,7.3928,305,5,
67.9781,-0.12146,9.13696,0.984,7.3928,305,5,
67.9781,-0.126648,9.13849,0.984,7.3928,305,5,
67.9781,-0.127563,9.13849,0.984,7.3928,305,5,
67.9782,-0.131531,9.13696,0.984,7.3928,305,5,
67.9782,-0.134888,9.13849,0.984,7.3928,305,5,
67.9782,-0.136414,9.14154,0.984,7.3928,305,5,
67.9783,-0.141296,9.13391,0.984,7.3928,305,5,
67.9783,-0.141907,9.13696,0.984,7.3928,305,5,
67.9783,-0.14679,9.13849,0.984,7.3928,305,5,
67.9784,-0.146179,9.13696,0.984,7.3928,305,5,
67.9784,-0.150452,9.13696,0.984,7.3928,305,5,
67.9784,-0.152283,9.13696,0.984,7.3928,305,5,
67.9785,-0.15564,9.13696,0.984,7.3928,305,5,
67.9785,-0.159302,9.14002,0.984,7.3928,305,5,
67.9785,-0.161743,9.14002,0.984,7.3928,305,5,
67.9786,-0.1651,9.13849,0.984,7.3928,305,5,
67.9786,-0.166016,9.13696,0.984,7.3928,305,5,
67.9786,-0.170593,9.13696,0.984,7.3928,305,5,
67.9787,-0.171814,9.13849,0.984,7.3928,305,5,
67.9787,-0.175476,9.14002,0.984,7.3928,305,5,
67.9787,-0.178833,9.13849,0.984,7.3928,305,5,
67.9788,-0.180664,9.13849,0.984,7.3928,305,5,
67.9788,-0.184631,9.13849,0.984,7.3928,305,5,
67.9788,-0.185852,9.13544,0.984,7.3928,305,5,
67.9789,-0.190125,9.13391,0.984,7.3928,305,5,
67.9789,-0.190735,9.13696,0.984,7.3928,305,5,
67.9789,-0.195312,9.13849,0.984,7.3928,305,5,
67.979,-0.198975,9.13849,0.984,7.3928,305,5,
67.979,-0.19989,9.13696,0.984,7.3928,305,5,
67.979,-0.204163,9.14002,0.984,7.3928,305,5,
67.9791,-0.204773,9.14002,0.984,7.3928,305,5,
67.9791,-0.210266,9.13696,0.984,7.3928,305,5,
67.9791,-0.210876,9.13849,0.984,7.3928,305,5,
67.9792,-0.214844,9.13849,0.984,7.3928,305,5,
67.9792,-0.218506,9.13544,0.984,7.3928,305,5,
67.9792,-0.220032,9.13849,0.984,7.3928,305,5,
67.9793,-0.224915,9.13849,0.984,7.3928,305,5,
67.9793,-0.226135,9.13849,0.984,7.3928,305,5,
67.9793,-0.229797,9.13696,0.984,7.3928,305,5,
67.9794,-0.233154,9.13696,0.984,7.3928,305,5,
67.9794,-0.235291,9.13849,0.984,7.3928,305,5,
67.9794,-0.238953,9.14154,0.984,7.3928,305,5,
67.9795,-0.240173,9.13544,0.984,7.3928,305,5,
67.9795,-0.243835,9.13696,0.984,7.3928,305,5,
67.9795,-0.244446,9.13696,0.984,7.3928,305,5,
67.9796,-0.249023,9.13544,0.984,7.3928,305,5,
67.9796,-0.25177,9.13849,0.984,7.3928,305,5,
67.9796,-0.253906,9.13696,0.984,7.3928,305,5,
67.9797,-0.257874,9.13849,0.984,7.3928,305,5,
67.9797,-0.259094,9.13391,0.984,7.3928,305,5,
67.9797,-0.263062,9.13544,0.984,7.3928,305,5,
67.9798,-0.266418,9.13696,0.984,7.3928,305,5,
67.9798,-0.26825,9.13849,0.984,7.3928,305,5,
67.9798,-0.272522,9.13849,0.984,7.3928,305,5,
67.9799,-0.273438,9.14002,0.984,7.3928,305,5,
67.9799,-0.27832,9.13696,0.984,7.3928,305,5,
67.9799,-0.281982,9.14002,0.984,7.3928,305,5,
67.98,-0.283508,9.13696,0.984,7.3928,305,5,
67.98,-0.288391,9.14002,0.984,7.3928,305,5,
67.98,-0.288696,9.14002,0.984,7.3928,305,5,
67.9801,-0.293579,9.14002,0.984,7.3928,305,5,
67.9801,-0.294189,9.13544,0.984,7.3928,305,5,
67.9801,-0.298767,9.13849,0.984,7.3928,305,5,
67.9802,-0.302734,9.13849,0.984,7.3928,305,5,
67.9802,-0.303345,9.13696,0.984,7.3928,305,5,
67.9802,-0.307922,9.14002,0.984,7.3928,305,5,
67.9803,-0.308838,9.13696,0.984,7.3928,305,5,
67.9803,-0.313721,9.14002,0.984,7.3928,305,5,
67.9803,-0.316467,9.13849,0.984,7.3928,305,5,
67.9804,-0.317993,9.13696,0.984,7.3928,305,5,
67.9804,-0.322876,9.13696,0.984,7.3928,305,5,
67.9804,-0.323792,9.13391,0.984,7.3928,305,5,
67.9805,-0.327454,9.13849,0.984,7.3928,305,5,
67.9805,-0.331116,9.13849,0.984,7.3928,305,5,
67.9805,-0.332947,9.13544,0.984,7.3928,305,5,
67.9806,-0.336609,9.14002,0.984,7.3928,305,5,
67.9806,-0.33844,9.13849,0.984,7.3928,305,5,
67.9806,-0.342407,9.13696,0.984,7.3928,305,5,
67.9807,-0.345154,9.13849,0.984,7.3928,305,5,
67.9807,-0.346985,9.14154,0.984,7.3928,305,5,
67.9807,-0.351562,9.14002,0.984,7.3928,305,5,
67.9808,-0.352478,9.13696,0.984,7.3928,305,5,
67.9808,-0.35675,9.13696,0.984,7.3928,305,5,
67.9808,-0.357971,9.14002,0.984,7.3928,305,5,
67.9809,-0.362244,9.14154,0.984,7.3928,305,5,
67.9809,-0.365295,9.13849,0.984,7.3928,305,5,
67.9809,-0.367126,9.13544,0.984,7.3928,305,5,
67.981,-0.371094,9.14002,0.984,7.3928,305,5,
67.981,-0.371704,9.13544,0.984,7.3928,305,5,
67.981,-0.376892,9.13696,0.984,7.3928,305,5,
67.9811,-0.377502,9.14002,0.984,7.3928,305,5,
67.9811,-0.382385,9.13391,0.984,7.3928,305,5,
67.9811,-0.385132,9.13544,0.984,7.3928,305,5,
67.9812,-0.386353,9.14002,0.984,7.3928,305,5,
67.9812,-0.391235,9.13849,0.984,7.3928,305,5,
67.9812,-0.391541,9.13849,0.984,7.3928,305,5,
67.9813,-0.396423,9.13696,0.984,7.3928,305,5,
67.9813,-0.396729,9.13544,0.984,7.3928,305,5,
67.9813,-0.401306,9.13544,0.984,7.3928,305,5,
67.9814,-0.404053,9.13849,0.984,7.3928,305,5,
67.9814,-0.406189,9.14002,0.984,7.3928,305,5,
67.9814,-0.408936,9.14154,0.984,7.3928,305,5,
67.9815,-0.411682,9.13849,0.984,7.3928,305,5,
67.9815,-0.415955,9.13849,0.984,7.3928,305,5,
67.9815,-0.416565,9.14002,0.984,7.3928,305,5,
67.9816,-0.420837,9.13391,0.984,7.3928,305,5,
67.9816,-0.421143,9.14002,0.984,7.3928,305,5,
67.9816,-0.426636,9.14154,0.984,7.3928,305,5,
67.9817,-0.426636,9.14002,0.984,7.3928,305,5,
67.9817,-0.430908,9.14002,0.984,7.3928,305,5,
67.9817,-0.431213,9.13544,0.984,7.3928,305,5,
67.9818,-0.434265,9.13696,0.984,7.3928,305,5,
67.9818,-0.438538,9.13696,0.984,7.3928,305,5,
67.9818,-0.440063,9.13849,0.984,7.3928,305,5,
67.9819,-0.44281,9.13696,0.984,7.3928,305,5,
67.9819,-0.445251,9.13849,0.984,7.3928,305,5,
67.9819,-0.450134,9.13696,0.984,7.3928,305,5,
67.982,-0.449829,9.14002,0.984,7.3928,305,5,
67.982,-0.454712,9.13696,0.984,7.3928,305,5,
67.982,-0.455017,9.13696,0.984,7.3928,305,5,
67.9821,-0.460205,9.13696,0.984,7.3928,305,5,
67.9821,-0.46051,9.14154,0.984,7.3928,305,5,
67.9821,-0.464478,9.14002,0.984,7.3928,305,5,
67.9822,-0.465088,9.13849,0.984,7.3928,305,5,
67.9822,-0.469666,9.13849,0.984,7.3928,305,5,
67.9822,-0.472107,9.13849,0.984,7.3928,305,5,
67.9823,-0.474243,9.14002,0.984,7.3928,305,5,
67.9823,-0.479126,9.13849,0.984,7.3928,305,5,
67.9823,-0.479736,9.14002,0.984,7.3928,305,5,
67.9824,-0.484009,9.13849,0.984,7.3928,305,5,
67.9824,-0.484314,9.14002,0.984,7.3928,305,5,
67.9824,-0.489197,9.14002,0.984,7.3928,305,5,
67.9825,-0.490112,9.13849,0.984,7.3928,305,5,
67.9825,-0.49408,9.14154,0.984,7.3928,305,5,
67.9825,-0.498047,9.14002,0.984,7.3928,305,5,
67.9826,-0.499268,9.13849,0.984,7.3928,305,5,
67.9826,-0.503845,9.13696,0.984,7.3928,305,5,
67.9826,-0.503845,9.14002,0.984,7.3928,305,5,
67.9827,-0.509033,9.13849,0.984,7.3928,305,5,
67.9827,-0.509949,9.13696,0.984,7.3928,305,5,
67.9827,-0.513611,9.14002,0.984,7.3928,305,5,
67.9828,-0.517273,9.13544,0.984,7.3928,305,5,
67.9828,-0.519104,9.13544,0.984,7.3928,305,5,
67.9828,-0.523071,9.14154,0.984,7.3928,305,5,
67.9829,-0.524597,9.13849,0.984,7.3928,305,5,
67.9829,-0.528564,9.13849,0.984,7.3928,305,5,
67.9829,-0.531616,9.13849,0.984,7.3928,305,5,
67.983,-0.533447,9.14154,0.984,7.3928,305,5,
67.983,-0.53772,9.13849,0.984,7.3928,305,5,
67.983,-0.538025,9.13544,0.984,7.3928,305,5,
67.9831,-0.543213,9.13849,0.984,7.3928,305,5,
67.9831,-0.545959,9.14002,0.984,7.3928,305,5,
67.9831,-0.548401,9.13849,0.984,7.3928,305,5,
67.9832,-0.552673,9.13544,0.984,7.3928,305,5,
67.9832,-0.553894,9.13849,0.984,7.3928,305,5,
67.9832,-0.558777,9.13696,0.984,7.3928,305,5,
67.9833,-0.560608,9.13849,0.984,7.3928,305,5,
67.9833,-0.562134,9.13696,0.984,7.3928,305,5,
67.9833,-0.567017,9.13849,0.984,7.3928,305,5,
67.9834,-0.568237,9.13849,0.984,7.3928,305,5,
67.9834,-0.572815,9.13696,0.984,7.3928,305,5,
67.9834,-0.575562,9.13849,0.984,7.3928,305,5,
67.9835,-0.577393,9.13849,0.984,7.3928,305,5,
67.9835,-0.582275,9.13849,0.984,7.3928,305,5,
67.9835,-0.583496,9.14002,0.984,7.3928,305,5,
67.9836,-0.587769,9.14154,0.984,7.3928,305,5,
67.9836,-0.591736,9.14002,0.984,7.3928,305,5,
67.9836,-0.592957,9.13696,0.984,7.3928,305,5,
67.9837,-0.596619,9.13849,0.984,7.3928,305,5,
67.9837,-0.601196,9.13696,0.984,7.3928,305,5,
67.9837,-0.602112,9.14002,0.984,7.3928,305,5,
67.9838,-0.6073,9.13849,0.984,7.3928,305,5,
67.9838,-0.60791,9.13849,0.984,7.3928,305,5,
67.9838,-0.611877,9.13696,0.984,7.3928,305,5,
67.9839,-0.617065,9.13849,0.984,7.3928,305,5,
67.9839,-0.617676,9.13696,0.984,7.3928,305,5,
67.9839,-0.622253,9.13849,0.984,7.3928,305,5,
67.984,-0.624695,9.13849,0.984,7.3928,305,5,
67.984,-0.626526,9.14002,0.984,7.3928,305,5,
67.984,-0.632019,9.14154,0.984,7.3928,305,5,
67.9841,-0.632629,9.13849,0.984,7.3928,305,5,
67.9841,-0.636292,9.14154,0.984,7.3928,305,5,
67.9841,-0.641174,9.13544,0.984,7.3928,305,5,
67.9842,-0.640869,9.13544,0.984,7.3928,305,5,
67.9842,-0.646057,9.13849,0.984,7.3928,305,5,
67.9842,-0.649719,9.14002,0.984,7.3928,305,5,
67.9843,-0.651245,9.13696,0.984,7.3928,305,5,
67.9843,-0.655823,9.13849,0.984,7.3928,305,5,
67.9843,-0.657349,9.13544,0.984,7.3928,305,5,
67.9844,-0.661316,9.13849,0.984,7.3928,305,5,
67.9844,-0.664978,9.14002,0.984,7.3928,305,5,
67.9844,-0.666504,9.14154,0.984,7.3928,305,5,
67.9845,-0.670471,9.13696,0.984,7.3928,305,5,
67.9845,-0.671387,9.13849,0.984,7.3928,305,5,
67.9845,-0.675354,9.13696,0.984,7.3928,305,5,
67.9846,-0.679932,9.13696,0.984,7.3928,305,5,
67.9846,-0.680237,9.13849,0.984,7.3928,305,5,
67.9846,-0.68573,9.13696,0.984,7.3928,305,5,
67.9847,-0.689392,9.14002,0.984,7.3928,305,5,
67.9847,-0.689697,9.13696,0.984,7.3928,305,5,
67.9847,-0.69458,9.13696,0.984,7.3928,305,5,
67.9848,-0.696106,9.13849,0.984,7.3928,305,5,
67.9848,-0.700378,9.13544,0.984,7.3928,305,5,
67.9848,-0.704651,9.13849,0.984,7.3928,305,5,
67.9849,-0.704956,9.13696,0.984,7.3928,305,5,
67.9849,-0.709839,9.13849,0.984,7.3928,305,5,
67.9849,-0.711365,9.13696,0.984,7.3928,305,5,
67.985,-0.714417,9.13544,0.984,7.3928,305,5,
67.985,-0.718079,9.13849,0.984,7.3928,305,5,
67.985,-0.720215,9.13696,0.984,7.3928,305,5,
67.9851,-0.724792,9.13849,0.984,7.3928,305,5,
67.9851,-0.725403,9.14002,0.984,7.3928,305,5,
67.9851,-0.729675,9.13849,0.984,7.3928,305,5,
67.9852,-0.72998,9.13696,0.984,7.3928,305,5,
67.9852,-0.734863,9.13849,0.984,7.3928,305,5,
67.9852,-0.737915,9.13696,0.984,7.3928,305,5,
67.9853,-0.738525,9.13696,0.984,7.3928,305,5,
67.9853,-0.744324,9.14002,0.984,7.3928,305,5,
67.9853,-0.744934,9.13849,0.984,7.3928,305,5,
67.9854,-0.749512,9.13849,0.984,7.3928,305,5,
67.9854,-0.753174,9.13391,0.984,7.3928,305,5,
67.9854,-0.754089,9.13544,0.984,7.3928,305,5,
67.9855,-0.757751,9.13849,0.984,7.3928,305,5,
67.9855,-0.758667,9.14154,0.984,7.3928,305,5,
67.9855,-0.763855,9.14307,0.984,7.3928,305,5,
67.9856,-0.763855,9.14765,0.984,7.3928,305,5,
67.9856,-0.768738,9.14612,0.984,7.3928,305,5,
67.9856,-0.769348,9.1507,0.984,7.3928,305,5,
67.9857,-0.774536,9.1507,0.984,7.3928,305,5,
67.9857,-0.774231,9.15222,0.984,7.3928,305,5,
67.9857,-0.778503,9.14917,0.984,7.3928,305,5,
67.9858,-0.782471,9.14765,0.984,7.3928,305,5,
67.9858,-0.783081,9.14765,0.984,7.3928,305,5,
67.9858,-0.787964,9.14917,0.984,7.3928,305,5,
67.9859,-0.788574,9.1507,0.984,7.3928,305,5,
67.9859,-0.792236,9.14765,0.984,7.3928,305,5,
67.9859,-0.793152,9.14917,0.984,7.3928,305,5,
67.986,-0.797729,9.1507,0.984,7.3928,305,5,
67.986,-0.798645,9.14917,0.984,7.3928,305,5,
67.986,-0.802917,9.1507,0.984,7.3928,305,5,
67.9861,-0.803528,9.1507,0.984,7.3928,305,5,
67.9861,-0.8078,9.14765,0.984,7.3928,305,5,
67.9861,-0.8078,9.14917,0.984,7.3928,305,5,
67.9862,-0.812683,9.1507,0.984,7.3928,305,5,
67.9862,-0.813293,9.1507,0.984,7.3928,305,5,
67.9862,-0.817261,9.14612,0.984,7.3928,305,5,
67.9863,-0.817566,9.1507,0.984,7.3928,305,5,
67.9863,-0.822754,9.1568,0.984,7.3928,305,5,
67.9863,-0.822754,9.14765,0.984,7.3928,305,5,
67.9864,-0.827637,9.14765,0.984,7.3928,305,5,
67.9864,-0.827942,9.14765,0.984,7.3928,305,5,
67.9864,-0.832214,9.15375,0.984,7.3928,305,5,
67.9865,-0.83252,9.15375,0.984,7.3928,305,5,
67.9865,-0.837097,9.14917,0.984,7.3928,305,5,
67.9865,-0.837708,9.14917,0.984,7.3928,305,5,
67.9866,-0.84198,9.14765,0.984,7.3928,305,5,
67.9866,-0.842285,9.1507,0.984,7.3928,305,5,
67.9866,-0.846252,9.14765,0.984,7.3928,305,5,
67.9867,-0.847168,9.15222,0.984,7.3928,305,5,
67.9867,-0.847473,9.15222,0.984,7.3928,305,5,
67.9867,-0.852966,9.14917,0.984,7.3928,305,5,
67.9868,-0.852356,9.1507,0.984,7.3928,305,5,
67.9868,-0.856628,9.14917,0.984,7.3928,305,5,
67.9868,-0.857239,9.15222,0.984,7.3928,305,5,
67.9869,-0.861511,9.1507,0.984,7.3928,305,5,
67.9869,-0.862427,9.15222,0.984,7.3928,305,5,
67.9869,-0.865479,9.1507,0.984,7.3928,305,5,
67.987,-0.866699,9.15375,0.984,7.3928,305,5,
67.987,-0.86792,9.14917,0.984,7.3928,305,5,
67.987,-0.871582,9.15527,0.984,7.3928,305,5,
67.9871,-0.871887,9.1507,0.984,7.3928,305,5,
67.9871,-0.87677,9.14917,0.984,7.3928,305,5,
67.9871,-0.87616,9.1507,0.984,7.3928,305,5,
67.9872,-0.880127,9.1507,0.984,7.3928,305,5,
67.9872,-0.881348,9.14765,0.984,7.3928,305,5,
67.9872,-0.881958,9.15375,0.984,7.3928,305,5,
67.9873,-0.885925,9.1507,0.984,7.3928,305,5,
67.9873,-0.886536,9.1507,0.984,7.3928,305,5,
67.9873,-0.889282,9.14917,0.984,7.3928,305,5,
67.9874,-0.891418,9.1507,0.984,7.3928,305,5,
67.9874,-0.891418,9.15222,0.984,7.3928,305,5,
67.9874,-0.896301,9.1507,0.984,7.3928,305,5,
67.9875,-0.895691,9.14917,0.984,7.3928,305,5,
67.9875,-0.896606,9.1507,0.984,7.3928,305,5,
67.9875,-0.901489,9.14917,0.984,7.3928,305,5,
67.9876,-0.901794,9.15222,0.984,7.3928,305,5,
67.9876,-0.905762,9.15222,0.984,7.3928,305,5,
67.9876,-0.906677,9.14917,0.984,7.3928,305,5,
67.9877,-0.905762,9.14917,0.984,7.3928,305,5,
67.9877,-0.91095,9.1507,0.984,7.3928,305,5,
67.9877,-0.91095,9.15375,0.984,7.3928,305,5,
67.9878,-0.911865,9.1507,0.984,7.3928,305,5,
67.9878,-0.915833,9.14917,0.984,7.3928,305,5,
67.9878,-0.915833,9.1507,0.984,7.3928,305,5,
67.9879,-0.916138,9.15222,0.984,7.3928,305,5,
67.9879,-0.920715,9.14917,0.984,7.3928,305,5,
67.9879,-0.920715,9.15222,0.984,7.3928,305,5,
67.988,-0.921936,9.14917,0.984,7.3928,305,5,
67.988,-0.926208,9.14917,0.984,7.3928,305,5,
67.988,-0.925598,9.14765,0.984,7.3928,305,5,
67.9881,-0.926819,9.14917,0.984,7.3928,305,5,
67.9881,-0.930786,9.1507,0.984,7.3928,305,5,
67.9881,-0.930176,9.14917,0.984,7.3928,305,5,
67.9882,-0.931396,9.15375,0.984,7.3928,305,5,
67.9882,-0.935364,9.1507,0.984,7.3928,305,5,
67.9882,-0.935364,9.14917,0.984,7.3928,305,5,
67.9883,-0.935669,9.1507,0.984,7.3928,305,5,
67.9883,-0.940247,9.15222,0.984,7.3928,305,5,
67.9883,-0.940857,9.1507,0.984,7.3928,305,5,
67.9884,-0.939941,9.1507,0.984,7.3928,305,5,
67.9884,-0.945129,9.14917,0.984,7.3928,305,5,
67.9884,-0.945129,9.1507,0.984,7.3928,305,5,
67.9885,-0.944824,9.15375,0.984,7.3928,305,5,
67.9885,-0.94574,9.1507,0.984,7.3928,305,5,
67.9885,-0.950317,9.15222,0.984,7.3928,305,5,
67.9886,-0.950623,9.15222,0.984,7.3928,305,5,
67.9886,-0.950317,9.14917,0.984,7.3928,305,5,
67.9886,-0.954895,9.15375,0.984,7.3928,305,5,
67.9887,-0.954895,9.14765,0.984,7.3928,305,5,
67.9887,-0.954895,9.14765,0.984,7.3928,305,5,
67.9887,-0.955505,9.1507,0.984,7.3928,305,5,
67.9888,-0.959473,9.1507,0.984,7.3928,305,5,
67.9888,-0.960083,9.1507,0.984,7.3928,305,5,
67.9888,-0.959778,9.15222,0.984,7.3928,305,5,
67.9889,-0.960388,9.15222,0.984,7.3928,305,5,
67.9889,-0.965271,9.1507,0.984,7.3928,305,5,
67.9889,-0.965271,9.1507,0.984,7.3928,305,5,
67.989,-0.965576,9.1507,0.984,7.3928,305,5,
67.989,-0.968628,9.1507,0.984,7.3928,305,5,
67.989,-0.970459,9.1507,0.984,7.3928,305,5,
67.9891,-0.969543,9.15222,0.984,7.3928,305,5,
67.9891,-0.970154,9.14765,0.984,7.3928,305,5,
67.9891,-0.9729,9.1507,0.984,7.3928,305,5,
67.9892,-0.974731,9.15222,0.984,7.3928,305,5,
67.9892,-0.974731,9.14917,0.984,7.3928,305,5,
67.9892,-0.975037,9.15375,0.984,7.3928,305,5,
67.9893,-0.975647,9.14765,0.984,7.3928,305,5,
67.9893,-0.979614,9.14917,0.984,7.3928,305,5,
67.9893,-0.979919,9.15375,0.984,7.3928,305,5,
67.9894,-0.979004,9.15222,0.984,7.3928,305,5,
67.9894,-0.979919,9.14765,0.984,7.3928,305,5,
67.9894,-0.983276,9.15375,0.984,7.3928,305,5,
67.9895,-0.984192,9.14917,0.984,7.3928,305,5,
67.9895,-0.984192,9.15375,0.984,7.3928,305,5,
67.9895,-0.984192,9.1507,0.984,7.3928,305,5,
67.9896,-0.985413,9.1507,0.984,7.3928,305,5,
67.9896,-0.98877,9.1507,0.984,7.3928,305,5,
67.9896,-0.989075,9.1507,0.984,7.3928,305,5,
67.9897,-0.989685,9.15222,0.984,7.3928,305,5,
67.9897,-0.989685,9.1507,0.984,7.3928,305,5,
67.9897,-0.990295,9.14917,0.984,7.3928,305,5,
67.9898,-0.993958,9.15222,0.984,7.3928,305,5,
67.9898,-0.994568,9.1507,0.984,7.3928,305,5,
67.9898,-0.994263,9.14612,0.984,7.3928,305,5,
67.9899,-0.994263,9.1507,0.984,7.3928,305,5,
67.9899,-0.994263,9.1507,0.984,7.3928,305,5,
67.9899,-0.99884,9.1507,0.984,7.3928,305,5,
67.99,-0.99884,9.15222,0.984,7.3928,305,5,
67.99,-0.99884,9.14917,0.984,7.3928,305,5,
67.99,-0.998535,9.14917,0.984,7.3928,305,5,
67.9901,-0.99884,9.1507,0.984,7.3928,305,5,
67.9901,-0.999756,9.1507,0.984,7.3928,305,5,
67.9901,-1.00433,9.1507,0.984,7.3928,305,5,
67.9902,-1.00403,9.15222,0.984,7.3928,305,5,
67.9902,-1.00311,9.14917,0.984,7.3928,305,5,
67.9902,-1.00403,9.15222,0.984,7.3928,305,5,
67.9903,-1.00433,9.15222,0.984,7.3928,305,5,
67.9903,-1.00372,9.14765,0.984,7.3928,305,5,
67.9903,-1.00891,9.14917,0.984,7.3928,305,5,
67.9904,-1.008,9.14765,0.984,7.3928,305,5,
67.9904,-1.0083,9.15222,0.984,7.3928,305,5,
67.9904,-1.00861,9.14917,0.984,7.3928,305,5,
67.9905,-1.00922,9.14917,0.984,7.3928,305,5,
67.9905,-1.00922,9.1507,0.984,7.3928,305,5,
67.9905,-1.00891,9.15222,0.984,7.3928,305,5,
67.9906,-1.01318,9.1507,0.984,7.3928,305,5,
67.9906,-1.01379,9.15375,0.984,7.3928,305,5,
67.9906,-1.0141,9.14917,0.984,7.3928,305,5,
67.9907,-1.0144,9.15375,0.984,7.3928,305,5,
67.9907,-1.01379,9.15222,0.984,7.3928,305,5,
67.9907,-1.0141,9.1507,0.984,7.3928,305,5,
67.9908,-1.0144,9.14917,0.984,7.3928,305,5,
67.9908,-1.0144,9.1507,0.984,7.3928,305,5,
67.9908,-1.01379,9.14917,0.984,7.3928,305,5,
67.9909,-1.01715,9.1507,0.984,7.3928,305,5,
67.9909,-1.01898,9.1507,0.984,7.3928,305,5,
67.9909,-1.01929,9.14612,0.984,7.3928,305,5,
67.991,-1.01898,9.14917,0.984,7.3928,305,5,
67.991,-1.01898,9.1507,0.984,7.3928,305,5,
67.991,-1.01837,9.15375,0.984,7.3928,305,5,
67.9911,-1.01929,9.15222,0.984,7.3928,305,5,
67.9911,-1.01929,9.1507,0.984,7.3928,305,5,
67.9911,-1.01837,9.15222,0.984,7.3928,305,5,
67.9912,-1.01929,9.14917,0.984,7.3928,305,5,
67.9912,-1.01898,9.1507,0.984,7.3928,305,5,
67.9912,-1.01898,9.1507,0.984,7.3928,305,5,
67.9913,-1.01898,9.16138,0.984,7.3928,305,5,
67.9913,-1.02325,9.1629,0.984,7.3928,305,5,
67.9913,-1.02356,9.16443,0.984,7.3928,305,5,
67.9914,-1.02325,9.16596,0.984,7.3928,305,5,
67.9914,-1.02325,9.1629,0.984,7.3928,305,5,
67.9914,-1.02417,9.16138,0.984,7.3928,305,5,
67.9915,-1.02417,9.15985,0.984,7.3928,305,5,
67.9915,-1.02325,9.16443,0.984,7.3928,305,5,
67.9915,-1.02356,9.16443,0.984,7.3928,305,5,
67.9916,-1.02417,9.16138,0.984,7.3928,305,5,
67.9916,-1.02448,9.15833,0.984,7.3928,305,5,
67.9916,-1.02448,9.16138,0.984,7.3928,305,5,
67.9917,-1.02295,9.1629,0.984,7.3928,305,5,
67.9917,-1.02325,9.1629,0.984,7.3928,305,5,
67.9917,-1.02386,9.15833,0.984,7.3928,305,5,
67.9918,-1.02417,9.16443,0.984,7.3928,305,5,
67.9918,-1.02356,9.1629,0.984,7.3928,305,5,
67.9918,-1.02386,9.16138,0.984,7.3928,305,5,
67.9919,-1.02386,9.15985,0.984,7.3928,305,5,
67.9919,-1.02386,9.16138,0.984,7.3928,305,5,
67.9919,-1.02448,9.1629,0.984,7.3928,305,5,
67.992,-1.02386,9.16596,0.984,7.3928,305,5,
67.992,-1.02356,9.1629,0.984,7.3928,305,5,
67.992,-1.02386,9.16443,0.984,7.3928,305,5,
67.9921,-1.02356,9.16138,0.984,7.3928,305,5,
67.9921,-1.02325,9.16443,0.984,7.3928,305,5,
67.9921,-1.02356,9.16138,0.984,7.3928,305,5,
67.9922,-1.02356,9.1629,0.984,7.3928,305,5,
67.9922,-1.02356,9.16138,0.984,7.3928,305,5,
67.9922,-1.02264,9.1629,0.984,7.3928,305,5,
67.9923,-1.01807,9.1629,0.984,7.3928,305,5,
67.9923,-1.01929,9.16443,0.984,7.3928,305,5,
67.9923,-1.01837,9.1629,0.984,7.3928,305,5,
67.9924,-1.01776,9.16443,0.984,7.3928,305,5,
67.9924,-1.01776,9.16138,0.984,7.3928,305,5,
67.9924,-1.01868,9.16138,0.984,7.3928,305,5,
67.9925,-1.01807,9.16443,0.984,7.3928,305,5,
67.9925,-1.01807,9.16596,0.984,7.3928,305,5,
67.9925,-1.01746,9.16596,0.984,7.3928,305,5,
67.9926,-1.01837,9.16443,0.984,7.3928,305,5,
67.9926,-1.01501,9.1629,0.984,7.3928,305,5,
67.9926,-1.01288,9.16138,0.984,7.3928,305,5,
67.9927,-1.01471,9.16138,0.984,7.3928,305,5,
67.9927,-1.01471,9.16443,0.984,7.3928,305,5,
67.9927,-1.01349,9.1629,0.984,7.3928,305,5,
67.9928,-1.01349,9.1629,0.984,7.3928,305,5,
67.9928,-1.0141,9.15985,0.984,7.3928,305,5,
67.9928,-1.0141,9.1629,0.984,7.3928,305,5,
67.9929,-1.00952,9.16138,0.984,7.3928,305,5,
67.9929,-1.00952,9.1629,0.984,7.3928,305,5,
67.9929,-1.00922,9.1629,0.984,7.3928,305,5,
67.993,-1.00952,9.16596,0.984,7.3928,305,5,
67.993,-1.00983,9.16443,0.984,7.3928,305,5,
67.993,-1.0083,9.1629,0.984,7.3928,305,5,
67.9931,-1.00433,9.16443,0.984,7.3928,305,5,
67.9931,-1.00433,9.15833,0.984,7.3928,305,5,
67.9931,-1.00342,9.1629,0.984,7.3928,305,5,
67.9932,-1.00464,9.16596,0.984,7.3928,305,5,
67.9932,-1.00311,9.16443,0.984,7.3928,305,5,
67.9932,-0.999146,9.16138,0.984,7.3928,305,5,
67.9933,-0.999146,9.16138,0.984,7.3928,305,5,
67.9933,-0.999756,9.1629,0.984,7.3928,305,5,
67.9933,-0.999146,9.1629,0.984,7.3928,305,5,
67.9934,-0.993958,9.16443,0.984,7.3928,305,5,
67.9934,-0.994263,9.16138,0.984,7.3928,305,5,
67.9934,-0.994568,9.15985,0.984,7.3928,305,5,
67.9935,-0.993652,9.16443,0.984,7.3928,305,5,
67.9935,-0.98938,9.1629,0.984,7.3928,305,5,
67.9935,-0.989685,9.16138,0.984,7.3928,305,5,
67.9936,-0.989685,9.1629,0.984,7.3928,305,5,
67.9936,-0.984192,9.15985,0.984,7.3928,305,5,
67.9936,-0.984802,9.16443,0.984,7.3928,305,5,
67.9937,-0.984497,9.1629,0.984,7.3928,305,5,
67.9937,-0.979614,9.1629,0.984,7.3928,305,5,
67.9937,-0.979309,9.1629,0.984,7.3928,305,5,
67.9938,-0.979614,9.16138,0.984,7.3928,305,5,
67.9938,-0.973816,9.1629,0.984,7.3928,305,5,
67.9938,-0.975037,9.1629,0.984,7.3928,305,5,
67.9939,-0.971375,9.1629,0.984,7.3928,305,5,
67.9939,-0.969543,9.1629,0.984,7.3928,305,5,
67.9939,-0.969543,9.16138,0.984,7.3928,305,5,
67.994,-0.964966,9.1629,0.984,7.3928,305,5,
67.994,-0.964966,9.16443,0.984,7.3928,305,5,
67.994,-0.961609,9.1629,0.984,7.3928,305,5,
67.9941,-0.959473,9.1629,0.984,7.3928,305,5,
67.9941,-0.959778,9.16138,0.984,7.3928,305,5,
67.9941,-0.954895,9.16138,0.984,7.3928,305,5,
67.9942,-0.9552,9.1629,0.984,7.3928,305,5,
67.9942,-0.950012,9.1629,0.984,7.3928,305,5,
67.9942,-0.949097,9.16138,0.984,7.3928,305,5,
67.9943,-0.945435,9.16443,0.984,7.3928,305,5,
67.9943,-0.945129,9.16443,0.984,7.3928,305,5,
67.9943,-0.940552,9.1629,0.984,7.3928,305,5,
67.9944,-0.939941,9.16596,0.984,7.3928,305,5,
67.9944,-0.935974,9.16138,0.984,7.3928,305,5,
67.9944,-0.935364,9.16443,0.984,7.3928,305,5,
67.9945,-0.930176,9.1629,0.984,7.3928,305,5,
67.9945,-0.930481,9.16443,0.984,7.3928,305,5,
67.9945,-0.926208,9.1629,0.984,7.3928,305,5,
67.9946,-0.925598,9.16138,0.984,7.3928,305,5,
67.9946,-0.921021,9.16596,0.984,7.3928,305,5,
67.9946,-0.92041,9.16443,0.984,7.3928,305,5,
67.9947,-0.915833,9.16138,0.984,7.3928,305,5,
67.9947,-0.915833,9.16443,0.984,7.3928,305,5,
67.9947,-0.91156,9.15833,0.984,7.3928,305,5,
67.9948,-0.910645,9.15985,0.984,7.3928,305,5,
67.9948,-0.906677,9.16443,0.984,7.3928,305,5,
67.9948,-0.905762,9.1629,0.984,7.3928,305,5,
67.9949,-0.901184,9.16443,0.984,7.3928,305,5,
67.9949,-0.900269,9.1629,0.984,7.3928,305,5,
67.9949,-0.896606,9.1629,0.984,7.3928,305,5,
67.995,-0.895691,9.16138,0.984,7.3928,305,5,
67.995,-0.892639,9.15985,0.984,7.3928,305,5,
67.995,-0.891418,9.1629,0.984,7.3928,305,5,
67.9951,-0.888062,9.16138,0.984,7.3928,305,5,
67.9951,-0.885925,9.15985,0.984,7.3928,305,5,
67.9951,-0.882568,9.16443,0.984,7.3928,305,5,
67.9952,-0.881348,9.1629,0.984,7.3928,305,5,
67.9952,-0.880127,9.16443,0.984,7.3928,305,5,
67.9952,-0.87677,9.16443,0.984,7.3928,305,5,
67.9953,-0.87677,9.16443,0.984,7.3928,305,5,
67.9953,-0.871887,9.16443,0.984,7.3928,305,5,
67.9953,-0.871887,9.16138,0.984,7.3928,305,5,
67.9954,-0.867004,9.16138,0.984,7.3928,305,5,
67.9954,-0.866699,9.16138,0.984,7.3928,305,5,
67.9954,-0.863953,9.1629,0.984,7.3928,305,5,
67.9955,-0.862122,9.16138,0.984,7.3928,305,5,
67.9955,-0.862427,9.16596,0.984,7.3928,305,5,
67.9955,-0.856018,9.1629,0.984,7.3928,305,5,
67.9956,-0.856934,9.1629,0,7.3928,305,5,
67.9956,-0.853577,9.16443,0,7.3928,305,5,
67.9956,-0.852356,9.16443,0,7.3928,305,5,
67.9957,-0.852356,9.16138,0,7.3928,305,5,
67.9957,-0.846558,9.16596,0,7.3928,305,5,
67.9957,-0.847168,9.16138,0,7.3928,305,5,
67.9958,-0.844421,9.16443,0,7.3928,305,5,
67.9958,-0.842285,9.1629,0,7.3928,305,5,
67.9958,-0.841675,9.16138,0,7.3928,305,5,
67.9959,-0.837708,9.1629,0,7.3928,305,5,
67.9959,-0.837402,9.16443,0,7.3928,305,5,
67.9959,-0.837097,9.15985,0,7.3928,305,5,
67.996,-0.831909,9.1629,0,7.3928,305,5,
67.996,-0.831909,9.16443,0,7.3928,305,5,
67.996,-0.832214,9.15985,0,7.3928,305,5,
67.9961,-0.827026,9.16443,0,7.3928,305,5,
67.9961,-0.827637,9.1629,0,7.3928,305,5,
67.9961,-0.827026,9.16138,0,7.3928,305,5,
67.9962,-0.822449,9.16138,0,7.3928,305,5,
67.9962,-0.822449,9.16138,0,7.3928,305,5,
67.9962,-0.823059,9.1629,0,7.3928,305,5,
67.9963,-0.817871,9.15833,0,7.3928,305,5,
67.9963,-0.817871,9.1629,0,7.3928,305,5,
67.9963,-0.817871,9.1629,0,7.3928,305,5,
67.9964,-0.813904,9.16443,0,7.3928,305,5,
67.9964,-0.812683,9.15985,0,7.3928,305,5,
67.9964,-0.812683,9.1629,0,7.3928,305,5,
67.9965,-0.812683,9.16138,0,7.3928,305,5,
67.9965,-0.808411,9.16443,0,7.3928,305,5,
67.9965,-0.8078,9.15985,0,7.3928,305,5,
67.9966,-0.807495,9.15985,0,7.3928,305,5,
67.9966,-0.808411,9.16138,0,7.3928,305,5,
67.9966,-0.802917,9.16138,0,7.3928,305,5,
67.9967,-0.803528,9.15985,0,7.3928,305,5,
67.9967,-0.803223,9.1629,0,7.3928,305,5,
67.9967,-0.802917,9.16138,0,7.3928,305,5,
67.9968,-0.798645,9.16138,0,7.3928,305,5,
67.9968,-0.798035,9.16138,0,7.3928,305,5,
67.9968,-0.79895,9.16443,0,7.3928,305,5,
67.9969,-0.79834,9.16138,0,7.3928,305,5,
67.9969,-0.798035,9.1629,0,7.3928,305,5,
67.9969,-0.793457,9.16596,0,7.3928,305,5,
67.997,-0.792542,9.1629,0,7.3928,305,5,
67.997,-0.793152,9.15985,0,7.3928,305,5,
67.997,-0.794067,9.16443,0,7.3928,305,5,
67.9971,-0.792847,9.16138,0,7.3928,305,5,
67.9971,-0.788879,9.1629,0,7.3928,305,5,
67.9971,-0.788269,9.16138,0,7.3928,305,5,
67.9972,-0.788879,9.16138,0,7.3928,305,5,
67.9972,-0.787964,9.16138,0,7.3928,305,5,
67.9972,-0.788879,9.1629,0,7.3928,305,5,
67.9973,-0.788574,9.16443,0,7.3928,305,5,
67.9973,-0.783386,9.1629,0,7.3928,305,5,
67.9973,-0.783691,9.15985,0,7.3928,305,5,
67.9974,-0.783386,9.1629,0,7.3928,305,5,
67.9974,-0.783691,9.16138,0,7.3928,305,5,
67.9974,-0.783997,9.16596,0,7.3928,305,5,
67.9975,-0.783691,9.1629,0,7.3928,305,5,
67.9975,-0.783386,9.16443,0,7.3928,305,5,
67.9975,-0.783081,9.16138,0,7.3928,305,5,
67.9976,-0.778809,9.16443,0,7.3928,305,5,
67.9976,-0.779419,9.16138,0,7.3928,305,5,
67.9976,-0.778198,9.16443,0,7.3928,305,5,
67.9977,-0.779419,9.16596,0,7.3928,305,5,
67.9977,-0.778503,9.16443,0,7.3928,305,5,
67.9977,-0.779114,9.16138,0,7.3928,305,5,
67.9978,-0.778809,9.16596,0,7.3928,305,5,
67.9978,-0.779114,9.1629,0,7.3928,305,5,
67.9978,-0.778809,9.1629,0,7.3928,305,5,
67.9979,-0.777588,9.15985,0,7.3928,305,5,
67.9979,-0.778809,9.15985,0,7.3928,305,5,
67.9979,-0.775146,9.1629,0,7.3928,305,5,
67.998,-0.773926,9.16443,0,7.3928,305,5,
67.998,-0.773926,9.16138,0,7.3928,305,5,
67.998,-0.773315,9.16443,0,7.3928,305,5,
67.9981,-0.774536,9.16138,0,7.3928,305,5,
67.9981,-0.773926,9.16138,0,7.3928,305,5,
67.9981,-0.773926,9.17053,0,7.3928,305,5,
67.9982,-0.773926,9.17816,0,7.3928,305,5,
67.9982,-0.773315,9.17359,0,7.3928,305,5,
67.9982,-0.774231,9.17359,0,7.3928,305,5,
67.9983,-0.773926,9.17511,0,7.3928,305,5,
67.9983,-0.773315,9.17816,0,7.3928,305,5,
67.9983,-0.773621,9.17511,0,7.3928,305,5,
67.9984,-0.773926,9.17206,0,7.3928,305,5,
67.9984,-0.773621,9.17511,0,7.3928,305,5,
67.9984,-0.773926,9.17359,2.252,7.3928,305,5,
67.9985,-0.773621,9.17816,2.252,7.3928,305,5,
67.9985,-0.773315,9.17206,2.252,7.3928,305,5,
67.9985,-0.773621,9.17359,2.252,7.3928,305,5,
67.9986,-0.773926,9.17664,2.252,7.3928,305,5,
67.9986,-0.77301,9.17359,2.252,7.3928,305,5,
67.9986,-0.773926,9.17511,2.252,7.3928,305,5,
67.9987,-0.773315,9.17206,2.252,7.3928,305,5,
67.9987,-0.773621,9.17816,2.252,7.3928,305,5,
67.9987,-0.773621,9.17969,2.252,7.3928,305,5,
67.9988,-0.774231,9.17511,2.252,7.3928,305,5,
67.9988,-0.773621,9.17511,2.252,7.3928,305,5,
67.9988,-0.773621,9.17359,2.252,7.3928,305,5,
67.9989,-0.773621,9.17816,2.252,7.3928,305,5,
67.9989,-0.774231,9.17206,2.252,7.3928,305,5,
67.9989,-0.773926,9.17359,2.252,7.3928,305,5,
67.999,-0.773621,9.17969,2.252,7.3928,305,5,
67.999,-0.773926,9.17816,2.252,7.3928,305,5,
67.999,-0.773315,9.17511,2.252,7.3928,305,5,
67.9991,-0.773315,9.17816,2.252,7.3928,305,5,
67.9991,-0.773621,9.17816,2.252,7.3928,305,5,
67.9991,-0.773926,9.17206,2.252,7.3928,305,5,
67.9992,-0.773926,9.17511,2.252,7.3928,305,5,
67.9992,-0.773315,9.17511,2.252,7.3928,305,5,
67.9992,-0.773621,9.17664,2.252,7.3928,305,5,
67.9993,-0.773621,9.17206,2.252,7.3928,305,5,
67.9993,-0.773621,9.17816,2.252,7.3928,305,5,
67.9993,-0.773621,9.17664,2.252,7.3928,305,5,
67.9994,-0.773315,9.17359,2.252,7.3928,305,5,
67.9994,-0.773621,9.17664,2.252,7.3928,305,5,
67.9994,-0.774536,9.17511,2.252,7.3928,305,5,
67.9995,-0.773926,9.17511,2.252,7.3928,305,5,
67.9995,-0.777588,9.17511,2.252,7.3928,305,5,
67.9995,-0.778503,9.17206,2.252,7.3928,305,5,
67.9996,-0.778503,9.17359,2.252,7.3928,305,5,
67.9996,-0.779114,9.17511,2.252,7.3928,305,5,
67.9996,-0.777893,9.17511,2.252,7.3928,305,5,
67.9997,-0.778503,9.17816,2.252,7.3928,305,5,
67.9997,-0.778809,9.17511,2.252,7.3928,305,5,
67.9997,-0.779114,9.17511,2.252,7.3928,305,5,
67.9998,-0.778809,9.17664,2.252,7.3928,305,5,
67.9998,-0.778503,9.17511,2.252,7.3928,305,5,
67.9998,-0.778809,9.17511,2.252,7.3928,305,5,
67.9999,-0.778503,9.17359,2.252,7.3928,305,5,
67.9999,-0.778503,9.17511,2.252,7.3928,305,5,
67.9999,-0.778809,9.17206,2.252,7.3928,305,5,
68,-0.778503,9.17511,2.252,7.3928,305,5,
68,-0.783081,9.17359,2.252,7.3928,305,5,
68,-0.783386,9.17511,2.252,7.3928,305,5,
68.0001,-0.783386,9.17359,2.252,7.3928,305,5,
68.0001,-0.783691,9.17359,2.252,7.3928,305,5,
68.0001,-0.782776,9.17359,2.252,7.3928,305,5,
68.0002,-0.783997,9.17511,2.252,7.3928,305,5,
68.0002,-0.783386,9.17511,2.252,7.3928,305,5,
68.0002,-0.783997,9.17359,2.252,7.3928,305,5,
68.0003,-0.783691,9.17511,2.252,7.3928,305,5,
68.0003,-0.782471,9.17511,2.252,7.3928,305,5,
68.0003,-0.783386,9.17206,2.252,7.3928,305,5,
68.0004,-0.784302,9.17206,2.252,7.3928,305,5,
68.0004,-0.786743,9.17664,2.252,7.3928,305,5,
68.0004,-0.787964,9.17969,2.252,7.3928,305,5,
68.0005,-0.788269,9.17359,2.252,7.3928,305,5,
68.0005,-0.787964,9.17359,2.252,7.3928,305,5,
68.0005,-0.787964,9.17511,2.252,7.3928,305,5,
68.0006,-0.788269,9.17511,2.252,7.3928,305,5,
68.0006,-0.788269,9.17816,2.252,7.3928,305,5,
68.0006,-0.788269,9.17816,2.252,7.3928,305,5,
68.0007,-0.788269,9.17664,2.252,7.3928,305,5,
68.0007,-0.788574,9.17359,2.252,7.3928,305,5,
68.0007,-0.787964,9.17511,2.252,7.3928,305,5,
68.0008,-0.793152,9.17359,2.252,7.3928,305,5,
68.0008,-0.793457,9.17664,2.252,7.3928,305,5,
68.0008,-0.793152,9.17359,2.252,7.3928,305,5,
68.0009,-0.792847,9.17664,2.252,7.3928,305,5,
68.0009,-0.793152,9.17359,2.252,7.3928,305,5,
68.0009,-0.793152,9.17511,2.252,7.3928,305,5,
68.001,-0.793457,9.17359,2.252,7.3928,305,5,
68.001,-0.793152,9.17816,2.252,7.3928,305,5,
68.001,-0.793152,9.17511,2.252,7.3928,305,5,
68.0011,-0.793152,9.17511,2.252,7.3928,305,5,
68.0011,-0.796814,9.17053,2.252,7.3928,305,5,
68.0011,-0.797729,9.17511,2.252,7.3928,305,5,
68.0012,-0.798035,9.17206,2.252,7.3928,305,5,
68.0012,-0.797729,9.17511,2.252,7.3928,305,5,
68.0012,-0.798645,9.17511,2.252,7.3928,305,5,
68.0013,-0.798645,9.17206,2.252,7.3928,305,5,
68.0013,-0.79834,9.17816,2.252,7.3928,305,5,
68.0013,-0.79834,9.17511,2.252,7.3928,305,5,
68.0014,-0.797729,9.17511,2.252,7.3928,305,5,
68.0014,-0.798645,9.17511,2.252,7.3928,305,5,
68.0014,-0.802612,9.17511,2.252,7.3928,305,5,
68.0015,-0.802612,9.17359,2.252,7.3928,305,5,
68.0015,-0.803223,9.17511,2.252,7.3928,305,5,
68.0015,-0.803223,9.17511,2.252,7.3928,305,5,
68.0016,-0.803223,9.17816,2.252,7.3928,305,5,
68.0016,-0.802612,9.17359,2.252,7.3928,305,5,
68.0016,-0.803223,9.17511,2.252,7.3928,305,5,
68.0017,-0.802612,9.17664,2.252,7.3928,305,5,
68.0017,-0.802307,9.17664,2.252,7.3928,305,5,
68.0017,-0.805664,9.17664,2.252,7.3928,305,5,
68.0018,-0.8078,9.17359,2.252,7.3928,305,5,
68.0018,-0.807495,9.17053,2.252,7.3928,305,5,
68.0018,-0.8078,9.17359,2.252,7.3928,305,5,
68.0019,-0.8078,9.17664,2.252,7.3928,305,5,
68.0019,-0.8078,9.17206,2.252,7.3928,305,5,
68.0019,-0.808411,9.17359,2.252,7.3928,305,5,
68.002,-0.8078,9.17511,2.252,7.3928,305,5,
68.002,-0.8078,9.17969,2.252,7.3928,305,5,
68.002,-0.809021,9.17511,2.252,7.3928,305,5,
68.0021,-0.812378,9.17511,2.252,7.3928,305,5,
68.0021,-0.812988,9.17664,2.252,7.3928,305,5,
68.0021,-0.812988,9.17053,2.252,7.3928,305,5,
68.0022,-0.812378,9.17511,2.252,7.3928,305,5,
68.0022,-0.812683,9.17206,2.252,7.3928,305,5,
68.0022,-0.812988,9.17664,2.252,7.3928,305,5,
68.0023,-0.812683,9.17664,2.252,7.3928,305,5,
68.0023,-0.812988,9.17511,2.252,7.3928,305,5,
68.0023,-0.812988,9.17511,2.252,7.3928,305,5,
68.0024,-0.817261,9.17359,2.252,7.3928,305,5,
68.0024,-0.818176,9.17359,2.252,7.3928,305,5,
68.0024,-0.817871,9.17511,2.252,7.3928,305,5,
68.0025,-0.817871,9.17511,2.252,7.3928,305,5,
68.0025,-0.817871,9.17511,2.252,7.3928,305,5,
68.0025,-0.817261,9.17206,2.252,7.3928,305,5,
68.0026,-0.817871,9.17359,2.252,7.3928,305,5,
68.0026,-0.818176,9.17206,2.252,7.3928,305,5,
68.0026,-0.817261,9.17359,2.252,7.3928,305,5,
68.0027,-0.822449,9.17511,2.252,7.3928,305,5,
68.0027,-0.822754,9.17511,2.252,7.3928,305,5,
68.0027,-0.822754,9.17206,2.252,7.3928,305,5,
68.0028,-0.823364,9.17816,2.252,7.3928,305,5,
68.0028,-0.823059,9.17816,2.252,7.3928,305,5,
68.0028,-0.822754,9.17206,2.252,7.3928,305,5,
68.0029,-0.823059,9.17511,2.252,7.3928,305,5,
68.0029,-0.823059,9.17816,2.252,7.3928,305,5,
68.0029,-0.822754,9.17206,2.252,7.3928,305,5,
68.003,-0.823669,9.17816,2.252,7.3928,305,5,
68.003,-0.827332,9.17511,2.252,7.3928,305,5,
68.003,-0.827637,9.17664,2.252,7.3928,305,5,
68.0031,-0.827332,9.17359,2.252,7.3928,305,5,
68.0031,-0.827332,9.17816,2.252,7.3928,305,5,
68.0031,-0.827637,9.17053,2.252,7.3928,305,5,
68.0032,-0.827026,9.17511,2.252,7.3928,305,5,
68.0032,-0.827026,9.17816,2.252,7.3928,305,5,
68.0032,-0.827637,9.17816,2.252,7.3928,305,5,
68.0033,-0.827332,9.17206,2.252,7.3928,305,5,
68.0033,-0.830688,9.17359,2.252,7.3928,305,5,
68.0033,-0.832214,9.17206,2.252,7.3928,305,5,
68.0034,-0.832825,9.17511,2.252,7.3928,305,5,
68.0034,-0.83313,9.17206,2.252,7.3928,305,5,
68.0034,-0.831909,9.17053,2.252,7.3928,305,5,
68.0035,-0.83313,9.17359,2.252,7.3928,305,5,
68.0035,-0.831909,9.17359,2.252,7.3928,305,5,
68.0035,-0.83252,9.17206,2.252,7.3928,305,5,
68.0036,-0.832214,9.17511,2.252,7.3928,305,5,
68.0036,-0.832825,9.17664,2.252,7.3928,305,5,
68.0036,-0.83313,9.17664,2.252,7.3928,305,5,
68.0037,-0.836792,9.17664,2.252,7.3928,305,5,
68.0037,-0.837708,9.17511,2.252,7.3928,305,5,
68.0037,-0.837402,9.17359,2.252,7.3928,305,5,
68.0038,-0.837097,9.17206,2.252,7.3928,305,5,
68.0038,-0.837402,9.17511,2.252,7.3928,305,5,
68.0038,-0.836792,9.17053,2.252,7.3928,305,5,
68.0039,-0.837097,9.17206,2.252,7.3928,305,5,
68.0039,-0.837708,9.17206,2.252,7.3928,305,5,
68.0039,-0.837402,9.17359,2.252,7.3928,305,5,
68.004,-0.837402,9.17816,2.252,7.3928,305,5,
68.004,-0.837708,9.17511,2.252,7.3928,305,5,
68.004,-0.837097,9.17511,2.252,7.3928,305,5,
68.0041,-0.84137,9.17359,2.252,7.3928,305,5,
68.0041,-0.842285,9.17511,2.252,7.3928,305,5,
68.0041,-0.84137,9.17511,2.252,7.3928,305,5,
68.0042,-0.841675,9.17359,2.252,7.3928,305,5,
68.0042,-0.841675,9.17664,2.252,7.3928,305,5,
68.0042,-0.841064,9.17664,2.252,7.3928,305,5,
68.0043,-0.84198,9.17359,2.252,7.3928,305,5,
68.0043,-0.84198,9.17359,2.252,7.3928,305,5,
68.0043,-0.841064,9.17359,2.252,7.3928,305,5,
68.0044,-0.842285,9.17206,2.252,7.3928,305,5,
68.0044,-0.842285,9.17511,2.252,7.3928,305,5,
68.0044,-0.84198,9.17206,2.252,7.3928,305,5,
68.0045,-0.842285,9.17359,2.252,7.3928,305,5,
68.0045,-0.84259,9.17359,2.252,7.3928,305,5,
68.0045,-0.846252,9.17206,2.252,7.3928,305,5,
68.0046,-0.847473,9.17511,2.252,7.3928,305,5,
68.0046,-0.846863,9.17969,2.252,7.3928,305,5,
68.0046,-0.847473,9.17053,2.252,7.3928,305,5,
68.0047,-0.847778,9.17511,2.252,7.3928,305,5,
68.0047,-0.847168,9.17206,2.252,7.3928,305,5,
68.0047,-0.847473,9.17511,2.252,7.3928,305,5,
68.0048,-0.847778,9.17664,2.252,7.3928,305,5,
68.0048,-0.847778,9.17511,2.252,7.3928,305,5,
68.0048,-0.847778,9.17206,2.252,7.3928,305,5,
68.0049,-0.847473,9.17664,2.252,7.3928,305,5,
68.0049,-0.847778,9.17511,2.252,7.3928,305,5,
68.0049,-0.847473,9.17359,2.252,7.3928,305,5,
68.005,-0.847168,9.17206,2.252,7.3928,305,5,
68.005,-0.847473,9.17206,2.252,7.3928,305,5,
68.005,-0.847473,9.17511,2.252,7.3928,305,5,
68.0051,-0.847168,9.17511,2.252,7.3928,305,5,
68.0051,-0.847473,9.17816,2.252,7.3928,305,5,
