4000-SECPT.acq
2 msec/sample
6 channels
RSP, X, RSPEC-R
Volts
EDA, Y, PPGED-R
microsiemens
ECG R-R
Seconds
Respiration Rate
BPM
C7 - EDR
Peaks
C14 - Control
Volts
sec,CH1,CH14,CH40,CH42,CH47,CH54,
,20115,20115,20115,20115,20115,20115,
11753.7,-0.567627,4.78058,0.34,14.0121,429,5,
11753.7,-0.570068,4.77753,0.34,14.0121,429,5,
11753.7,-0.571899,4.78516,0.34,14.0121,429,5,
11753.7,-0.572205,4.77905,0.34,14.0121,429,5,
11753.7,-0.572205,4.78058,0.34,14.0121,429,5,
11753.7,-0.57251,4.78211,0.34,14.0121,429,5,
11753.7,-0.574951,4.78516,0.34,14.0121,429,5,
11753.7,-0.577393,4.78211,0.34,14.0121,429,5,
11753.7,-0.577393,4.77905,0.34,14.0121,429,5,
11753.7,-0.577393,4.77905,0.34,14.0121,429,5,
11753.7,-0.577393,4.78211,0.34,14.0121,429,5,
11753.7,-0.576172,4.77905,0.34,14.0121,429,5,
11753.7,-0.582275,4.77905,0.34,14.0121,429,5,
11753.7,-0.582275,4.77905,0.34,14.0121,429,5,
11753.7,-0.582581,4.78058,0.34,14.0121,429,5,
11753.7,-0.58197,4.78058,0.34,14.0121,429,5,
11753.7,-0.58197,4.78058,0.34,14.0121,429,5,
11753.7,-0.585632,4.78058,0.34,14.0121,429,5,
11753.7,-0.587158,4.77753,0.34,14.0121,429,5,
11753.7,-0.587769,4.78211,0.34,14.0121,429,5,
11753.7,-0.587463,4.78211,0.34,14.0121,429,5,
11753.7,-0.587463,4.78058,0.34,14.0121,429,5,
11753.7,-0.587463,4.78211,0.34,14.0121,429,5,
11753.7,-0.592651,4.77905,0.34,14.0121,429,5,
11753.7,-0.592651,4.77905,0.34,14.0121,429,5,
11753.7,-0.592346,4.78211,0.34,14.0121,429,5,
11753.7,-0.592651,4.78058,0.34,14.0121,429,5,
11753.7,-0.591736,4.78211,0.34,14.0121,429,5,
11753.7,-0.591736,4.78058,0.34,14.0121,429,5,
11753.7,-0.597229,4.78058,0.34,14.0121,429,5,
11753.8,-0.596619,4.78058,0.34,14.0121,429,5,
11753.8,-0.597229,4.77753,0.34,14.0121,429,5,
11753.8,-0.597229,4.77905,0.34,14.0121,429,5,
11753.8,-0.597229,4.78058,0.34,14.0121,429,5,
11753.8,-0.597534,4.78211,0.34,14.0121,429,5,
11753.8,-0.602417,4.77753,0.34,14.0121,429,5,
11753.8,-0.602722,4.78058,0.34,14.0121,429,5,
11753.8,-0.601501,4.77905,0.34,14.0121,429,5,
11753.8,-0.602112,4.78058,0.34,14.0121,429,5,
11753.8,-0.601196,4.78211,0.34,14.0121,429,5,
11753.8,-0.602417,4.77905,0.34,14.0121,429,5,
11753.8,-0.606384,4.78211,0.34,14.0121,429,5,
11753.8,-0.606079,4.78211,0.34,14.0121,429,5,
11753.8,-0.606995,4.78058,0.34,14.0121,429,5,
11753.8,-0.606689,4.77905,0.34,14.0121,429,5,
11753.8,-0.606384,4.78058,0.34,14.0121,429,5,
11753.8,-0.606995,4.78058,0.34,14.0121,429,5,
11753.8,-0.611572,4.78058,0.34,14.0121,429,5,
11753.8,-0.611877,4.78058,0.34,14.0121,429,5,
11753.8,-0.612183,4.78211,0.34,14.0121,429,5,
11753.8,-0.611572,4.77905,0.34,14.0121,429,5,
11753.8,-0.611877,4.77753,0.34,14.0121,429,5,
11753.8,-0.611877,4.78211,0.34,14.0121,429,5,
11753.8,-0.612488,4.78058,0.34,14.0121,429,5,
11753.8,-0.617371,4.77753,0.8,14.0121,429,5,
11753.8,-0.617065,4.77753,0.8,14.0121,429,5,
11753.8,-0.616455,4.78058,0.8,14.0121,429,5,
11753.8,-0.617371,4.77905,0.8,14.0121,429,5,
11753.8,-0.617371,4.78058,0.8,14.0121,429,5,
11753.8,-0.61676,4.77905,0.8,14.0121,429,5,
11753.8,-0.617065,4.78058,0.8,14.0121,429,5,
11753.8,-0.621033,4.78058,0.8,14.0121,429,5,
11753.8,-0.621033,4.77753,0.8,14.0121,429,5,
11753.8,-0.621643,4.78211,0.8,14.0121,429,5,
11753.8,-0.621948,4.78211,0.8,14.0121,429,5,
11753.8,-0.622253,4.78058,0.8,14.0121,429,5,
11753.8,-0.621948,4.77905,0.8,14.0121,429,5,
11753.8,-0.621948,4.78058,0.8,14.0121,429,5,
11753.8,-0.626526,4.77905,0.8,14.0121,429,5,
11753.8,-0.626831,4.776,0.8,14.0121,429,5,
11753.8,-0.626831,4.776,0.8,14.0121,429,5,
11753.8,-0.626831,4.78211,0.8,14.0121,429,5,
11753.8,-0.626831,4.77753,0.8,14.0121,429,5,
11753.8,-0.626526,4.78058,0.8,14.0121,429,5,
11753.8,-0.627136,4.78058,0.8,14.0121,429,5,
11753.8,-0.628967,4.78058,0.8,14.0121,429,5,
11753.8,-0.631409,4.77905,0.8,14.0121,429,5,
11753.8,-0.631104,4.78058,0.8,14.0121,429,5,
11753.8,-0.630493,4.77905,0.8,14.0121,429,5,
11753.8,-0.631409,4.77905,0.8,14.0121,429,5,
11753.9,-0.631409,4.77905,0.8,14.0121,429,5,
11753.9,-0.631409,4.77753,0.8,14.0121,429,5,
11753.9,-0.631409,4.776,0.8,14.0121,429,5,
11753.9,-0.630798,4.77905,0.8,14.0121,429,5,
11753.9,-0.636292,4.77905,0.8,14.0121,429,5,
11753.9,-0.635986,4.77753,0.8,14.0121,429,5,
11753.9,-0.635986,4.77905,0.8,14.0121,429,5,
11753.9,-0.635681,4.77753,0.8,14.0121,429,5,
11753.9,-0.635986,4.78058,0.8,14.0121,429,5,
11753.9,-0.636292,4.78211,0.8,14.0121,429,5,
11753.9,-0.636292,4.78211,0.8,14.0121,429,5,
11753.9,-0.635986,4.77753,0.8,14.0121,429,5,
11753.9,-0.636597,4.77753,0.8,14.0121,429,5,
11753.9,-0.641174,4.78058,0.8,14.0121,429,5,
11753.9,-0.640869,4.77753,0.8,14.0121,429,5,
11753.9,-0.641174,4.78058,0.8,14.0121,429,5,
11753.9,-0.641785,4.77753,0.8,14.0121,429,5,
11753.9,-0.641174,4.776,0.8,14.0121,429,5,
11753.9,-0.641174,4.78058,0.8,14.0121,429,5,
11753.9,-0.640869,4.78058,0.8,14.0121,429,5,
11753.9,-0.640869,4.77905,0.8,14.0121,429,5,
11753.9,-0.640564,4.78058,0.8,14.0121,429,5,
11753.9,-0.641785,4.77905,0.8,14.0121,429,5,
11753.9,-0.641174,4.77905,0.8,14.0121,429,5,
11753.9,-0.646362,4.78058,0.8,14.0121,429,5,
11753.9,-0.646362,4.78363,0.8,14.0121,429,5,
11753.9,-0.646362,4.77753,0.8,14.0121,429,5,
11753.9,-0.646667,4.77753,0.8,14.0121,429,5,
11753.9,-0.646057,4.776,0.8,14.0121,429,5,
11753.9,-0.645447,4.78058,0.8,14.0121,429,5,
11753.9,-0.645752,4.77905,0.8,14.0121,429,5,
11753.9,-0.646057,4.77905,0.8,14.0121,429,5,
11753.9,-0.645752,4.77753,0.8,14.0121,429,5,
11753.9,-0.645752,4.77753,0.8,14.0121,429,5,
11753.9,-0.646057,4.77753,0.8,14.0121,429,5,
11753.9,-0.646057,4.78058,0.8,14.0121,429,5,
11753.9,-0.646057,4.78058,0.8,14.0121,429,5,
11753.9,-0.650635,4.77905,0.8,14.0121,429,5,
11753.9,-0.651245,4.78211,0.8,14.0121,429,5,
11753.9,-0.65155,4.77905,0.8,14.0121,429,5,
11753.9,-0.651245,4.77753,0.8,14.0121,429,5,
11753.9,-0.65094,4.77905,0.8,14.0121,429,5,
11753.9,-0.651245,4.77905,0.8,14.0121,429,5,
11753.9,-0.65094,4.776,0.8,14.0121,429,5,
11753.9,-0.65094,4.77905,0.8,14.0121,429,5,
11753.9,-0.65155,4.78058,0.8,14.0121,429,5,
11753.9,-0.651245,4.78211,0.8,14.0121,429,5,
11753.9,-0.65094,4.78058,0.8,14.0121,429,5,
11753.9,-0.650635,4.77753,0.8,14.0121,429,5,
11753.9,-0.651245,4.77753,0.8,14.0121,429,5,
11754,-0.65094,4.77905,0.8,14.0121,429,5,
11754,-0.65094,4.78058,0.8,14.0121,429,5,
11754,-0.65094,4.77753,0.8,14.0121,429,5,
11754,-0.651245,4.77753,0.8,14.0121,429,5,
11754,-0.655823,4.77753,0.8,14.0121,429,5,
11754,-0.656433,4.78363,0.8,14.0121,429,5,
11754,-0.656128,4.776,0.8,14.0121,429,5,
11754,-0.656433,4.78211,0.8,14.0121,429,5,
11754,-0.655823,4.77753,0.8,14.0121,429,5,
11754,-0.655518,4.77905,0.8,14.0121,429,5,
11754,-0.655823,4.78058,0.8,14.0121,429,5,
11754,-0.656433,4.78058,0.8,14.0121,429,5,
11754,-0.655823,4.77905,0.8,14.0121,429,5,
11754,-0.656738,4.77905,0.8,14.0121,429,5,
11754,-0.655823,4.78058,0.8,14.0121,429,5,
11754,-0.655823,4.77905,0.8,14.0121,429,5,
11754,-0.656433,4.78058,0.8,14.0121,429,5,
11754,-0.655518,4.77753,0.8,14.0121,429,5,
11754,-0.656433,4.78058,0.8,14.0121,429,5,
11754,-0.656128,4.78058,0.8,14.0121,429,5,
11754,-0.655823,4.78058,0.8,14.0121,429,5,
11754,-0.656433,4.78058,0.8,14.0121,429,5,
11754,-0.656128,4.78211,0.8,14.0121,429,5,
11754,-0.655823,4.78363,0.8,14.0121,429,5,
11754,-0.656128,4.78058,0.8,14.0121,429,5,
11754,-0.655823,4.77905,0.8,14.0121,429,5,
11754,-0.656128,4.78363,0.8,14.0121,429,5,
11754,-0.656433,4.77905,0.8,14.0121,429,5,
11754,-0.655518,4.78058,0.8,14.0121,429,5,
11754,-0.656128,4.78058,0.8,14.0121,429,5,
11754,-0.655518,4.77905,0.8,14.0121,429,5,
11754,-0.656433,4.78058,0.8,14.0121,429,5,
11754,-0.656433,4.78211,0.8,14.0121,429,5,
11754,-0.6604,4.77753,0.8,14.0121,429,5,
11754,-0.6604,4.78058,0.8,14.0121,429,5,
11754,-0.6604,4.78058,0.8,14.0121,429,5,
11754,-0.6604,4.77753,0.8,14.0121,429,5,
11754,-0.6604,4.77905,0.8,14.0121,429,5,
11754,-0.660706,4.77905,0.8,14.0121,429,5,
11754,-0.661011,4.776,0.8,14.0121,429,5,
11754,-0.661011,4.77142,0.8,14.0121,429,5,
11754,-0.6604,4.76685,0.8,14.0121,429,5,
11754,-0.660706,4.76837,0.8,14.0121,429,5,
11754,-0.660706,4.76379,0.8,14.0121,429,5,
11754,-0.660706,4.76837,0.8,14.0121,429,5,
11754,-0.6604,4.76837,0.8,14.0121,429,5,
11754,-0.6604,4.76532,0.8,14.0121,429,5,
11754,-0.660706,4.76685,0.8,14.0121,429,5,
11754,-0.660706,4.7699,0.8,14.0121,429,5,
11754,-0.661011,4.76379,0.8,14.0121,429,5,
11754,-0.6604,4.77295,0.8,14.0121,429,5,
11754.1,-0.660706,4.76837,0.8,14.0121,429,5,
11754.1,-0.661011,4.76837,0.8,14.0121,429,5,
11754.1,-0.660706,4.76837,0.8,14.0121,429,5,
11754.1,-0.661011,4.76837,0.8,14.0121,429,5,
11754.1,-0.6604,4.76837,0.8,14.0121,429,5,
11754.1,-0.6604,4.76685,0.8,14.0121,429,5,
11754.1,-0.6604,4.76532,0.8,14.0121,429,5,
11754.1,-0.661316,4.76532,0.8,14.0121,429,5,
11754.1,-0.660706,4.7699,0.8,14.0121,429,5,
11754.1,-0.661011,4.76837,0.8,14.0121,429,5,
11754.1,-0.660706,4.76379,0.8,14.0121,429,5,
11754.1,-0.660706,4.7699,0.8,14.0121,429,5,
11754.1,-0.660095,4.76837,0.8,14.0121,429,5,
11754.1,-0.6604,4.76837,0.8,14.0121,429,5,
11754.1,-0.6604,4.76685,0.8,14.0121,429,5,
11754.1,-0.660706,4.76837,0.8,14.0121,429,5,
11754.1,-0.661011,4.76685,0.8,14.0121,429,5,
11754.1,-0.660706,4.7699,0.8,14.0121,429,5,
11754.1,-0.6604,4.76379,0.8,14.0121,429,5,
11754.1,-0.660706,4.76379,0.8,14.0121,429,5,
11754.1,-0.661011,4.76685,0.8,14.0121,429,5,
11754.1,-0.660706,4.76837,0.8,14.0121,429,5,
11754.1,-0.660706,4.76685,0.8,14.0121,429,5,
11754.1,-0.660706,4.77142,0.8,14.0121,429,5,
11754.1,-0.661316,4.76685,0.8,14.0121,429,5,
11754.1,-0.6604,4.76685,0.8,14.0121,429,5,
11754.1,-0.6604,4.76685,0.8,14.0121,429,5,
11754.1,-0.660706,4.76532,0.8,14.0121,429,5,
11754.1,-0.660706,4.76685,0.8,14.0121,429,5,
11754.1,-0.661316,4.76532,0.8,14.0121,429,5,
11754.1,-0.656738,4.76532,0.8,14.0121,429,5,
11754.1,-0.656128,4.76379,0.8,14.0121,429,5,
11754.1,-0.655518,4.76685,0.8,14.0121,429,5,
11754.1,-0.655823,4.76837,0.8,14.0121,429,5,
11754.1,-0.656433,4.76837,0.8,14.0121,429,5,
11754.1,-0.655823,4.77142,0.8,14.0121,429,5,
11754.1,-0.656128,4.76685,0.8,14.0121,429,5,
11754.1,-0.656128,4.76685,0.8,14.0121,429,5,
11754.1,-0.656128,4.76837,0.8,14.0121,429,5,
11754.1,-0.656128,4.76837,0.8,14.0121,429,5,
11754.1,-0.655823,4.76532,0.8,14.0121,429,5,
11754.1,-0.656128,4.76685,0.8,14.0121,429,5,
11754.1,-0.656128,4.76837,0.8,14.0121,429,5,
11754.1,-0.655823,4.76837,0.8,14.0121,429,5,
11754.1,-0.655823,4.76379,0.8,14.0121,429,5,
11754.1,-0.656128,4.76837,0.8,14.0121,429,5,
11754.1,-0.656738,4.76532,0.8,14.0121,429,5,
11754.1,-0.656433,4.76532,0.8,14.0121,429,5,
11754.1,-0.656128,4.76837,0.8,14.0121,429,5,
11754.1,-0.655823,4.76837,0.8,14.0121,429,5,
11754.2,-0.656738,4.76837,0.8,14.0121,429,5,
11754.2,-0.655823,4.76685,0.8,14.0121,429,5,
11754.2,-0.656433,4.7699,0.8,14.0121,429,5,
11754.2,-0.655212,4.7699,0.8,14.0121,429,5,
11754.2,-0.655823,4.76837,0.8,14.0121,429,5,
11754.2,-0.656128,4.7699,0.8,14.0121,429,5,
11754.2,-0.655212,4.76837,0.8,14.0121,429,5,
11754.2,-0.655518,4.76379,0.8,14.0121,429,5,
11754.2,-0.655518,4.76837,0.8,14.0121,429,5,
11754.2,-0.655518,4.76837,0.8,14.0121,429,5,
11754.2,-0.655518,4.76379,0.8,14.0121,429,5,
11754.2,-0.655518,4.76685,0.8,14.0121,429,5,
11754.2,-0.655518,4.7699,0.8,14.0121,429,5,
11754.2,-0.655823,4.76685,0.8,14.0121,429,5,
11754.2,-0.655518,4.76685,0.8,14.0121,429,5,
11754.2,-0.656128,4.76532,0.8,14.0121,429,5,
11754.2,-0.655518,4.76685,0.8,14.0121,429,5,
11754.2,-0.655518,4.76685,0.8,14.0121,429,5,
11754.2,-0.656128,4.76685,0.8,14.0121,429,5,
11754.2,-0.655823,4.76685,0.8,14.0121,429,5,
11754.2,-0.651245,4.76685,0.8,14.0121,429,5,
11754.2,-0.650635,4.7699,0.8,14.0121,429,5,
11754.2,-0.650635,4.76837,0.8,14.0121,429,5,
11754.2,-0.650635,4.76532,0.8,14.0121,429,5,
11754.2,-0.651245,4.76837,0.8,14.0121,429,5,
11754.2,-0.651855,4.76685,0.8,14.0121,429,5,
11754.2,-0.65094,4.77142,0.8,14.0121,429,5,
11754.2,-0.651855,4.76837,0.8,14.0121,429,5,
11754.2,-0.65094,4.76837,0.8,14.0121,429,5,
11754.2,-0.65094,4.76837,0.8,14.0121,429,5,
11754.2,-0.65155,4.76837,0.8,14.0121,429,5,
11754.2,-0.65155,4.76837,0.8,14.0121,429,5,
11754.2,-0.65094,4.76532,0.8,14.0121,429,5,
11754.2,-0.65155,4.76685,0.8,14.0121,429,5,
11754.2,-0.65155,4.76837,0.8,14.0121,429,5,
11754.2,-0.65094,4.76837,0.8,14.0121,429,5,
11754.2,-0.65155,4.7699,0.8,14.0121,429,5,
11754.2,-0.65155,4.7699,0.8,14.0121,429,5,
11754.2,-0.646057,4.76532,0.8,14.0121,429,5,
11754.2,-0.645752,4.76379,0.8,14.0121,429,5,
11754.2,-0.646362,4.76837,0.8,14.0121,429,5,
11754.2,-0.646057,4.76837,0.8,14.0121,429,5,
11754.2,-0.646057,4.77142,0.8,14.0121,429,5,
11754.2,-0.646057,4.76532,0.8,14.0121,429,5,
11754.2,-0.646362,4.76837,0.8,14.0121,429,5,
11754.2,-0.646667,4.7699,0.8,14.0121,429,5,
11754.2,-0.646057,4.76837,0.8,14.0121,429,5,
11754.2,-0.645447,4.7699,0.8,14.0121,429,5,
11754.2,-0.646362,4.7699,0.8,14.0121,429,5,
11754.2,-0.646362,4.76837,0.8,14.0121,429,5,
11754.3,-0.641479,4.76532,0.8,14.0121,429,5,
11754.3,-0.641174,4.76685,0.8,14.0121,429,5,
11754.3,-0.641785,4.76685,0.8,14.0121,429,5,
11754.3,-0.640564,4.77142,0.8,14.0121,429,5,
11754.3,-0.641174,4.76227,0.8,14.0121,429,5,
11754.3,-0.640869,4.76379,0.8,14.0121,429,5,
11754.3,-0.641174,4.76837,0.8,14.0121,429,5,
11754.3,-0.640564,4.76685,0.8,14.0121,429,5,
11754.3,-0.641174,4.76837,0.8,14.0121,429,5,
11754.3,-0.636902,4.76837,0.8,14.0121,429,5,
11754.3,-0.636292,4.7699,0.8,14.0121,429,5,
11754.3,-0.635986,4.76837,0.8,14.0121,429,5,
11754.3,-0.636292,4.76532,0.8,14.0121,429,5,
11754.3,-0.636597,4.76685,0.8,14.0121,429,5,
11754.3,-0.636292,4.76532,0.8,14.0121,429,5,
11754.3,-0.636597,4.76532,0.8,14.0121,429,5,
11754.3,-0.636292,4.76837,0.8,14.0121,429,5,
11754.3,-0.631104,4.76532,0.8,14.0121,429,5,
11754.3,-0.631104,4.76685,0.8,14.0121,429,5,
11754.3,-0.631714,4.76532,0.8,14.0121,429,5,
11754.3,-0.631104,4.7699,0.8,14.0121,429,5,
11754.3,-0.631409,4.77295,0.8,14.0121,429,5,
11754.3,-0.631409,4.76685,0.8,14.0121,429,5,
11754.3,-0.628662,4.76837,0.8,14.0121,429,5,
11754.3,-0.625916,4.76685,0.8,14.0121,429,5,
11754.3,-0.625916,4.7699,0.8,14.0121,429,5,
11754.3,-0.627136,4.76685,0.8,14.0121,429,5,
11754.3,-0.626221,4.76685,0.8,14.0121,429,5,
11754.3,-0.626221,4.7699,0.8,14.0121,429,5,
11754.3,-0.626831,4.76685,0.8,14.0121,429,5,
11754.3,-0.621338,4.76227,0.8,14.0121,429,5,
11754.3,-0.621033,4.76685,0.8,14.0121,429,5,
11754.3,-0.621948,4.76685,0.8,14.0121,429,5,
11754.3,-0.621338,4.76837,0.8,14.0121,429,5,
11754.3,-0.621338,4.76532,0.8,14.0121,429,5,
11754.3,-0.621643,4.76837,0.8,14.0121,429,5,
11754.3,-0.616455,4.7699,0.8,14.0121,429,5,
11754.3,-0.617065,4.76685,0.8,14.0121,429,5,
11754.3,-0.61676,4.76837,0.8,14.0121,429,5,
11754.3,-0.61615,4.77142,0.8,14.0121,429,5,
11754.3,-0.61676,4.76837,0.8,14.0121,429,5,
11754.3,-0.61676,4.76685,0.8,14.0121,429,5,
11754.3,-0.612488,4.7699,0.8,14.0121,429,5,
11754.3,-0.611572,4.76837,0.8,14.0121,429,5,
11754.3,-0.611572,4.76837,0.8,14.0121,429,5,
11754.3,-0.611877,4.76837,0.8,14.0121,429,5,
11754.3,-0.612488,4.76837,0.8,14.0121,429,5,
11754.3,-0.611267,4.76837,0.8,14.0121,429,5,
11754.3,-0.606995,4.76685,0.8,14.0121,429,5,
11754.4,-0.607605,4.76837,0.8,14.0121,429,5,
11754.4,-0.606995,4.77142,0.8,14.0121,429,5,
11754.4,-0.607605,4.77142,0.8,14.0121,429,5,
11754.4,-0.606995,4.76685,0.8,14.0121,429,5,
11754.4,-0.606384,4.76837,0.8,14.0121,429,5,
11754.4,-0.602417,4.76837,0.8,14.0121,429,5,
11754.4,-0.602112,4.76379,0.8,14.0121,429,5,
11754.4,-0.601501,4.7699,0.8,14.0121,429,5,
11754.4,-0.601196,4.76837,0.8,14.0121,429,5,
11754.4,-0.601807,4.77142,0.8,14.0121,429,5,
11754.4,-0.601807,4.76532,0.8,14.0121,429,5,
11754.4,-0.598755,4.7699,0.8,14.0121,429,5,
11754.4,-0.596924,4.7699,0.8,14.0121,429,5,
11754.4,-0.596924,4.76837,0.8,14.0121,429,5,
11754.4,-0.596008,4.76227,0.8,14.0121,429,5,
11754.4,-0.596313,4.76837,0.8,14.0121,429,5,
11754.4,-0.596619,4.76837,0.8,14.0121,429,5,
11754.4,-0.594482,4.76685,0.8,14.0121,429,5,
11754.4,-0.591736,4.76685,0.8,14.0121,429,5,
11754.4,-0.591736,4.76837,0.8,14.0121,429,5,
11754.4,-0.592651,4.7699,0.8,14.0121,429,5,
11754.4,-0.592346,4.76837,0.8,14.0121,429,5,
11754.4,-0.591736,4.76837,0.8,14.0121,429,5,
11754.4,-0.589294,4.7699,0.8,14.0121,429,5,
11754.4,-0.587769,4.76837,0.8,14.0121,429,5,
11754.4,-0.586548,4.76532,0.8,14.0121,429,5,
11754.4,-0.586853,4.76837,0.8,14.0121,429,5,
11754.4,-0.587463,4.76685,0.8,14.0121,429,5,
11754.4,-0.587463,4.76685,0.8,14.0121,429,5,
11754.4,-0.586853,4.76685,0.8,14.0121,429,5,
11754.4,-0.582275,4.76532,0.8,14.0121,429,5,
11754.4,-0.582275,4.76837,0.8,14.0121,429,5,
11754.4,-0.58197,4.76837,0.8,14.0121,429,5,
11754.4,-0.582275,4.76685,0.8,14.0121,429,5,
11754.4,-0.582275,4.7699,0.8,14.0121,429,5,
11754.4,-0.582275,4.76685,0.8,14.0121,429,5,
11754.4,-0.578308,4.76685,0.8,14.0121,429,5,
11754.4,-0.577698,4.76685,0.8,14.0121,429,5,
11754.4,-0.577087,4.76685,0.8,14.0121,429,5,
11754.4,-0.576782,4.76532,0.8,14.0121,429,5,
11754.4,-0.577087,4.76532,0.8,14.0121,429,5,
11754.4,-0.577087,4.76837,0.8,14.0121,429,5,
11754.4,-0.577698,4.76685,0.8,14.0121,429,5,
11754.4,-0.571899,4.76685,0.8,14.0121,429,5,
11754.4,-0.572815,4.76532,0.8,14.0121,429,5,
11754.4,-0.571899,4.7699,0.8,14.0121,429,5,
11754.4,-0.572815,4.76685,0.8,14.0121,429,5,
11754.4,-0.571899,4.76837,0.8,14.0121,429,5,
11754.4,-0.57251,4.7699,0.8,14.0121,429,5,
11754.4,-0.57312,4.76379,0.8,14.0121,429,5,
11754.5,-0.568237,4.76837,0.8,14.0121,429,5,
11754.5,-0.568237,4.76837,0.8,14.0121,429,5,
11754.5,-0.567932,4.76837,0.8,14.0121,429,5,
11754.5,-0.567627,4.76685,0.8,14.0121,429,5,
11754.5,-0.567017,4.76837,0.8,14.0121,429,5,
11754.5,-0.568237,4.76837,0.8,14.0121,429,5,
11754.5,-0.567322,4.76685,0.8,14.0121,429,5,
11754.5,-0.564575,4.76685,0.8,14.0121,429,5,
11754.5,-0.563049,4.76685,0.8,14.0121,429,5,
11754.5,-0.56366,4.7699,0.8,14.0121,429,5,
11754.5,-0.562439,4.76837,0.8,14.0121,429,5,
11754.5,-0.562439,4.76685,0.8,14.0121,429,5,
11754.5,-0.56366,4.76837,0.8,14.0121,429,5,
11754.5,-0.562744,4.76837,0.8,14.0121,429,5,
11754.5,-0.562439,4.76685,0.8,14.0121,429,5,
11754.5,-0.559998,4.7699,0.8,14.0121,429,5,
11754.5,-0.557556,4.76685,0.8,14.0121,429,5,
11754.5,-0.558167,4.7699,0.8,14.0121,429,5,
11754.5,-0.558472,4.76532,0.8,14.0121,429,5,
11754.5,-0.557861,4.76837,0.8,14.0121,429,5,
11754.5,-0.558472,4.76837,0.8,14.0121,429,5,
11754.5,-0.557556,4.77142,0.8,14.0121,429,5,
11754.5,-0.557556,4.76837,0.8,14.0121,429,5,
11754.5,-0.557861,4.76685,0.8,14.0121,429,5,
11754.5,-0.55542,4.76685,0.8,14.0121,429,5,
11754.5,-0.552979,4.7699,0.8,14.0121,429,5,
11754.5,-0.553284,4.77142,0.8,14.0121,429,5,
11754.5,-0.552979,4.77142,0.8,14.0121,429,5,
11754.5,-0.553589,4.76532,0.8,14.0121,429,5,
11754.5,-0.552979,4.76837,0.8,14.0121,429,5,
11754.5,-0.553284,4.76379,0.8,14.0121,429,5,
11754.5,-0.552979,4.76685,0.8,14.0121,429,5,
11754.5,-0.553589,4.76685,0.8,14.0121,429,5,
11754.5,-0.553284,4.7699,0.8,14.0121,429,5,
11754.5,-0.549011,4.76837,0.8,14.0121,429,5,
11754.5,-0.548401,4.76837,0.8,14.0121,429,5,
11754.5,-0.548096,4.76837,0.8,14.0121,429,5,
11754.5,-0.548706,4.7699,0.8,14.0121,429,5,
11754.5,-0.547791,4.76685,0.8,14.0121,429,5,
11754.5,-0.549011,4.76685,0.8,14.0121,429,5,
11754.5,-0.548096,4.76837,0.8,14.0121,429,5,
11754.5,-0.547791,4.76685,0.8,14.0121,429,5,
11754.5,-0.548401,4.76685,0.8,14.0121,429,5,
11754.5,-0.548096,4.7699,0.8,14.0121,429,5,
11754.5,-0.547791,4.76685,0.8,14.0121,429,5,
11754.5,-0.543823,4.76685,0.8,14.0121,429,5,
11754.5,-0.543823,4.76379,0.8,14.0121,429,5,
11754.5,-0.543213,4.76379,0.8,14.0121,429,5,
11754.5,-0.543213,4.76837,0.8,14.0121,429,5,
11754.5,-0.542908,4.76685,0.8,14.0121,429,5,
11754.5,-0.543213,4.76685,0.8,14.0121,429,5,
11754.6,-0.543518,4.76532,0.8,14.0121,429,5,
11754.6,-0.543213,4.76685,0.8,14.0121,429,5,
11754.6,-0.543213,4.76532,0.8,14.0121,429,5,
11754.6,-0.543823,4.76685,0.8,14.0121,429,5,
11754.6,-0.543213,4.76532,0.8,14.0121,429,5,
11754.6,-0.543213,4.76685,0.8,14.0121,429,5,
11754.6,-0.538635,4.76532,0.8,14.0121,429,5,
11754.6,-0.53833,4.76837,0.8,14.0121,429,5,
11754.6,-0.538025,4.76837,0.8,14.0121,429,5,
11754.6,-0.537109,4.76532,0.8,14.0121,429,5,
11754.6,-0.538635,4.76685,0.8,14.0121,429,5,
11754.6,-0.538025,4.76532,0.8,14.0121,429,5,
11754.6,-0.53833,4.76837,0.8,14.0121,429,5,
11754.6,-0.53833,4.7699,0.8,14.0121,429,5,
11754.6,-0.538635,4.7699,0.8,14.0121,429,5,
11754.6,-0.53833,4.76685,0.8,14.0121,429,5,
11754.6,-0.538635,4.76379,0.8,14.0121,429,5,
11754.6,-0.538025,4.76837,0.8,14.0121,429,5,
11754.6,-0.53833,4.76532,0.8,14.0121,429,5,
11754.6,-0.538635,4.76685,0.8,14.0121,429,5,
11754.6,-0.534058,4.76685,0.8,14.0121,429,5,
11754.6,-0.533447,4.76837,0.8,14.0121,429,5,
11754.6,-0.533142,4.76685,0.8,14.0121,429,5,
11754.6,-0.532227,4.76837,0.8,14.0121,429,5,
11754.6,-0.533447,4.76379,0.8,14.0121,429,5,
11754.6,-0.533447,4.76685,0.8,14.0121,429,5,
11754.6,-0.533752,4.76685,0.8,14.0121,429,5,
11754.6,-0.533447,4.76837,0.8,14.0121,429,5,
11754.6,-0.533142,4.76532,0.8,14.0121,429,5,
11754.6,-0.533447,4.76837,0.8,14.0121,429,5,
11754.6,-0.533142,4.7699,0.8,14.0121,429,5,
11754.6,-0.532837,4.76532,0.8,14.0121,429,5,
11754.6,-0.533447,4.76837,0.8,14.0121,429,5,
11754.6,-0.533752,4.76532,0.8,14.0121,429,5,
11754.6,-0.533142,4.76837,0.8,14.0121,429,5,
11754.6,-0.533752,4.76074,0.8,14.0121,429,5,
11754.6,-0.533752,4.76685,0.8,14.0121,429,5,
11754.6,-0.533142,4.7699,0.8,14.0121,429,5,
11754.6,-0.528259,4.76837,0.8,14.0121,429,5,
11754.6,-0.528259,4.76685,0.8,14.0121,429,5,
11754.6,-0.52887,4.76837,0.8,14.0121,429,5,
11754.6,-0.528259,4.76532,0.8,14.0121,429,5,
11754.6,-0.528564,4.76685,0.8,14.0121,429,5,
11754.6,-0.527954,4.76685,0.8,14.0121,429,5,
11754.6,-0.528564,4.76379,0.8,14.0121,429,5,
11754.6,-0.52887,4.76532,0.8,14.0121,429,5,
11754.6,-0.52948,4.7699,0.8,14.0121,429,5,
11754.6,-0.528259,4.76685,0.8,14.0121,429,5,
11754.6,-0.528259,4.7699,0.8,14.0121,429,5,
11754.6,-0.52887,4.76685,0.8,14.0121,429,5,
11754.7,-0.528259,4.76532,0.8,14.0121,429,5,
11754.7,-0.528259,4.76685,0.8,14.0121,429,5,
11754.7,-0.52887,4.76532,0.8,14.0121,429,5,
11754.7,-0.528259,4.7699,0.8,14.0121,429,5,
11754.7,-0.528564,4.76837,0.8,14.0121,429,5,
11754.7,-0.527954,4.76379,0.8,14.0121,429,5,
11754.7,-0.523987,4.76685,0.8,14.0121,429,5,
11754.7,-0.523987,4.76379,0.8,14.0121,429,5,
11754.7,-0.523376,4.76837,0.8,14.0121,429,5,
11754.7,-0.523987,4.76837,0.8,14.0121,429,5,
11754.7,-0.523376,4.76685,0.8,14.0121,429,5,
11754.7,-0.523071,4.76379,0.8,14.0121,429,5,
11754.7,-0.523376,4.76837,0.8,14.0121,429,5,
11754.7,-0.523987,4.76685,0.8,14.0121,429,5,
11754.7,-0.523376,4.76685,0.8,14.0121,429,5,
11754.7,-0.523071,4.76685,0.8,14.0121,429,5,
11754.7,-0.523376,4.76685,0.8,14.0121,429,5,
11754.7,-0.523376,4.76837,0.8,14.0121,429,5,
11754.7,-0.523682,4.76685,0.8,14.0121,429,5,
11754.7,-0.524292,4.76532,0.8,14.0121,429,5,
11754.7,-0.519104,4.76532,0.8,14.0121,429,5,
11754.7,-0.519409,4.76837,0.8,14.0121,429,5,
11754.7,-0.519104,4.76685,0.8,14.0121,429,5,
11754.7,-0.518188,4.76379,0.8,14.0121,429,5,
11754.7,-0.518799,4.76837,0.8,14.0121,429,5,
11754.7,-0.519104,4.7699,0.8,14.0121,429,5,
11754.7,-0.518799,4.76685,0.8,14.0121,429,5,
11754.7,-0.518494,4.76685,0.8,14.0121,429,5,
11754.7,-0.518799,4.7699,0.8,14.0121,429,5,
11754.7,-0.519104,4.76837,0.8,14.0121,429,5,
11754.7,-0.519104,4.7699,0.8,14.0121,429,5,
11754.7,-0.514832,4.76685,0.8,14.0121,429,5,
11754.7,-0.513306,4.76532,0.8,14.0121,429,5,
11754.7,-0.513306,4.76532,0.8,14.0121,429,5,
11754.7,-0.513916,4.76532,0.8,14.0121,429,5,
11754.7,-0.513306,4.76685,0.8,14.0121,429,5,
11754.7,-0.514221,4.76685,0.8,14.0121,429,5,
11754.7,-0.513916,4.76685,0.8,14.0121,429,5,
11754.7,-0.513611,4.7699,0.8,14.0121,429,5,
11754.7,-0.513916,4.76532,0.8,14.0121,429,5,
11754.7,-0.513306,4.76837,0.8,14.0121,429,5,
11754.7,-0.508728,4.76685,0.8,14.0121,429,5,
11754.7,-0.509033,4.76532,0.8,14.0121,429,5,
11754.7,-0.509338,4.76837,0.8,14.0121,429,5,
11754.7,-0.508423,4.76532,0.8,14.0121,429,5,
11754.7,-0.509033,4.76532,0.8,14.0121,429,5,
11754.7,-0.507812,4.76837,0.8,14.0121,429,5,
11754.7,-0.509033,4.76837,0.8,14.0121,429,5,
11754.7,-0.509338,4.76837,0.8,14.0121,429,5,
11754.8,-0.506592,4.76837,0.8,14.0121,429,5,
11754.8,-0.503845,4.76837,0.8,14.0121,429,5,
11754.8,-0.503845,4.76532,0.8,14.0121,429,5,
11754.8,-0.503845,4.76379,0.8,14.0121,429,5,
11754.8,-0.50415,4.76685,0.8,14.0121,429,5,
11754.8,-0.504456,4.76837,0.8,14.0121,429,5,
11754.8,-0.50415,4.76837,0.8,14.0121,429,5,
11754.8,-0.504456,4.76837,0.8,14.0121,429,5,
11754.8,-0.501404,4.76837,0.8,14.0121,429,5,
11754.8,-0.498962,4.76685,0.8,14.0121,429,5,
11754.8,-0.498657,4.7699,0.8,14.0121,429,5,
11754.8,-0.499573,4.76837,0.8,14.0121,429,5,
11754.8,-0.498962,4.7699,0.8,14.0121,429,5,
11754.8,-0.499268,4.77142,0.8,14.0121,429,5,
11754.8,-0.498962,4.76685,0.8,14.0121,429,5,
11754.8,-0.498962,4.7699,0.8,14.0121,429,5,
11754.8,-0.494385,4.76837,0.8,14.0121,429,5,
11754.8,-0.493469,4.76532,0.8,14.0121,429,5,
11754.8,-0.49469,4.76837,0.8,14.0121,429,5,
11754.8,-0.49408,4.77142,0.8,14.0121,429,5,
11754.8,-0.49408,4.76379,0.8,14.0121,429,5,
11754.8,-0.49469,4.76837,0.8,14.0121,429,5,
11754.8,-0.49469,4.76685,0.8,14.0121,429,5,
11754.8,-0.490112,4.76837,0.8,14.0121,429,5,
11754.8,-0.489502,4.7699,0.8,14.0121,429,5,
11754.8,-0.489197,4.77142,0.8,14.0121,429,5,
11754.8,-0.489502,4.76685,0.8,14.0121,429,5,
11754.8,-0.489197,4.76532,0.8,14.0121,429,5,
11754.8,-0.489502,4.76532,0.8,14.0121,429,5,
11754.8,-0.489502,4.76532,0.8,14.0121,429,5,
11754.8,-0.484314,4.76837,0.8,14.0121,429,5,
11754.8,-0.484619,4.76685,0.8,14.0121,429,5,
11754.8,-0.483704,4.76685,0.8,14.0121,429,5,
11754.8,-0.483704,4.76837,0.8,14.0121,429,5,
11754.8,-0.484314,4.76532,0.8,14.0121,429,5,
11754.8,-0.484314,4.76379,0.8,14.0121,429,5,
11754.8,-0.485229,4.76685,0.8,14.0121,429,5,
11754.8,-0.479431,4.76685,0.8,14.0121,429,5,
11754.8,-0.479736,4.76532,0.8,14.0121,429,5,
11754.8,-0.479736,4.7699,0.8,14.0121,429,5,
11754.8,-0.479431,4.7699,0.8,14.0121,429,5,
11754.8,-0.479126,4.76379,0.8,14.0121,429,5,
11754.8,-0.479736,4.76532,0.8,14.0121,429,5,
11754.8,-0.474243,4.7699,0.8,14.0121,429,5,
11754.8,-0.474548,4.76685,0.8,14.0121,429,5,
11754.8,-0.474548,4.76685,0.8,14.0121,429,5,
11754.8,-0.474854,4.76685,0.8,14.0121,429,5,
11754.8,-0.474548,4.76837,0.8,14.0121,429,5,
11754.8,-0.473938,4.76532,0.8,14.0121,429,5,
11754.8,-0.469971,4.76532,0.8,14.0121,429,5,
11754.9,-0.469666,4.76837,0.8,14.0121,429,5,
11754.9,-0.46936,4.76532,0.8,14.0121,429,5,
11754.9,-0.469666,4.76379,0.8,14.0121,429,5,
11754.9,-0.469971,4.76685,0.8,14.0121,429,5,
11754.9,-0.465698,4.76685,0.8,14.0121,429,5,
11754.9,-0.465393,4.7699,0.8,14.0121,429,5,
11754.9,-0.464478,4.77142,0.8,14.0121,429,5,
11754.9,-0.465088,4.76685,0.8,14.0121,429,5,
11754.9,-0.464783,4.76685,0.8,14.0121,429,5,
11754.9,-0.464478,4.76837,0.8,14.0121,429,5,
11754.9,-0.460205,4.76837,0.8,14.0121,429,5,
11754.9,-0.4599,4.76837,0.8,14.0121,429,5,
11754.9,-0.459595,4.76532,0.8,14.0121,429,5,
11754.9,-0.4599,4.7699,0.8,14.0121,429,5,
11754.9,-0.458984,4.76685,0.8,14.0121,429,5,
11754.9,-0.454102,4.7699,0.8,14.0121,429,5,
11754.9,-0.454102,4.76837,0.8,14.0121,429,5,
11754.9,-0.453796,4.76532,0.8,14.0121,429,5,
11754.9,-0.454102,4.76532,0.8,14.0121,429,5,
11754.9,-0.454407,4.76685,0.8,14.0121,429,5,
11754.9,-0.450134,4.76685,0.8,14.0121,429,5,
11754.9,-0.450134,4.76837,0.8,14.0121,429,5,
11754.9,-0.449829,4.76685,0.8,14.0121,429,5,
11754.9,-0.449829,4.76379,0.8,14.0121,429,5,
11754.9,-0.447693,4.76685,0.8,14.0121,429,5,
11754.9,-0.445251,4.7699,0.8,14.0121,429,5,
11754.9,-0.445557,4.76379,0.8,14.0121,429,5,
11754.9,-0.444641,4.76685,0.8,14.0121,429,5,
11754.9,-0.444946,4.76837,0.8,14.0121,429,5,
11754.9,-0.440369,4.76685,0.8,14.0121,429,5,
11754.9,-0.440063,4.76685,0.8,14.0121,429,5,
11754.9,-0.440063,4.76685,0.8,14.0121,429,5,
11754.9,-0.440369,4.7699,0.8,14.0121,429,5,
11754.9,-0.436096,4.76837,0.8,14.0121,429,5,
11754.9,-0.434875,4.76379,0.8,14.0121,429,5,
11754.9,-0.434875,4.76532,0.8,14.0121,429,5,
11754.9,-0.435181,4.76685,0.8,14.0121,429,5,
11754.9,-0.431519,4.7699,0.8,14.0121,429,5,
11754.9,-0.430603,4.76837,0.8,14.0121,429,5,
11754.9,-0.430603,4.76685,0.8,14.0121,429,5,
11754.9,-0.430908,4.76837,0.8,14.0121,429,5,
11754.9,-0.426025,4.76379,0.8,14.0121,429,5,
11754.9,-0.426331,4.76837,0.8,14.0121,429,5,
11754.9,-0.42572,4.76379,0.8,14.0121,429,5,
11754.9,-0.42572,4.76532,0.8,14.0121,429,5,
11754.9,-0.421143,4.76837,0.8,14.0121,429,5,
11754.9,-0.421143,4.7699,0.8,14.0121,429,5,
11754.9,-0.421143,4.76837,0.8,14.0121,429,5,
11754.9,-0.415955,4.76685,0.8,14.0121,429,5,
11754.9,-0.415955,4.76837,0.8,14.0121,429,5,
11755,-0.415649,4.76837,0.8,14.0121,429,5,
11755,-0.415039,4.76685,0.8,14.0121,429,5,
11755,-0.410156,4.7699,0.8,14.0121,429,5,
11755,-0.411072,4.76532,0.8,14.0121,429,5,
11755,-0.411072,4.76837,0.8,14.0121,429,5,
11755,-0.405579,4.76837,0.8,14.0121,429,5,
11755,-0.406189,4.76685,0.8,14.0121,429,5,
11755,-0.405884,4.76685,0.8,14.0121,429,5,
11755,-0.402222,4.76685,0.8,14.0121,429,5,
11755,-0.400391,4.76379,0.8,14.0121,429,5,
11755,-0.401306,4.76685,0.8,14.0121,429,5,
11755,-0.398254,4.76685,0.8,14.0121,429,5,
11755,-0.396118,4.76532,0.8,14.0121,429,5,
11755,-0.396118,4.76685,0.8,14.0121,429,5,
11755,-0.393372,4.76837,0.8,14.0121,429,5,
11755,-0.39093,4.76685,0.8,14.0121,429,5,
11755,-0.391541,4.76837,0.8,14.0121,429,5,
11755,-0.388794,4.76685,0.8,14.0121,429,5,
11755,-0.386353,4.76685,0.8,14.0121,429,5,
11755,-0.386047,4.76532,0.8,14.0121,429,5,
11755,-0.386963,4.76379,0.8,14.0121,429,5,
11755,-0.381165,4.76532,0.8,14.0121,429,5,
11755,-0.381165,4.7699,0.8,14.0121,429,5,
11755,-0.379028,4.76837,0.8,14.0121,429,5,
11755,-0.376282,4.76837,0.8,14.0121,429,5,
11755,-0.375977,4.76379,0.8,14.0121,429,5,
11755,-0.37323,4.76837,0.8,14.0121,429,5,
11755,-0.371704,4.76532,0.8,14.0121,429,5,
11755,-0.371399,4.7699,0.8,14.0121,429,5,
11755,-0.368652,4.76685,0.8,14.0121,429,5,
11755,-0.366211,4.76685,0.8,14.0121,429,5,
11755,-0.366821,4.76685,0.8,14.0121,429,5,
11755,-0.361938,4.76837,0.8,14.0121,429,5,
11755,-0.361938,4.76685,0.8,14.0121,429,5,
11755,-0.361633,4.76685,0.8,14.0121,429,5,
11755,-0.357056,4.76685,0.8,14.0121,429,5,
11755,-0.356445,4.76685,0.8,14.0121,429,5,
11755,-0.357361,4.76685,0.8,14.0121,429,5,
11755,-0.351562,4.7699,0.8,14.0121,429,5,
11755,-0.351257,4.76532,0.8,14.0121,429,5,
11755,-0.351562,4.76837,0.8,14.0121,429,5,
11755,-0.347595,4.76685,0.8,14.0121,429,5,
11755,-0.34729,4.76532,0.8,14.0121,429,5,
11755,-0.344238,4.76837,0.8,14.0121,429,5,
11755,-0.342407,4.76837,0.8,14.0121,429,5,
11755,-0.341492,4.76837,0.8,14.0121,429,5,
11755,-0.337524,4.76685,0.8,14.0121,429,5,
11755,-0.336914,4.76837,0.8,14.0121,429,5,
11755,-0.336914,4.76685,0.8,14.0121,429,5,
11755,-0.332642,4.76685,0.8,14.0121,429,5,
11755,-0.332642,4.7699,0.8,14.0121,429,5,
11755.1,-0.327759,4.77142,0.8,14.0121,429,5,
11755.1,-0.327148,4.76379,0.8,14.0121,429,5,
11755.1,-0.327148,4.76685,0.8,14.0121,429,5,
11755.1,-0.322571,4.76685,0.8,14.0121,429,5,
11755.1,-0.32196,4.77142,0.8,14.0121,429,5,
11755.1,-0.319824,4.76837,0.8,14.0121,429,5,
11755.1,-0.317383,4.76837,0.8,14.0121,429,5,
11755.1,-0.317383,4.76685,0.8,14.0121,429,5,
11755.1,-0.3125,4.76837,0.8,14.0121,429,5,
11755.1,-0.31189,4.76685,0.8,14.0121,429,5,
11755.1,-0.309753,4.76379,0.8,14.0121,429,5,
11755.1,-0.307312,4.76837,0.8,14.0121,429,5,
11755.1,-0.308228,4.76532,0.8,14.0121,429,5,
11755.1,-0.302734,4.76685,0.8,14.0121,429,5,
11755.1,-0.303345,4.76685,0.8,14.0121,429,5,
11755.1,-0.299988,4.76685,0.8,14.0121,429,5,
11755.1,-0.297852,4.76837,0.8,14.0121,429,5,
11755.1,-0.298462,4.76837,0.8,14.0121,429,5,
11755.1,-0.293274,4.76685,0.8,14.0121,429,5,
11755.1,-0.293274,4.7699,0.8,14.0121,429,5,
11755.1,-0.290833,4.7699,0.8,14.0121,429,5,
11755.1,-0.288086,4.76532,0.8,14.0121,429,5,
11755.1,-0.288086,4.7699,0.8,14.0121,429,5,
11755.1,-0.283813,4.76685,0.8,14.0121,429,5,
11755.1,-0.283203,4.76685,0.8,14.0121,429,5,
11755.1,-0.281067,4.76532,0.8,14.0121,429,5,
11755.1,-0.27832,4.76532,0.8,14.0121,429,5,
11755.1,-0.278931,4.76837,0.8,14.0121,429,5,
11755.1,-0.274353,4.76532,0.8,14.0121,429,5,
11755.1,-0.273743,4.76837,0.8,14.0121,429,5,
11755.1,-0.273438,4.76837,0.8,14.0121,429,5,
11755.1,-0.26886,4.76532,0.8,14.0121,429,5,
11755.1,-0.269165,4.76837,0.8,14.0121,429,5,
11755.1,-0.264282,4.76837,0.8,14.0121,429,5,
11755.1,-0.263672,4.76837,0.8,14.0121,429,5,
11755.1,-0.262756,4.76685,0.8,14.0121,429,5,
11755.1,-0.258789,4.76685,0.8,14.0121,429,5,
11755.1,-0.258789,4.7699,0.8,14.0121,429,5,
11755.1,-0.256042,4.7699,0.8,14.0121,429,5,
11755.1,-0.254211,4.76685,0.8,14.0121,429,5,
11755.1,-0.254211,4.7699,0.8,14.0121,429,5,
11755.1,-0.249023,4.76685,0.8,14.0121,429,5,
11755.1,-0.248718,4.76685,0.8,14.0121,429,5,
11755.1,-0.249329,4.76837,0.8,14.0121,429,5,
11755.1,-0.244141,4.76685,0.8,14.0121,429,5,
11755.1,-0.244141,4.76685,0.8,14.0121,429,5,
11755.1,-0.241699,4.77142,0.8,14.0121,429,5,
11755.1,-0.238953,4.76685,0.8,14.0121,429,5,
11755.1,-0.238647,4.76532,0.8,14.0121,429,5,
11755.1,-0.23468,4.76837,0.8,14.0121,429,5,
11755.2,-0.234985,4.76685,0.8,14.0121,429,5,
11755.2,-0.23407,4.77142,0.8,14.0121,429,5,
11755.2,-0.229492,4.76685,0.8,14.0121,429,5,
11755.2,-0.228577,4.76685,0.8,14.0121,429,5,
11755.2,-0.228882,4.76685,0.8,14.0121,429,5,
11755.2,-0.224304,4.76685,0.8,14.0121,429,5,
11755.2,-0.224304,4.76532,0.8,14.0121,429,5,
11755.2,-0.224915,4.76837,0.8,14.0121,429,5,
11755.2,-0.219421,4.76685,0.8,14.0121,429,5,
11755.2,-0.219421,4.76685,0.8,14.0121,429,5,
11755.2,-0.21698,4.76532,0.8,14.0121,429,5,
11755.2,-0.213928,4.76532,0.8,14.0121,429,5,
11755.2,-0.214844,4.76685,0.8,14.0121,429,5,
11755.2,-0.212097,4.76837,0.8,14.0121,429,5,
11755.2,-0.210266,4.76685,0.8,14.0121,429,5,
11755.2,-0.209961,4.76837,0.8,14.0121,429,5,
11755.2,-0.206909,4.76837,0.8,14.0121,429,5,
11755.2,-0.204773,4.77142,0.8,14.0121,429,5,
11755.2,-0.204468,4.76532,0.8,14.0121,429,5,
11755.2,-0.202942,4.76532,0.8,14.0121,429,5,
11755.2,-0.200195,4.7699,0.8,14.0121,429,5,
11755.2,-0.19989,4.77142,0.8,14.0121,429,5,
11755.2,-0.197449,4.76532,0.8,14.0121,429,5,
11755.2,-0.195007,4.76532,0.8,14.0121,429,5,
11755.2,-0.195312,4.76685,0.8,14.0121,429,5,
11755.2,-0.194702,4.76837,0.8,14.0121,429,5,
11755.2,-0.190735,4.76837,0.8,14.0121,429,5,
11755.2,-0.189514,4.76379,0.8,14.0121,429,5,
11755.2,-0.189819,4.76837,0.8,14.0121,429,5,
11755.2,-0.184937,4.76837,0.8,14.0121,429,5,
11755.2,-0.185242,4.76837,0.8,14.0121,429,5,
11755.2,-0.185242,4.76685,0.8,14.0121,429,5,
11755.2,-0.180664,4.7699,0.8,14.0121,429,5,
11755.2,-0.180359,4.76685,0.8,14.0121,429,5,
11755.2,-0.180359,4.76685,0.8,14.0121,429,5,
11755.2,-0.180664,4.76685,0.8,14.0121,429,5,
11755.2,-0.175171,4.76532,0.8,14.0121,429,5,
11755.2,-0.175171,4.76532,0.8,14.0121,429,5,
11755.2,-0.174255,4.76532,0.8,14.0121,429,5,
11755.2,-0.170288,4.76685,0.8,14.0121,429,5,
11755.2,-0.170898,4.76685,0.8,14.0121,429,5,
11755.2,-0.171204,4.7699,0.8,14.0121,429,5,
11755.2,-0.168762,4.76837,0.8,14.0121,429,5,
11755.2,-0.164795,4.7699,0.8,14.0121,429,5,
11755.2,-0.16571,4.76837,0.8,14.0121,429,5,
11755.2,-0.165405,4.76685,0.8,14.0121,429,5,
11755.2,-0.161133,4.76837,0.8,14.0121,429,5,
11755.2,-0.160828,4.76837,0.8,14.0121,429,5,
11755.2,-0.160522,4.76685,0.8,14.0121,429,5,
11755.2,-0.160217,4.76685,0.8,14.0121,429,5,
11755.3,-0.15564,4.76837,0.8,14.0121,429,5,
11755.3,-0.155945,4.7699,0.8,14.0121,429,5,
11755.3,-0.155334,4.7699,0.8,14.0121,429,5,
11755.3,-0.155945,4.76685,0.8,14.0121,429,5,
11755.3,-0.151062,4.76532,0.8,14.0121,429,5,
11755.3,-0.151062,4.76685,0.8,14.0121,429,5,
11755.3,-0.150757,4.76685,0.8,14.0121,429,5,
11755.3,-0.14801,4.76685,0.8,14.0121,429,5,
11755.3,-0.146484,4.76837,0.8,14.0121,429,5,
11755.3,-0.146179,4.77142,0.8,14.0121,429,5,
11755.3,-0.145874,4.76837,0.8,14.0121,429,5,
11755.3,-0.144043,4.76532,0.8,14.0121,429,5,
11755.3,-0.141602,4.76685,0.8,14.0121,429,5,
11755.3,-0.140686,4.76837,0.8,14.0121,429,5,
11755.3,-0.140686,4.76837,0.8,14.0121,429,5,
11755.3,-0.13855,4.76837,0.8,14.0121,429,5,
11755.3,-0.135803,4.76685,0.8,14.0121,429,5,
11755.3,-0.136108,4.7699,0.8,14.0121,429,5,
11755.3,-0.136719,4.76532,0.8,14.0121,429,5,
11755.3,-0.135498,4.76837,0.8,14.0121,429,5,
11755.3,-0.13092,4.76685,0.8,14.0121,429,5,
11755.3,-0.131531,4.76685,0.8,14.0121,429,5,
11755.3,-0.13092,4.76532,0.8,14.0121,429,5,
11755.3,-0.13092,4.76532,0.8,14.0121,429,5,
11755.3,-0.126343,4.77295,0.8,14.0121,429,5,
11755.3,-0.126343,4.7699,0.8,14.0121,429,5,
11755.3,-0.126343,4.76685,0.8,14.0121,429,5,
11755.3,-0.126038,4.7699,0.8,14.0121,429,5,
11755.3,-0.123901,4.76837,0.8,14.0121,429,5,
11755.3,-0.121765,4.76837,0.8,14.0121,429,5,
11755.3,-0.121765,4.76685,0.8,14.0121,429,5,
11755.3,-0.12207,4.76685,0.8,14.0121,429,5,
11755.3,-0.12146,4.76685,0.8,14.0121,429,5,
11755.3,-0.117188,4.76379,0.8,14.0121,429,5,
11755.3,-0.116577,4.7699,0.8,14.0121,429,5,
11755.3,-0.116882,4.76837,0.8,14.0121,429,5,
11755.3,-0.116272,4.76685,0.8,14.0121,429,5,
11755.3,-0.116882,4.76685,0.8,14.0121,429,5,
11755.3,-0.112,4.76685,0.8,14.0121,429,5,
11755.3,-0.111389,4.76685,0.8,14.0121,429,5,
11755.3,-0.111694,4.76837,0.8,14.0121,429,5,
11755.3,-0.11261,4.76685,0.8,14.0121,429,5,
11755.3,-0.108948,4.7699,0.8,14.0121,429,5,
11755.3,-0.107117,4.76685,0.8,14.0121,429,5,
11755.3,-0.107117,4.76532,0.8,14.0121,429,5,
11755.3,-0.107117,4.76532,0.8,14.0121,429,5,
11755.3,-0.107117,4.76379,0.8,14.0121,429,5,
11755.3,-0.10376,4.76837,0.8,14.0121,429,5,
11755.3,-0.101929,4.7699,0.8,14.0121,429,5,
11755.4,-0.101929,4.76685,0.8,14.0121,429,5,
11755.4,-0.101318,4.76685,0.8,14.0121,429,5,
11755.4,-0.101929,4.76837,0.8,14.0121,429,5,
11755.4,-0.0994873,4.76837,0.8,14.0121,429,5,
11755.4,-0.0967407,4.76379,0.8,14.0121,429,5,
11755.4,-0.0973511,4.76685,0.8,14.0121,429,5,
11755.4,-0.0976562,4.7699,0.8,14.0121,429,5,
11755.4,-0.0967407,4.76837,0.8,14.0121,429,5,
11755.4,-0.0946045,4.76837,0.8,14.0121,429,5,
11755.4,-0.0918579,4.76532,0.8,14.0121,429,5,
11755.4,-0.0921631,4.76837,0.8,14.0121,429,5,
11755.4,-0.0927734,4.7699,0.8,14.0121,429,5,
11755.4,-0.0921631,4.76685,0.8,14.0121,429,5,
11755.4,-0.0915527,4.76837,0.8,14.0121,429,5,
11755.4,-0.0869751,4.76532,0.8,14.0121,429,5,
11755.4,-0.0869751,4.76685,0.8,14.0121,429,5,
11755.4,-0.0860596,4.76685,0.8,14.0121,429,5,
11755.4,-0.0872803,4.76532,0.8,14.0121,429,5,
11755.4,-0.0872803,4.76685,0.8,14.0121,429,5,
11755.4,-0.0827026,4.7699,0.8,14.0121,429,5,
11755.4,-0.0823975,4.76837,0.8,14.0121,429,5,
11755.4,-0.0823975,4.76837,0.8,14.0121,429,5,
11755.4,-0.0820923,4.76837,0.8,14.0121,429,5,
11755.4,-0.0823975,4.76837,0.8,14.0121,429,5,
11755.4,-0.0827026,4.76837,0.8,14.0121,429,5,
11755.4,-0.0775146,4.76685,0.8,14.0121,429,5,
11755.4,-0.0772095,4.76685,0.8,14.0121,429,5,
11755.4,-0.0772095,4.76837,0.8,14.0121,429,5,
11755.4,-0.0775146,4.76837,0.8,14.0121,429,5,
11755.4,-0.0772095,4.76837,0.8,14.0121,429,5,
11755.4,-0.0735474,4.76685,0.8,14.0121,429,5,
11755.4,-0.072937,4.76837,0.8,14.0121,429,5,
11755.4,-0.0726318,4.76532,0.8,14.0121,429,5,
11755.4,-0.0723267,4.76685,0.8,14.0121,429,5,
11755.4,-0.0726318,4.76685,0.8,14.0121,429,5,
11755.4,-0.0726318,4.76532,0.8,14.0121,429,5,
11755.4,-0.0680542,4.76837,0.8,14.0121,429,5,
11755.4,-0.0668335,4.7699,0.8,14.0121,429,5,
11755.4,-0.0671387,4.76685,0.8,14.0121,429,5,
11755.4,-0.0671387,4.76837,0.8,14.0121,429,5,
11755.4,-0.0671387,4.76837,0.8,14.0121,429,5,
11755.4,-0.0671387,4.76837,0.8,14.0121,429,5,
11755.4,-0.062561,4.76685,0.8,14.0121,429,5,
11755.4,-0.062561,4.76685,0.8,14.0121,429,5,
11755.4,-0.0622559,4.76532,0.8,14.0121,429,5,
11755.4,-0.0619507,4.76837,0.8,14.0121,429,5,
11755.4,-0.062561,4.7699,0.8,14.0121,429,5,
11755.4,-0.062561,4.76532,0.8,14.0121,429,5,
11755.4,-0.0598145,4.7699,0.8,14.0121,429,5,
11755.4,-0.0576782,4.76532,0.8,14.0121,429,5,
11755.5,-0.0576782,4.76837,0.8,14.0121,429,5,
11755.5,-0.057373,4.76685,0.8,14.0121,429,5,
11755.5,-0.0570679,4.7699,0.8,14.0121,429,5,
11755.5,-0.0576782,4.76379,0.8,14.0121,429,5,
11755.5,-0.0570679,4.76685,0.8,14.0121,429,5,
11755.5,-0.0527954,4.76685,0.8,14.0121,429,5,
11755.5,-0.0531006,4.76685,0.8,14.0121,429,5,
11755.5,-0.0518799,4.76685,0.8,14.0121,429,5,
11755.5,-0.0527954,4.76685,0.8,14.0121,429,5,
11755.5,-0.0527954,4.76685,0.8,14.0121,429,5,
11755.5,-0.0527954,4.76379,0.8,14.0121,429,5,
11755.5,-0.0527954,4.76837,0.8,14.0121,429,5,
11755.5,-0.0479126,4.76837,0.8,14.0121,429,5,
11755.5,-0.0482178,4.76837,0.8,14.0121,429,5,
11755.5,-0.0479126,4.77142,0.8,14.0121,429,5,
11755.5,-0.0485229,4.77142,0.8,14.0121,429,5,
11755.5,-0.0482178,4.7699,0.8,14.0121,429,5,
11755.5,-0.0473022,4.76379,0.8,14.0121,429,5,
11755.5,-0.0482178,4.76685,0.8,14.0121,429,5,
11755.5,-0.0442505,4.76685,0.8,14.0121,429,5,
11755.5,-0.043335,4.77295,0.8,14.0121,429,5,
11755.5,-0.0424194,4.7699,0.8,14.0121,429,5,
11755.5,-0.043335,4.7699,0.8,14.0121,429,5,
11755.5,-0.0430298,4.76837,0.8,14.0121,429,5,
11755.5,-0.0427246,4.7699,0.8,14.0121,429,5,
11755.5,-0.0436401,4.76837,0.8,14.0121,429,5,
11755.5,-0.043335,4.7699,0.8,14.0121,429,5,
11755.5,-0.0430298,4.76837,0.8,14.0121,429,5,
11755.5,-0.0375366,4.76837,0.8,14.0121,429,5,
11755.5,-0.038147,4.76837,0.8,14.0121,429,5,
11755.5,-0.0378418,4.76685,0.8,14.0121,429,5,
11755.5,-0.0384521,4.7699,0.8,14.0121,429,5,
11755.5,-0.038147,4.76685,0.8,14.0121,429,5,
11755.5,-0.038147,4.76685,0.8,14.0121,429,5,
11755.5,-0.038147,4.76685,0.8,14.0121,429,5,
11755.5,-0.0375366,4.76379,0.8,14.0121,429,5,
11755.5,-0.038147,4.77295,0.8,14.0121,429,5,
11755.5,-0.0335693,4.76837,0.8,14.0121,429,5,
11755.5,-0.032959,4.77142,0.8,14.0121,429,5,
11755.5,-0.0338745,4.76532,0.8,14.0121,429,5,
11755.5,-0.0338745,4.7699,0.8,14.0121,429,5,
11755.5,-0.0332642,4.77142,0.8,14.0121,429,5,
11755.5,-0.0332642,4.76837,0.8,14.0121,429,5,
11755.5,-0.032959,4.76837,0.8,14.0121,429,5,
11755.5,-0.0332642,4.76227,0.8,14.0121,429,5,
11755.5,-0.0338745,4.76532,0.8,14.0121,429,5,
11755.5,-0.032959,4.76685,0.8,14.0121,429,5,
11755.5,-0.032959,4.7699,0.8,14.0121,429,5,
11755.5,-0.0289917,4.7699,0.8,14.0121,429,5,
11755.5,-0.027771,4.76685,0.8,14.0121,429,5,
11755.5,-0.0283813,4.7699,0.8,14.0121,429,5,
11755.6,-0.0280762,4.76837,0.8,14.0121,429,5,
11755.6,-0.0286865,4.76532,0.8,14.0121,429,5,
11755.6,-0.027771,4.76837,0.8,14.0121,429,5,
11755.6,-0.0274658,4.7699,0.8,14.0121,429,5,
11755.6,-0.0280762,4.76532,0.8,14.0121,429,5,
11755.6,-0.0286865,4.76837,0.8,14.0121,429,5,
11755.6,-0.027771,4.76532,0.8,14.0121,429,5,
11755.6,-0.0283813,4.76685,0.8,14.0121,429,5,
11755.6,-0.0280762,4.7699,0.8,14.0121,429,5,
11755.6,-0.0274658,4.7699,0.8,14.0121,429,5,
11755.6,-0.0280762,4.76837,0.8,14.0121,429,5,
11755.6,-0.027771,4.76837,0.8,14.0121,429,5,
11755.6,-0.0228882,4.76837,0.8,14.0121,429,5,
11755.6,-0.0234985,4.76837,0.8,14.0121,429,5,
11755.6,-0.0228882,4.76837,0.8,14.0121,429,5,
11755.6,-0.0231934,4.7699,0.8,14.0121,429,5,
11755.6,-0.0238037,4.76379,0.8,14.0121,429,5,
11755.6,-0.0238037,4.76837,0.8,14.0121,429,5,
11755.6,-0.0231934,4.76532,0.8,14.0121,429,5,
11755.6,-0.0231934,4.76837,0.8,14.0121,429,5,
11755.6,-0.0238037,4.76685,0.8,14.0121,429,5,
11755.6,-0.0234985,4.7699,0.8,14.0121,429,5,
11755.6,-0.0238037,4.76685,0.8,14.0121,429,5,
11755.6,-0.0238037,4.76837,0.8,14.0121,429,5,
11755.6,-0.0238037,4.76837,0.8,14.0121,429,5,
11755.6,-0.0231934,4.76532,0.8,14.0121,429,5,
11755.6,-0.0238037,4.76685,0.8,14.0121,429,5,
11755.6,-0.0231934,4.76837,0.8,14.0121,429,5,
11755.6,-0.0238037,4.76532,0.8,14.0121,429,5,
11755.6,-0.0231934,4.76685,0.8,14.0121,429,5,
11755.6,-0.0231934,4.76532,0.8,14.0121,429,5,
11755.6,-0.0231934,4.76685,0.8,14.0121,429,5,
11755.6,-0.0241089,4.76685,0.8,14.0121,429,5,
11755.6,-0.0231934,4.76685,0.8,14.0121,429,5,
11755.6,-0.0234985,4.7699,0.8,14.0121,429,5,
11755.6,-0.0228882,4.7699,0.8,14.0121,429,5,
11755.6,-0.0234985,4.76685,0.8,14.0121,429,5,
11755.6,-0.0231934,4.76685,0.8,14.0121,429,5,
11755.6,-0.0231934,4.76837,0.8,14.0121,429,5,
11755.6,-0.0231934,4.76685,0.8,14.0121,429,5,
11755.6,-0.0204468,4.76685,0.8,14.0121,429,5,
11755.6,-0.0186157,4.76532,0.8,14.0121,429,5,
11755.6,-0.0183105,4.76837,0.8,14.0121,429,5,
11755.6,-0.0186157,4.76685,0.8,14.0121,429,5,
11755.6,-0.0192261,4.76837,0.8,14.0121,429,5,
11755.6,-0.0183105,4.76685,0.8,14.0121,429,5,
11755.6,-0.0189209,4.7699,0.8,14.0121,429,5,
11755.6,-0.0183105,4.76379,0.8,14.0121,429,5,
11755.6,-0.0186157,4.7699,0.8,14.0121,429,5,
11755.6,-0.0186157,4.76685,0.8,14.0121,429,5,
11755.7,-0.0186157,4.76837,0.8,14.0121,429,5,
11755.7,-0.0183105,4.76532,0.8,14.0121,429,5,
11755.7,-0.0186157,4.76685,0.8,14.0121,429,5,
11755.7,-0.0177002,4.76685,0.8,14.0121,429,5,
11755.7,-0.0186157,4.76837,0.8,14.0121,429,5,
11755.7,-0.0186157,4.76685,0.8,14.0121,429,5,
11755.7,-0.0186157,4.76532,0.8,14.0121,429,5,
11755.7,-0.0186157,4.76837,0.8,14.0121,429,5,
11755.7,-0.0186157,4.76837,0.8,14.0121,429,5,
11755.7,-0.0183105,4.76685,0.8,14.0121,429,5,
11755.7,-0.0189209,4.76837,0.8,14.0121,429,5,
11755.7,-0.0180054,4.76837,0.8,14.0121,429,5,
11755.7,-0.0183105,4.76837,0.8,14.0121,429,5,
11755.7,-0.0183105,4.76532,0.8,14.0121,429,5,
11755.7,-0.0180054,4.7699,0.8,14.0121,429,5,
11755.7,-0.0186157,4.76837,0.8,14.0121,429,5,
11755.7,-0.0186157,4.76532,0.8,14.0121,429,5,
11755.7,-0.0186157,4.76685,0.8,14.0121,429,5,
11755.7,-0.0183105,4.76685,0.8,14.0121,429,5,
11755.7,-0.0186157,4.76837,0.8,14.0121,429,5,
11755.7,-0.0186157,4.76685,0.8,14.0121,429,5,
11755.7,-0.0186157,4.76837,0.8,14.0121,429,5,
11755.7,-0.022583,4.76837,0.8,14.0121,429,5,
11755.7,-0.0231934,4.76837,0.8,14.0121,429,5,
11755.7,-0.0234985,4.7699,0.8,14.0121,429,5,
11755.7,-0.0228882,4.76685,0.8,14.0121,429,5,
11755.7,-0.0231934,4.76837,0.8,14.0121,429,5,
11755.7,-0.0234985,4.76685,0.8,14.0121,429,5,
11755.7,-0.0234985,4.76685,0.8,14.0121,429,5,
11755.7,-0.0234985,4.76685,0.8,14.0121,429,5,
11755.7,-0.0231934,4.76837,0.8,14.0121,429,5,
11755.7,-0.022583,4.76227,0.8,14.0121,429,5,
11755.7,-0.0231934,4.76685,0.8,14.0121,429,5,
11755.7,-0.0228882,4.76532,0.8,14.0121,429,5,
11755.7,-0.0234985,4.76837,0.8,14.0121,429,5,
11755.7,-0.0234985,4.7699,0.8,14.0121,429,5,
11755.7,-0.0231934,4.76532,0.8,14.0121,429,5,
11755.7,-0.0231934,4.76379,0.8,14.0121,429,5,
11755.7,-0.0228882,4.76685,0.8,14.0121,429,5,
11755.7,-0.0228882,4.76837,0.8,14.0121,429,5,
11755.7,-0.0228882,4.76685,0.8,14.0121,429,5,
11755.7,-0.0274658,4.76227,0.8,14.0121,429,5,
11755.7,-0.0274658,4.76685,0.8,14.0121,429,5,
11755.7,-0.0283813,4.76685,0.8,14.0121,429,5,
11755.7,-0.0280762,4.76532,0.8,14.0121,429,5,
11755.7,-0.0280762,4.76532,0.8,14.0121,429,5,
11755.7,-0.027771,4.76532,0.8,14.0121,429,5,
11755.7,-0.0286865,4.7699,0.8,14.0121,429,5,
11755.7,-0.0283813,4.76532,0.8,14.0121,429,5,
11755.8,-0.0280762,4.76532,0.8,14.0121,429,5,
11755.8,-0.0280762,4.76685,0.8,14.0121,429,5,
11755.8,-0.0323486,4.76532,1.278,19.7759,429,5,
11755.8,-0.0326538,4.76685,1.278,19.7759,429,5,
11755.8,-0.0335693,4.76837,1.278,19.7759,429,5,
11755.8,-0.032959,4.76685,1.278,19.7759,429,5,
11755.8,-0.0338745,4.76837,1.278,19.7759,429,5,
11755.8,-0.0335693,4.76685,1.278,19.7759,429,5,
11755.8,-0.032959,4.76685,1.278,19.7759,429,5,
11755.8,-0.0326538,4.76837,1.278,19.7759,429,5,
11755.8,-0.038147,4.76379,1.278,19.7759,429,5,
11755.8,-0.038147,4.76837,1.278,19.7759,429,5,
11755.8,-0.0378418,4.76837,1.278,19.7759,429,5,
11755.8,-0.038147,4.76532,1.278,19.7759,429,5,
11755.8,-0.0378418,4.76685,1.278,19.7759,429,5,
11755.8,-0.0378418,4.76837,1.278,19.7759,429,5,
11755.8,-0.0421143,4.76837,1.278,19.7759,429,5,
11755.8,-0.0427246,4.76532,1.278,19.7759,429,5,
11755.8,-0.0427246,4.76532,1.278,19.7759,429,5,
11755.8,-0.0430298,4.76685,1.278,19.7759,429,5,
11755.8,-0.0430298,4.76379,1.278,19.7759,429,5,
11755.8,-0.0436401,4.76837,1.278,19.7759,429,5,
11755.8,-0.0479126,4.76837,1.278,19.7759,429,5,
11755.8,-0.0479126,4.77142,1.278,19.7759,429,5,
11755.8,-0.0479126,4.76837,1.278,19.7759,429,5,
11755.8,-0.0479126,4.76685,1.278,19.7759,429,5,
11755.8,-0.0476074,4.76685,1.278,19.7759,429,5,
11755.8,-0.0506592,4.76837,1.278,19.7759,429,5,
11755.8,-0.0531006,4.76685,1.278,19.7759,429,5,
11755.8,-0.0527954,4.76837,1.278,19.7759,429,5,
11755.8,-0.0527954,4.76379,1.278,19.7759,429,5,
11755.8,-0.0534058,4.76685,1.278,19.7759,429,5,
11755.8,-0.0558472,4.7699,1.278,19.7759,429,5,
11755.8,-0.0576782,4.76532,1.278,19.7759,429,5,
11755.8,-0.0576782,4.76837,1.278,19.7759,429,5,
11755.8,-0.0579834,4.76685,1.278,19.7759,429,5,
11755.8,-0.0579834,4.76685,1.278,19.7759,429,5,
11755.8,-0.06073,4.77142,1.278,19.7759,429,5,
11755.8,-0.0628662,4.76837,1.278,19.7759,429,5,
11755.8,-0.062561,4.76685,1.278,19.7759,429,5,
11755.8,-0.0622559,4.76532,1.278,19.7759,429,5,
11755.8,-0.0631714,4.76532,1.278,19.7759,429,5,
11755.8,-0.0671387,4.76532,1.278,19.7759,429,5,
11755.8,-0.0674438,4.76685,1.278,19.7759,429,5,
11755.8,-0.0671387,4.76837,1.278,19.7759,429,5,
11755.8,-0.0671387,4.76685,1.278,19.7759,429,5,
11755.8,-0.0701904,4.76685,1.278,19.7759,429,5,
11755.8,-0.0723267,4.76379,1.278,19.7759,429,5,
11755.8,-0.0723267,4.76685,1.278,19.7759,429,5,
11755.8,-0.072937,4.76685,1.278,19.7759,429,5,
11755.9,-0.072937,4.76685,1.278,19.7759,429,5,
11755.9,-0.078125,4.76837,1.278,19.7759,429,5,
11755.9,-0.0769043,4.76837,1.278,19.7759,429,5,
11755.9,-0.0775146,4.76837,1.278,19.7759,429,5,
11755.9,-0.0778198,4.76837,1.278,19.7759,429,5,
11755.9,-0.0823975,4.76685,1.278,19.7759,429,5,
11755.9,-0.0823975,4.76837,1.278,19.7759,429,5,
11755.9,-0.0820923,4.76837,1.278,19.7759,429,5,
11755.9,-0.0827026,4.76685,1.278,19.7759,429,5,
11755.9,-0.0869751,4.76685,1.278,19.7759,429,5,
11755.9,-0.0866699,4.76837,1.278,19.7759,429,5,
11755.9,-0.0872803,4.76685,1.278,19.7759,429,5,
11755.9,-0.0869751,4.77142,1.278,19.7759,429,5,
11755.9,-0.0915527,4.76837,1.278,19.7759,429,5,
11755.9,-0.0918579,4.76227,1.278,19.7759,429,5,
11755.9,-0.0918579,4.76685,1.278,19.7759,429,5,
11755.9,-0.0915527,4.76379,1.278,19.7759,429,5,
11755.9,-0.0964355,4.76685,1.278,19.7759,429,5,
11755.9,-0.0973511,4.7699,1.278,19.7759,429,5,
11755.9,-0.0970459,4.7699,1.278,19.7759,429,5,
11755.9,-0.0967407,4.76685,1.278,19.7759,429,5,
11755.9,-0.101624,4.7699,1.278,19.7759,429,5,
11755.9,-0.101929,4.76837,1.278,19.7759,429,5,
11755.9,-0.101929,4.76837,1.278,19.7759,429,5,
11755.9,-0.101624,4.76685,1.278,19.7759,429,5,
11755.9,-0.106201,4.7699,1.278,19.7759,429,5,
11755.9,-0.106812,4.76837,1.278,19.7759,429,5,
11755.9,-0.106506,4.76837,1.278,19.7759,429,5,
11755.9,-0.107422,4.76532,1.278,19.7759,429,5,
11755.9,-0.111389,4.76837,1.278,19.7759,429,5,
11755.9,-0.111694,4.7699,1.278,19.7759,429,5,
11755.9,-0.111694,4.76532,1.278,19.7759,429,5,
11755.9,-0.111084,4.76837,1.278,19.7759,429,5,
11755.9,-0.116272,4.76837,1.278,19.7759,429,5,
11755.9,-0.116882,4.76685,1.278,19.7759,429,5,
11755.9,-0.116882,4.76837,1.278,19.7759,429,5,
11755.9,-0.116577,4.76685,1.278,19.7759,429,5,
11755.9,-0.121765,4.76685,1.278,19.7759,429,5,
11755.9,-0.121765,4.76532,1.278,19.7759,429,5,
11755.9,-0.12207,4.76379,1.278,19.7759,429,5,
11755.9,-0.121155,4.76074,1.278,19.7759,429,5,
11755.9,-0.126953,4.76685,1.278,19.7759,429,5,
11755.9,-0.127258,4.76532,1.278,19.7759,429,5,
11755.9,-0.126648,4.76837,1.278,19.7759,429,5,
11755.9,-0.126953,4.77142,1.278,19.7759,429,5,
11755.9,-0.13092,4.76532,1.278,19.7759,429,5,
11755.9,-0.131531,4.76685,1.278,19.7759,429,5,
11755.9,-0.131531,4.76532,1.278,19.7759,429,5,
11755.9,-0.131531,4.76837,1.278,19.7759,429,5,
11755.9,-0.136108,4.7699,1.278,19.7759,429,5,
11756,-0.135803,4.76837,1.278,19.7759,429,5,
11756,-0.136108,4.76685,1.278,19.7759,429,5,
11756,-0.138855,4.76379,1.278,19.7759,429,5,
11756,-0.141296,4.76685,1.278,19.7759,429,5,
11756,-0.141296,4.7699,1.278,19.7759,429,5,
11756,-0.140686,4.76837,1.278,19.7759,429,5,
11756,-0.144348,4.7699,1.278,19.7759,429,5,
11756,-0.146484,4.76837,1.278,19.7759,429,5,
11756,-0.145874,4.76837,1.278,19.7759,429,5,
11756,-0.146484,4.76837,1.278,19.7759,429,5,
11756,-0.149536,4.76837,1.278,19.7759,429,5,
11756,-0.150757,4.76532,1.278,19.7759,429,5,
11756,-0.150146,4.76685,1.278,19.7759,429,5,
11756,-0.151978,4.76837,1.278,19.7759,429,5,
11756,-0.15564,4.7699,1.278,19.7759,429,5,
11756,-0.155945,4.76685,1.278,19.7759,429,5,
11756,-0.15564,4.76685,1.278,19.7759,429,5,
11756,-0.155945,4.76837,1.278,19.7759,429,5,
11756,-0.160522,4.76532,1.278,19.7759,429,5,
11756,-0.160522,4.76685,1.278,19.7759,429,5,
11756,-0.160828,4.76532,1.278,19.7759,429,5,
11756,-0.160522,4.76685,1.278,19.7759,429,5,
11756,-0.16571,4.7699,1.278,19.7759,429,5,
11756,-0.16571,4.76532,1.278,19.7759,429,5,
11756,-0.16571,4.76685,1.278,19.7759,429,5,
11756,-0.168457,4.76837,1.278,19.7759,429,5,
11756,-0.170593,4.76685,1.278,19.7759,429,5,
11756,-0.170593,4.76837,1.278,19.7759,429,5,
11756,-0.170898,4.7699,1.278,19.7759,429,5,
11756,-0.17334,4.76532,1.278,19.7759,429,5,
11756,-0.175476,4.76532,1.278,19.7759,429,5,
11756,-0.175171,4.76685,1.278,19.7759,429,5,
11756,-0.174866,4.7699,1.278,19.7759,429,5,
11756,-0.179749,4.76685,1.278,19.7759,429,5,
11756,-0.180359,4.76685,1.278,19.7759,429,5,
11756,-0.179749,4.76379,1.278,19.7759,429,5,
11756,-0.179749,4.76379,1.278,19.7759,429,5,
11756,-0.185242,4.76685,1.278,19.7759,429,5,
11756,-0.185242,4.76379,1.278,19.7759,429,5,
11756,-0.186157,4.7699,1.278,19.7759,429,5,
11756,-0.184937,4.76837,1.278,19.7759,429,5,
11756,-0.190125,4.7699,1.278,19.7759,429,5,
11756,-0.189819,4.76379,1.278,19.7759,429,5,
11756,-0.190125,4.76685,1.278,19.7759,429,5,
11756,-0.19043,4.76379,1.278,19.7759,429,5,
11756,-0.195312,4.76837,1.278,19.7759,429,5,
11756,-0.194702,4.76532,1.278,19.7759,429,5,
11756,-0.195007,4.76685,1.278,19.7759,429,5,
11756,-0.197449,4.76227,1.278,19.7759,429,5,
11756,-0.2005,4.76837,1.278,19.7759,429,5,
11756,-0.200195,4.76532,1.278,19.7759,429,5,
11756.1,-0.199585,4.76837,1.278,19.7759,429,5,
11756.1,-0.202637,4.76685,1.278,19.7759,429,5,
11756.1,-0.205078,4.76685,1.278,19.7759,429,5,
11756.1,-0.204773,4.77295,1.278,19.7759,429,5,
11756.1,-0.204468,4.76685,1.278,19.7759,429,5,
11756.1,-0.209045,4.76685,1.278,19.7759,429,5,
11756.1,-0.210876,4.76685,1.278,19.7759,429,5,
11756.1,-0.209045,4.76532,1.278,19.7759,429,5,
11756.1,-0.209351,4.76837,1.278,19.7759,429,5,
11756.1,-0.214539,4.77142,1.278,19.7759,429,5,
11756.1,-0.214233,4.76685,1.278,19.7759,429,5,
11756.1,-0.214844,4.76532,1.278,19.7759,429,5,
11756.1,-0.214539,4.7699,1.278,19.7759,429,5,
11756.1,-0.219727,4.76227,1.278,19.7759,429,5,
11756.1,-0.219727,4.76685,1.278,19.7759,429,5,
11756.1,-0.219421,4.76837,1.278,19.7759,429,5,
11756.1,-0.219116,4.76837,1.278,19.7759,429,5,
11756.1,-0.223999,4.76837,1.278,19.7759,429,5,
11756.1,-0.224304,4.76685,1.278,19.7759,429,5,
11756.1,-0.224609,4.76532,1.278,19.7759,429,5,
11756.1,-0.224304,4.76837,1.278,19.7759,429,5,
11756.1,-0.230103,4.76685,1.278,19.7759,429,5,
11756.1,-0.228882,4.76532,1.278,19.7759,429,5,
11756.1,-0.229187,4.7699,1.278,19.7759,429,5,
11756.1,-0.230408,4.76837,1.278,19.7759,429,5,
11756.1,-0.234375,4.76837,1.278,19.7759,429,5,
11756.1,-0.234375,4.76532,1.278,19.7759,429,5,
11756.1,-0.234375,4.76685,1.278,19.7759,429,5,
11756.1,-0.234375,4.76837,1.278,19.7759,429,5,
11756.1,-0.239258,4.76685,1.278,19.7759,429,5,
11756.1,-0.238953,4.7699,1.278,19.7759,429,5,
11756.1,-0.239868,4.77142,1.278,19.7759,429,5,
11756.1,-0.239258,4.7699,1.278,19.7759,429,5,
11756.1,-0.243225,4.77142,1.278,19.7759,429,5,
11756.1,-0.244446,4.76685,1.278,19.7759,429,5,
11756.1,-0.244141,4.7699,1.278,19.7759,429,5,
11756.1,-0.243835,4.76837,1.278,19.7759,429,5,
11756.1,-0.248718,4.76685,1.278,19.7759,429,5,
11756.1,-0.248413,4.76837,1.278,19.7759,429,5,
11756.1,-0.249023,4.76532,1.278,19.7759,429,5,
11756.1,-0.249634,4.76837,1.278,19.7759,429,5,
11756.1,-0.25177,4.76532,1.278,19.7759,429,5,
11756.1,-0.253906,4.76837,1.278,19.7759,429,5,
11756.1,-0.254517,4.7699,1.278,19.7759,429,5,
11756.1,-0.253906,4.76685,1.278,19.7759,429,5,
11756.1,-0.254517,4.76837,1.278,19.7759,429,5,
11756.1,-0.259094,4.76685,1.278,19.7759,429,5,
11756.1,-0.259094,4.76837,1.278,19.7759,429,5,
11756.1,-0.259399,4.7699,1.278,19.7759,429,5,
11756.1,-0.258789,4.76837,1.278,19.7759,429,5,
11756.2,-0.263367,4.76227,1.278,19.7759,429,5,
11756.2,-0.263672,4.76685,1.278,19.7759,429,5,
11756.2,-0.263062,4.76837,1.278,19.7759,429,5,
11756.2,-0.264282,4.76532,1.278,19.7759,429,5,
11756.2,-0.264282,4.76379,1.278,19.7759,429,5,
11756.2,-0.267944,4.76685,1.278,19.7759,429,5,
11756.2,-0.268555,4.76685,1.278,19.7759,429,5,
11756.2,-0.26886,4.76532,1.278,19.7759,429,5,
11756.2,-0.268555,4.76837,1.278,19.7759,429,5,
11756.2,-0.272827,4.76685,1.278,19.7759,429,5,
11756.2,-0.273743,4.76379,1.278,19.7759,429,5,
11756.2,-0.273132,4.76532,1.278,19.7759,429,5,
11756.2,-0.273132,4.76685,1.278,19.7759,429,5,
11756.2,-0.274658,4.76685,1.278,19.7759,429,5,
11756.2,-0.27771,4.77295,1.278,19.7759,429,5,
11756.2,-0.278625,4.76532,1.278,19.7759,429,5,
11756.2,-0.278015,4.76685,1.278,19.7759,429,5,
11756.2,-0.278015,4.76532,1.278,19.7759,429,5,
11756.2,-0.278931,4.7699,1.278,19.7759,429,5,
11756.2,-0.282898,4.76837,1.278,19.7759,429,5,
11756.2,-0.283813,4.76532,1.278,19.7759,429,5,
11756.2,-0.283203,4.76837,1.278,19.7759,429,5,
11756.2,-0.282898,4.76532,1.278,19.7759,429,5,
11756.2,-0.28595,4.76685,1.278,19.7759,429,5,
11756.2,-0.288391,4.76837,1.278,19.7759,429,5,
11756.2,-0.288086,4.78058,1.278,19.7759,429,5,
11756.2,-0.287781,4.77753,1.278,19.7759,429,5,
11756.2,-0.288391,4.78058,1.278,19.7759,429,5,
11756.2,-0.290527,4.78058,1.278,19.7759,429,5,
11756.2,-0.293274,4.78058,1.278,19.7759,429,5,
11756.2,-0.292969,4.78211,1.278,19.7759,429,5,
11756.2,-0.293884,4.77753,1.278,19.7759,429,5,
11756.2,-0.293274,4.77905,1.278,19.7759,429,5,
11756.2,-0.295715,4.77905,1.278,19.7759,429,5,
11756.2,-0.298767,4.77905,1.278,19.7759,429,5,
11756.2,-0.298767,4.78058,1.278,19.7759,429,5,
11756.2,-0.298157,4.77905,1.278,19.7759,429,5,
11756.2,-0.298157,4.78058,1.278,19.7759,429,5,
11756.2,-0.300293,4.78058,1.278,19.7759,429,5,
11756.2,-0.302429,4.78211,1.278,19.7759,429,5,
11756.2,-0.302734,4.78211,1.278,19.7759,429,5,
11756.2,-0.30304,4.77753,1.278,19.7759,429,5,
11756.2,-0.30304,4.77753,1.278,19.7759,429,5,
11756.2,-0.304871,4.78211,1.278,19.7759,429,5,
11756.2,-0.307922,4.78211,1.278,19.7759,429,5,
11756.2,-0.308228,4.77753,1.278,19.7759,429,5,
11756.2,-0.308228,4.78211,1.278,19.7759,429,5,
11756.2,-0.307617,4.77905,1.278,19.7759,429,5,
11756.2,-0.307617,4.78211,1.278,19.7759,429,5,
11756.2,-0.313416,4.78211,1.278,19.7759,429,5,
11756.3,-0.3125,4.77905,1.278,19.7759,429,5,
11756.3,-0.3125,4.78211,1.278,19.7759,429,5,
11756.3,-0.3125,4.77905,1.278,19.7759,429,5,
11756.3,-0.312805,4.78363,1.278,19.7759,429,5,
11756.3,-0.317688,4.78058,1.278,19.7759,429,5,
11756.3,-0.317993,4.77905,1.278,19.7759,429,5,
11756.3,-0.317688,4.78211,1.278,19.7759,429,5,
11756.3,-0.317993,4.78058,1.278,19.7759,429,5,
11756.3,-0.317383,4.78211,1.278,19.7759,429,5,
11756.3,-0.321045,4.78058,1.278,19.7759,429,5,
11756.3,-0.322266,4.77905,1.278,19.7759,429,5,
11756.3,-0.323181,4.78058,1.278,19.7759,429,5,
11756.3,-0.322266,4.78211,1.278,19.7759,429,5,
11756.3,-0.322876,4.78363,1.278,19.7759,429,5,
11756.3,-0.322266,4.78058,1.278,19.7759,429,5,
11756.3,-0.327454,4.78058,1.278,19.7759,429,5,
11756.3,-0.327148,4.77905,1.278,19.7759,429,5,
11756.3,-0.327454,4.78058,1.278,19.7759,429,5,
11756.3,-0.327454,4.78058,1.278,19.7759,429,5,
11756.3,-0.326843,4.77905,1.278,19.7759,429,5,
11756.3,-0.331421,4.77753,1.278,19.7759,429,5,
11756.3,-0.332031,4.78058,1.278,19.7759,429,5,
11756.3,-0.332031,4.78058,1.278,19.7759,429,5,
11756.3,-0.331726,4.77905,1.278,19.7759,429,5,
11756.3,-0.332336,4.78058,1.278,19.7759,429,5,
11756.3,-0.332031,4.78058,1.278,19.7759,429,5,
11756.3,-0.336609,4.77905,1.278,19.7759,429,5,
11756.3,-0.336914,4.78363,1.278,19.7759,429,5,
11756.3,-0.337219,4.77753,1.278,19.7759,429,5,
11756.3,-0.33783,4.78058,1.278,19.7759,429,5,
11756.3,-0.336609,4.776,1.278,19.7759,429,5,
11756.3,-0.336609,4.77753,1.278,19.7759,429,5,
11756.3,-0.341797,4.77905,1.278,19.7759,429,5,
11756.3,-0.342407,4.77905,1.278,19.7759,429,5,
11756.3,-0.342407,4.78058,1.278,19.7759,429,5,
11756.3,-0.342407,4.78363,1.278,19.7759,429,5,
11756.3,-0.342407,4.77753,1.278,19.7759,429,5,
11756.3,-0.344543,4.78058,1.278,19.7759,429,5,
11756.3,-0.34668,4.78058,1.278,19.7759,429,5,
11756.3,-0.347595,4.78211,1.278,19.7759,429,5,
11756.3,-0.34729,4.78058,1.278,19.7759,429,5,
11756.3,-0.346985,4.77905,1.278,19.7759,429,5,
11756.3,-0.346985,4.78058,1.278,19.7759,429,5,
11756.3,-0.351562,4.78211,1.278,19.7759,429,5,
11756.3,-0.352173,4.78211,1.278,19.7759,429,5,
11756.3,-0.351562,4.77905,1.278,19.7759,429,5,
11756.3,-0.352478,4.77905,1.278,19.7759,429,5,
11756.3,-0.352173,4.78211,1.278,19.7759,429,5,
11756.3,-0.354919,4.77905,1.278,19.7759,429,5,
11756.4,-0.35675,4.78363,1.278,19.7759,429,5,
11756.4,-0.357361,4.78363,1.278,19.7759,429,5,
11756.4,-0.357056,4.78211,1.278,19.7759,429,5,
11756.4,-0.357361,4.77905,1.278,19.7759,429,5,
11756.4,-0.359802,4.77753,1.278,19.7759,429,5,
11756.4,-0.361328,4.78058,1.278,19.7759,429,5,
11756.4,-0.362244,4.78363,1.278,19.7759,429,5,
11756.4,-0.361938,4.77905,1.278,19.7759,429,5,
11756.4,-0.361633,4.77905,1.278,19.7759,429,5,
11756.4,-0.364685,4.78058,1.278,19.7759,429,5,
11756.4,-0.366821,4.78058,1.278,19.7759,429,5,
11756.4,-0.367432,4.77905,1.278,19.7759,429,5,
11756.4,-0.367432,4.78058,1.278,19.7759,429,5,
11756.4,-0.366211,4.77753,1.278,19.7759,429,5,
11756.4,-0.371704,4.78211,1.278,19.7759,429,5,
11756.4,-0.371704,4.77905,1.278,19.7759,429,5,
11756.4,-0.372009,4.78058,1.278,19.7759,429,5,
11756.4,-0.371704,4.78058,1.278,19.7759,429,5,
11756.4,-0.371704,4.77753,1.278,19.7759,429,5,
11756.4,-0.376892,4.78211,1.278,19.7759,429,5,
11756.4,-0.376892,4.776,1.278,19.7759,429,5,
11756.4,-0.376587,4.78211,1.278,19.7759,429,5,
11756.4,-0.376587,4.77905,1.278,19.7759,429,5,
11756.4,-0.379028,4.77905,1.278,19.7759,429,5,
11756.4,-0.381775,4.77753,1.278,19.7759,429,5,
11756.4,-0.38147,4.776,1.278,19.7759,429,5,
11756.4,-0.38147,4.77905,1.278,19.7759,429,5,
11756.4,-0.381775,4.78058,1.278,19.7759,429,5,
11756.4,-0.386047,4.77905,1.278,19.7759,429,5,
11756.4,-0.386353,4.77905,1.278,19.7759,429,5,
11756.4,-0.386047,4.77905,1.278,19.7759,429,5,
11756.4,-0.386353,4.77753,1.278,19.7759,429,5,
11756.4,-0.386658,4.78058,1.278,19.7759,429,5,
11756.4,-0.39032,4.776,1.278,19.7759,429,5,
11756.4,-0.391541,4.77753,1.278,19.7759,429,5,
11756.4,-0.391541,4.78058,1.278,19.7759,429,5,
11756.4,-0.390625,4.77905,1.278,19.7759,429,5,
11756.4,-0.391235,4.78058,1.278,19.7759,429,5,
11756.4,-0.395203,4.78058,1.278,19.7759,429,5,
11756.4,-0.396118,4.78211,1.278,19.7759,429,5,
11756.4,-0.395813,4.78363,1.278,19.7759,429,5,
11756.4,-0.396118,4.78058,1.278,19.7759,429,5,
11756.4,-0.396118,4.78058,1.278,19.7759,429,5,
11756.4,-0.401001,4.78363,1.278,19.7759,429,5,
11756.4,-0.401001,4.77753,1.278,19.7759,429,5,
11756.4,-0.401001,4.78058,1.278,19.7759,429,5,
11756.4,-0.401306,4.78058,1.278,19.7759,429,5,
11756.4,-0.400391,4.78058,1.278,19.7759,429,5,
11756.4,-0.404053,4.78211,1.278,19.7759,429,5,
11756.4,-0.405273,4.77905,1.278,19.7759,429,5,
11756.5,-0.405884,4.77753,1.278,19.7759,429,5,
11756.5,-0.406189,4.77753,1.278,19.7759,429,5,
11756.5,-0.405884,4.78058,1.278,19.7759,429,5,
11756.5,-0.406494,4.77753,1.278,19.7759,429,5,
11756.5,-0.411072,4.78058,1.278,19.7759,429,5,
11756.5,-0.410767,4.78058,1.278,19.7759,429,5,
11756.5,-0.410461,4.77905,1.278,19.7759,429,5,
11756.5,-0.410767,4.78058,1.278,19.7759,429,5,
11756.5,-0.410156,4.78363,1.278,19.7759,429,5,
11756.5,-0.413513,4.77753,1.278,19.7759,429,5,
11756.5,-0.416565,4.78363,1.278,19.7759,429,5,
11756.5,-0.415649,4.78058,1.278,19.7759,429,5,
11756.5,-0.414734,4.78058,1.278,19.7759,429,5,
11756.5,-0.415649,4.78211,1.278,19.7759,429,5,
11756.5,-0.415955,4.78363,1.278,19.7759,429,5,
11756.5,-0.419617,4.78058,1.278,19.7759,429,5,
11756.5,-0.420532,4.776,1.278,19.7759,429,5,
11756.5,-0.420532,4.78211,1.278,19.7759,429,5,
11756.5,-0.420227,4.78058,1.278,19.7759,429,5,
11756.5,-0.420532,4.78516,1.278,19.7759,429,5,
11756.5,-0.420837,4.78058,1.278,19.7759,429,5,
11756.5,-0.424805,4.77753,1.278,19.7759,429,5,
11756.5,-0.426025,4.78058,1.278,19.7759,429,5,
11756.5,-0.426331,4.78211,1.278,19.7759,429,5,
11756.5,-0.42572,4.78363,1.278,19.7759,429,5,
11756.5,-0.424805,4.77905,1.278,19.7759,429,5,
11756.5,-0.426331,4.78363,1.278,19.7759,429,5,
11756.5,-0.428162,4.78363,1.278,19.7759,429,5,
11756.5,-0.430908,4.77905,1.278,19.7759,429,5,
11756.5,-0.430603,4.78058,1.278,19.7759,429,5,
11756.5,-0.430298,4.776,1.278,19.7759,429,5,
11756.5,-0.429993,4.77905,1.278,19.7759,429,5,
11756.5,-0.430298,4.77905,1.278,19.7759,429,5,
11756.5,-0.431213,4.77905,1.278,19.7759,429,5,
11756.5,-0.435181,4.78058,1.278,19.7759,429,5,
11756.5,-0.435181,4.78058,1.278,19.7759,429,5,
11756.5,-0.434875,4.77905,1.278,19.7759,429,5,
11756.5,-0.435181,4.77753,1.278,19.7759,429,5,
11756.5,-0.435486,4.78211,1.278,19.7759,429,5,
11756.5,-0.434875,4.77905,1.278,19.7759,429,5,
11756.5,-0.439453,4.78516,1.278,19.7759,429,5,
11756.5,-0.440369,4.77753,1.278,19.7759,429,5,
11756.5,-0.439758,4.78058,1.278,19.7759,429,5,
11756.5,-0.440063,4.78058,1.278,19.7759,429,5,
11756.5,-0.440369,4.78058,1.278,19.7759,429,5,
11756.5,-0.439453,4.78058,1.278,19.7759,429,5,
11756.5,-0.439453,4.776,1.278,19.7759,429,5,
11756.5,-0.444641,4.77905,1.278,19.7759,429,5,
11756.5,-0.444946,4.78363,1.278,19.7759,429,5,
11756.5,-0.444946,4.77753,1.278,19.7759,429,5,
11756.5,-0.445557,4.776,1.278,19.7759,429,5,
11756.6,-0.445557,4.77905,1.278,19.7759,429,5,
11756.6,-0.445251,4.78058,1.278,19.7759,429,5,
11756.6,-0.444946,4.77753,1.278,19.7759,429,5,
11756.6,-0.450134,4.77905,1.278,19.7759,429,5,
11756.6,-0.449829,4.776,1.278,19.7759,429,5,
11756.6,-0.449829,4.77905,1.278,19.7759,429,5,
11756.6,-0.450134,4.77905,1.278,19.7759,429,5,
11756.6,-0.450745,4.78058,1.278,19.7759,429,5,
11756.6,-0.450134,4.77753,1.278,19.7759,429,5,
11756.6,-0.452271,4.78058,1.278,19.7759,429,5,
11756.6,-0.455017,4.78058,1.278,19.7759,429,5,
11756.6,-0.455017,4.776,1.278,19.7759,429,5,
11756.6,-0.454712,4.78058,1.278,19.7759,429,5,
11756.6,-0.455017,4.78363,1.278,19.7759,429,5,
11756.6,-0.454102,4.78211,1.278,19.7759,429,5,
11756.6,-0.455017,4.77905,1.278,19.7759,429,5,
11756.6,-0.458984,4.77905,1.278,19.7759,429,5,
11756.6,-0.460205,4.78058,1.278,19.7759,429,5,
11756.6,-0.4599,4.78058,1.278,19.7759,429,5,
11756.6,-0.459595,4.776,1.278,19.7759,429,5,
11756.6,-0.460205,4.77905,1.278,19.7759,429,5,
11756.6,-0.4599,4.77905,1.278,19.7759,429,5,
11756.6,-0.4599,4.78211,1.278,19.7759,429,5,
11756.6,-0.464478,4.78058,1.278,19.7759,429,5,
11756.6,-0.465088,4.78058,1.278,19.7759,429,5,
11756.6,-0.464478,4.78058,1.278,19.7759,429,5,
11756.6,-0.464783,4.77753,1.278,19.7759,429,5,
11756.6,-0.464478,4.77753,1.278,19.7759,429,5,
11756.6,-0.463867,4.77905,1.278,19.7759,429,5,
11756.6,-0.467224,4.78058,1.278,19.7759,429,5,
11756.6,-0.46936,4.78211,1.278,19.7759,429,5,
11756.6,-0.469666,4.77753,1.278,19.7759,429,5,
11756.6,-0.469666,4.77753,1.278,19.7759,429,5,
11756.6,-0.469971,4.78363,1.278,19.7759,429,5,
11756.6,-0.46936,4.77905,1.278,19.7759,429,5,
11756.6,-0.469666,4.77905,1.278,19.7759,429,5,
11756.6,-0.474548,4.78058,1.278,19.7759,429,5,
11756.6,-0.474854,4.78211,1.278,19.7759,429,5,
11756.6,-0.474548,4.77753,1.278,19.7759,429,5,
11756.6,-0.474854,4.78058,1.278,19.7759,429,5,
11756.6,-0.473938,4.78058,1.278,19.7759,429,5,
11756.6,-0.475159,4.776,1.278,19.7759,429,5,
11756.6,-0.474854,4.78058,1.278,19.7759,429,5,
11756.6,-0.479736,4.78058,1.278,19.7759,429,5,
11756.6,-0.479736,4.78211,1.278,19.7759,429,5,
11756.6,-0.479431,4.78516,1.278,19.7759,429,5,
11756.6,-0.479736,4.78058,1.278,19.7759,429,5,
11756.6,-0.479431,4.78058,1.278,19.7759,429,5,
11756.6,-0.479736,4.78058,1.278,19.7759,429,5,
11756.6,-0.479736,4.77753,1.278,19.7759,429,5,
11756.7,-0.484619,4.78211,1.278,19.7759,429,5,
11756.7,-0.484009,4.78058,1.278,19.7759,429,5,
11756.7,-0.484314,4.77905,1.278,19.7759,429,5,
11756.7,-0.484619,4.77753,1.278,19.7759,429,5,
11756.7,-0.484009,4.77905,1.278,19.7759,429,5,
11756.7,-0.484314,4.78211,1.278,19.7759,429,5,
11756.7,-0.486755,4.78211,1.278,19.7759,429,5,
11756.7,-0.489197,4.77905,1.278,19.7759,429,5,
11756.7,-0.488892,4.77753,1.278,19.7759,429,5,
11756.7,-0.489197,4.77753,1.278,19.7759,429,5,
11756.7,-0.490112,4.78058,1.278,19.7759,429,5,
11756.7,-0.488586,4.77905,1.278,19.7759,429,5,
11756.7,-0.489502,4.78058,1.278,19.7759,429,5,
11756.7,-0.493469,4.77905,1.278,19.7759,429,5,
11756.7,-0.49408,4.78058,1.278,19.7759,429,5,
11756.7,-0.493774,4.77753,1.278,19.7759,429,5,
11756.7,-0.494385,4.776,1.278,19.7759,429,5,
11756.7,-0.49469,4.776,1.278,19.7759,429,5,
11756.7,-0.49408,4.77753,1.278,19.7759,429,5,
11756.7,-0.493774,4.78058,1.278,19.7759,429,5,
11756.7,-0.499268,4.78058,1.278,19.7759,429,5,
11756.7,-0.499573,4.78211,1.278,19.7759,429,5,
11756.7,-0.498962,4.77905,1.278,19.7759,429,5,
11756.7,-0.499268,4.77905,1.278,19.7759,429,5,
11756.7,-0.499878,4.77905,1.278,19.7759,429,5,
11756.7,-0.499573,4.78363,1.278,19.7759,429,5,
11756.7,-0.50354,4.78058,1.278,19.7759,429,5,
11756.7,-0.504456,4.78058,1.278,19.7759,429,5,
11756.7,-0.50354,4.78058,1.278,19.7759,429,5,
11756.7,-0.50415,4.78058,1.278,19.7759,429,5,
11756.7,-0.50354,4.77905,1.278,19.7759,429,5,
11756.7,-0.504456,4.78058,1.278,19.7759,429,5,
11756.7,-0.505981,4.77753,1.278,19.7759,429,5,
11756.7,-0.508728,4.78211,1.278,19.7759,429,5,
11756.7,-0.508423,4.78211,1.278,19.7759,429,5,
11756.7,-0.508728,4.77753,1.278,19.7759,429,5,
11756.7,-0.509033,4.78058,1.278,19.7759,429,5,
11756.7,-0.509033,4.776,1.278,19.7759,429,5,
11756.7,-0.512695,4.78058,1.278,19.7759,429,5,
11756.7,-0.514526,4.77905,1.278,19.7759,429,5,
11756.7,-0.513611,4.77905,1.278,19.7759,429,5,
11756.7,-0.513916,4.77905,1.278,19.7759,429,5,
11756.7,-0.513611,4.78058,1.278,19.7759,429,5,
11756.7,-0.513916,4.77753,1.278,19.7759,429,5,
11756.7,-0.518494,4.77905,1.278,19.7759,429,5,
11756.7,-0.518494,4.78058,1.278,19.7759,429,5,
11756.7,-0.519104,4.78211,1.278,19.7759,429,5,
11756.7,-0.519104,4.77905,1.278,19.7759,429,5,
11756.7,-0.518799,4.78058,1.278,19.7759,429,5,
11756.8,-0.52124,4.78211,1.278,19.7759,429,5,
11756.8,-0.523987,4.78058,1.278,19.7759,429,5,
11756.8,-0.523376,4.77753,1.278,19.7759,429,5,
11756.8,-0.523376,4.77905,1.278,19.7759,429,5,
11756.8,-0.523376,4.77753,1.278,19.7759,429,5,
11756.8,-0.523376,4.78058,1.278,19.7759,429,5,
11756.8,-0.528259,4.78058,1.278,19.7759,429,5,
11756.8,-0.528259,4.77753,1.278,19.7759,429,5,
11756.8,-0.52887,4.776,1.278,19.7759,429,5,
11756.8,-0.52887,4.77753,1.278,19.7759,429,5,
11756.8,-0.52887,4.77905,1.278,19.7759,429,5,
11756.8,-0.533752,4.78211,1.278,19.7759,429,5,
11756.8,-0.533447,4.77905,1.278,19.7759,429,5,
11756.8,-0.533752,4.77905,1.278,19.7759,429,5,
11756.8,-0.533447,4.78058,1.278,19.7759,429,5,
11756.8,-0.533142,4.78211,1.278,19.7759,429,5,
11756.8,-0.537415,4.78363,1.278,19.7759,429,5,
11756.8,-0.53894,4.78058,1.278,19.7759,429,5,
11756.8,-0.53894,4.77753,1.278,19.7759,429,5,
11756.8,-0.538635,4.78058,1.278,19.7759,429,5,
11756.8,-0.53833,4.77905,1.278,19.7759,429,5,
11756.8,-0.542603,4.78058,1.278,19.7759,429,5,
11756.8,-0.543213,4.77905,1.278,19.7759,429,5,
11756.8,-0.543518,4.77753,1.278,19.7759,429,5,
11756.8,-0.543518,4.77905,1.278,19.7759,429,5,
11756.8,-0.542908,4.78058,1.278,19.7759,429,5,
11756.8,-0.545349,4.78363,1.278,19.7759,429,5,
11756.8,-0.548401,4.78211,1.278,19.7759,429,5,
11756.8,-0.548401,4.77753,1.278,19.7759,429,5,
11756.8,-0.548096,4.77905,1.278,19.7759,429,5,
11756.8,-0.548096,4.78058,1.278,19.7759,429,5,
11756.8,-0.548706,4.78211,1.278,19.7759,429,5,
11756.8,-0.553284,4.77905,1.278,19.7759,429,5,
11756.8,-0.552979,4.77905,1.278,19.7759,429,5,
11756.8,-0.553589,4.78058,1.278,19.7759,429,5,
11756.8,-0.552979,4.77905,1.278,19.7759,429,5,
11756.8,-0.553284,4.78058,1.278,19.7759,429,5,
11756.8,-0.557861,4.78058,1.278,19.7759,429,5,
11756.8,-0.558167,4.77753,1.278,19.7759,429,5,
11756.8,-0.557556,4.78058,1.278,19.7759,429,5,
11756.8,-0.557861,4.78058,1.278,19.7759,429,5,
11756.8,-0.557861,4.776,1.278,19.7759,429,5,
11756.8,-0.562134,4.77905,1.278,19.7759,429,5,
11756.8,-0.562744,4.78363,1.278,19.7759,429,5,
11756.8,-0.562439,4.78211,1.278,19.7759,429,5,
11756.8,-0.563354,4.77905,1.278,19.7759,429,5,
11756.8,-0.562744,4.77753,1.278,19.7759,429,5,
11756.8,-0.562134,4.78058,1.278,19.7759,429,5,
11756.8,-0.567932,4.77905,1.278,19.7759,429,5,
11756.8,-0.567932,4.77753,1.278,19.7759,429,5,
11756.9,-0.567322,4.78058,1.278,19.7759,429,5,
11756.9,-0.567627,4.78211,1.278,19.7759,429,5,
11756.9,-0.567627,4.77905,1.278,19.7759,429,5,
11756.9,-0.571594,4.77753,1.278,19.7759,429,5,
11756.9,-0.572815,4.776,1.278,19.7759,429,5,
11756.9,-0.572815,4.77753,1.278,19.7759,429,5,
11756.9,-0.572815,4.78363,1.278,19.7759,429,5,
11756.9,-0.572815,4.78058,1.278,19.7759,429,5,
11756.9,-0.572205,4.77905,1.278,19.7759,429,5,
11756.9,-0.577698,4.78058,1.278,19.7759,429,5,
11756.9,-0.577393,4.77905,1.278,19.7759,429,5,
11756.9,-0.577087,4.78058,1.278,19.7759,429,5,
11756.9,-0.577698,4.78058,1.278,19.7759,429,5,
11756.9,-0.578003,4.78211,1.278,19.7759,429,5,
11756.9,-0.577393,4.78211,1.278,19.7759,429,5,
11756.9,-0.581665,4.78363,1.278,19.7759,429,5,
11756.9,-0.582275,4.77753,1.278,19.7759,429,5,
11756.9,-0.582275,4.77905,1.278,19.7759,429,5,
11756.9,-0.582581,4.77905,1.278,19.7759,429,5,
11756.9,-0.582275,4.77905,1.278,19.7759,429,5,
11756.9,-0.582581,4.78211,1.278,19.7759,429,5,
11756.9,-0.587158,4.78058,1.278,19.7759,429,5,
11756.9,-0.587158,4.77753,1.278,19.7759,429,5,
11756.9,-0.587463,4.78058,1.278,19.7759,429,5,
11756.9,-0.587463,4.78211,1.278,19.7759,429,5,
11756.9,-0.587158,4.78058,1.278,19.7759,429,5,
11756.9,-0.587158,4.78058,1.278,19.7759,429,5,
11756.9,-0.591736,4.776,1.278,19.7759,429,5,
11756.9,-0.592651,4.78363,1.278,19.7759,429,5,
11756.9,-0.592346,4.78058,1.278,19.7759,429,5,
11756.9,-0.592346,4.77905,1.278,19.7759,429,5,
11756.9,-0.592041,4.78058,1.278,19.7759,429,5,
11756.9,-0.592651,4.77753,1.278,19.7759,429,5,
11756.9,-0.596619,4.77905,1.278,19.7759,429,5,
11756.9,-0.596619,4.77753,1.278,19.7759,429,5,
11756.9,-0.597229,4.78363,1.278,19.7759,429,5,
11756.9,-0.597229,4.78058,1.278,19.7759,429,5,
11756.9,-0.596619,4.78211,1.278,19.7759,429,5,
11756.9,-0.596924,4.77753,1.278,19.7759,429,5,
11756.9,-0.597534,4.78058,1.278,19.7759,429,5,
11756.9,-0.601807,4.77905,1.278,19.7759,429,5,
11756.9,-0.602112,4.78211,1.278,19.7759,429,5,
11756.9,-0.602417,4.78058,1.278,19.7759,429,5,
11756.9,-0.601501,4.77905,1.278,19.7759,429,5,
11756.9,-0.601807,4.78211,1.278,19.7759,429,5,
11756.9,-0.602112,4.77905,1.278,19.7759,429,5,
11756.9,-0.601196,4.77905,1.278,19.7759,429,5,
11756.9,-0.606384,4.77905,1.278,19.7759,429,5,
11756.9,-0.606689,4.78058,1.278,19.7759,429,5,
11756.9,-0.606384,4.78058,1.278,19.7759,429,5,
11757,-0.606995,4.78363,1.278,19.7759,429,5,
11757,-0.607605,4.78058,1.278,19.7759,429,5,
11757,-0.606995,4.78058,1.278,19.7759,429,5,
11757,-0.606689,4.77448,1.278,19.7759,429,0,
11757,-0.609436,4.77905,1.278,19.7759,429,5,
11757,-0.612183,4.77753,1.278,19.7759,429,5,
11757,-0.612183,4.78363,1.278,19.7759,429,5,
11757,-0.612183,4.78058,1.278,19.7759,429,5,
11757,-0.612183,4.78058,1.278,19.7759,429,5,
11757,-0.611572,4.77753,1.278,19.7759,429,5,
11757,-0.611877,4.78058,1.278,19.7759,429,5,
11757,-0.611877,4.77753,1.278,19.7759,429,5,
11757,-0.616455,4.78058,1.278,19.7759,429,5,
11757,-0.61676,4.78058,1.278,19.7759,429,5,
11757,-0.617065,4.78211,1.278,19.7759,429,5,
11757,-0.61676,4.78211,1.278,19.7759,429,5,
11757,-0.61676,4.77753,1.278,19.7759,429,5,
11757,-0.616455,4.77905,1.278,19.7759,429,5,
11757,-0.617065,4.78058,1.278,19.7759,429,5,
11757,-0.61676,4.77905,1.278,19.7759,429,5,
11757,-0.61676,4.78058,1.278,19.7759,429,5,
11757,-0.621643,4.78058,1.278,19.7759,429,5,
11757,-0.621643,4.78058,1.278,19.7759,429,5,
11757,-0.621643,4.78058,1.278,19.7759,429,5,
11757,-0.621948,4.78058,1.278,19.7759,429,5,
11757,-0.621643,4.77753,1.278,19.7759,429,5,
11757,-0.621338,4.77753,1.278,19.7759,429,5,
11757,-0.621643,4.77905,1.278,19.7759,429,5,
11757,-0.621338,4.77905,1.278,19.7759,429,5,
11757,-0.621643,4.77905,1.278,19.7759,429,5,
11757,-0.626526,4.77905,1.278,19.7759,429,5,
11757,-0.626526,4.78516,1.278,19.7759,429,5,
11757,-0.626221,4.776,1.278,19.7759,429,5,
11757,-0.626526,4.78058,1.278,19.7759,429,5,
11757,-0.625916,4.78058,1.278,19.7759,429,5,
11757,-0.625916,4.77753,1.278,19.7759,429,5,
11757,-0.626221,4.78058,1.278,19.7759,429,5,
11757,-0.625916,4.77905,1.278,19.7759,429,5,
11757,-0.626526,4.77905,1.278,19.7759,429,5,
11757,-0.628662,4.77753,1.278,19.7759,429,5,
11757,-0.631104,4.78058,1.278,19.7759,429,5,
11757,-0.631714,4.77753,1.278,19.7759,429,5,
11757,-0.632019,4.78058,1.278,19.7759,429,5,
11757,-0.630493,4.77905,1.278,19.7759,429,5,
11757,-0.630798,4.78058,1.278,19.7759,429,5,
11757,-0.630798,4.77905,1.278,19.7759,429,5,
11757,-0.631409,4.77905,1.278,19.7759,429,5,
11757,-0.631104,4.77753,1.278,19.7759,429,5,
11757,-0.631104,4.77753,1.278,19.7759,429,5,
11757,-0.631104,4.78058,1.278,19.7759,429,5,
11757,-0.633545,4.77753,1.278,19.7759,429,5,
11757.1,-0.636902,4.78211,1.278,19.7759,429,5,
11757.1,-0.635986,4.77448,1.278,19.7759,429,0,
11757.1,-0.636597,4.77905,1.278,19.7759,429,5,
11757.1,-0.635986,4.77905,1.278,19.7759,429,5,
11757.1,-0.636292,4.776,1.278,19.7759,429,5,
11757.1,-0.636292,4.77753,1.278,19.7759,429,5,
11757.1,-0.636292,4.77753,1.278,19.7759,429,5,
11757.1,-0.636597,4.78058,1.278,19.7759,429,5,
11757.1,-0.636292,4.77905,1.278,19.7759,429,5,
11757.1,-0.635986,4.77905,1.278,19.7759,429,5,
11757.1,-0.636292,4.78211,1.278,19.7759,429,5,
11757.1,-0.636292,4.78058,1.278,19.7759,429,5,
11757.1,-0.641785,4.78211,1.278,19.7759,429,5,
11757.1,-0.641174,4.78211,1.278,19.7759,429,5,
11757.1,-0.641479,4.77753,1.278,19.7759,429,5,
11757.1,-0.641785,4.77753,1.278,19.7759,429,5,
11757.1,-0.642395,4.77905,1.278,19.7759,429,5,
11757.1,-0.640869,4.78516,1.278,19.7759,429,5,
11757.1,-0.641174,4.78058,1.278,19.7759,429,5,
11757.1,-0.641479,4.78058,1.278,19.7759,429,5,
11757.1,-0.640869,4.77753,1.278,19.7759,429,5,
11757.1,-0.640869,4.77753,1.278,19.7759,429,5,
11757.1,-0.640564,4.77905,1.278,19.7759,429,5,
11757.1,-0.641174,4.77905,1.278,19.7759,429,5,
11757.1,-0.640869,4.78058,1.278,19.7759,429,5,
11757.1,-0.640869,4.78058,1.278,19.7759,429,5,
11757.1,-0.643616,4.78058,1.278,19.7759,429,5,
11757.1,-0.646362,4.78211,1.278,19.7759,429,5,
11757.1,-0.646362,4.77905,1.278,19.7759,429,5,
11757.1,-0.646362,4.78058,1.278,19.7759,429,5,
11757.1,-0.646667,4.78211,1.278,19.7759,429,5,
11757.1,-0.646057,4.78058,1.278,19.7759,429,5,
11757.1,-0.646667,4.78211,1.278,19.7759,429,5,
11757.1,-0.645752,4.78363,1.278,19.7759,429,5,
11757.1,-0.646057,4.77753,1.278,19.7759,429,5,
11757.1,-0.646057,4.78211,1.278,19.7759,429,5,
11757.1,-0.646667,4.78058,1.278,19.7759,429,5,
11757.1,-0.645752,4.78211,1.278,19.7759,429,5,
11757.1,-0.645752,4.78211,1.278,19.7759,429,5,
11757.1,-0.645752,4.77753,1.278,19.7759,429,5,
11757.1,-0.645447,4.78058,1.278,19.7759,429,5,
11757.1,-0.646362,4.77905,1.278,19.7759,429,5,
11757.1,-0.646057,4.77905,1.278,19.7759,429,5,
11757.1,-0.645447,4.78058,1.278,19.7759,429,5,
11757.1,-0.645752,4.78058,1.278,19.7759,429,5,
11757.1,-0.65033,4.78363,1.278,19.7759,429,5,
11757.1,-0.65033,4.77905,1.278,19.7759,429,5,
11757.1,-0.650024,4.78058,1.278,19.7759,429,5,
11757.1,-0.650635,4.78058,1.278,19.7759,429,5,
11757.1,-0.650635,4.78363,1.278,19.7759,429,0,
11757.2,-0.65033,4.78058,1.278,19.7759,429,0,
11757.2,-0.65094,4.78058,1.278,19.7759,429,0,
11757.2,-0.65094,4.78363,1.278,19.7759,429,0,
11757.2,-0.65033,4.78363,1.278,19.7759,429,0,
11757.2,-0.650635,4.776,1.278,19.7759,429,0,
11757.2,-0.65155,4.78516,1.278,19.7759,429,0,
11757.2,-0.65094,4.78211,1.278,19.7759,429,0,
11757.2,-0.651245,4.78058,1.278,19.7759,429,0,
11757.2,-0.65155,4.77905,1.278,19.7759,429,0,
11757.2,-0.65155,4.77753,1.278,19.7759,429,0,
11757.2,-0.651245,4.78058,1.278,19.7759,429,0,
11757.2,-0.65033,4.78058,1.278,19.7759,429,0,
11757.2,-0.650635,4.78211,1.278,19.7759,429,0,
11757.2,-0.65155,4.78058,1.278,19.7759,429,0,
11757.2,-0.651855,4.78211,1.278,19.7759,429,0,
11757.2,-0.651245,4.78058,1.278,19.7759,429,0,
11757.2,-0.65033,4.78363,1.278,19.7759,429,0,
11757.2,-0.65155,4.77753,1.278,19.7759,429,0,
11757.2,-0.65094,4.78058,1.278,19.7759,429,0,
11757.2,-0.650635,4.78058,1.278,19.7759,429,0,
11757.2,-0.65094,4.78058,1.278,19.7759,429,0,
11757.2,-0.65155,4.77905,1.278,19.7759,429,0,
11757.2,-0.650635,4.78211,1.278,19.7759,429,0,
11757.2,-0.65094,4.78058,1.278,19.7759,429,0,
11757.2,-0.651245,4.78211,1.278,19.7759,429,0,
11757.2,-0.65094,4.78211,1.278,19.7759,429,0,
11757.2,-0.651245,4.78211,1.278,19.7759,429,0,
11757.2,-0.650635,4.776,1.278,19.7759,429,0,
11757.2,-0.65094,4.77753,1.278,19.7759,429,0,
11757.2,-0.651245,4.78211,1.278,19.7759,429,0,
11757.2,-0.65094,4.77905,1.278,19.7759,429,0,
11757.2,-0.65094,4.77753,1.278,19.7759,429,0,
11757.2,-0.65094,4.78058,1.278,19.7759,429,0,
11757.2,-0.65094,4.78058,1.278,19.7759,429,0,
11757.2,-0.651245,4.78211,1.278,19.7759,429,0,
11757.2,-0.65094,4.77905,1.278,19.7759,429,0,
11757.2,-0.650635,4.77905,1.278,19.7759,429,0,
11757.2,-0.65094,4.77753,1.278,19.7759,429,0,
11757.2,-0.651245,4.77905,1.278,19.7759,429,0,
11757.2,-0.65155,4.77905,1.278,19.7759,429,0,
11757.2,-0.650635,4.78058,1.278,19.7759,429,0,
11757.2,-0.65094,4.77753,1.278,19.7759,429,0,
11757.2,-0.65094,4.78516,1.278,19.7759,429,0,
11757.2,-0.650635,4.77753,1.278,19.7759,429,0,
11757.2,-0.650635,4.78058,1.278,19.7759,429,0,
11757.2,-0.650635,4.77905,1.278,19.7759,429,0,
11757.2,-0.65094,4.78058,1.278,19.7759,429,0,
11757.2,-0.650635,4.77753,1.278,19.7759,429,0,
11757.2,-0.651855,4.78058,1.278,19.7759,429,0,
11757.2,-0.650635,4.78211,1.278,19.7759,429,0,
11757.3,-0.65094,4.77905,1.278,19.7759,429,0,
11757.3,-0.650635,4.77753,1.278,19.7759,429,0,
11757.3,-0.651245,4.78058,1.278,19.7759,429,0,
11757.3,-0.65094,4.77905,1.278,19.7759,429,0,
11757.3,-0.651245,4.78058,1.278,19.7759,429,0,
11757.3,-0.650635,4.78058,1.278,19.7759,429,0,
11757.3,-0.651245,4.77905,1.278,19.7759,429,0,
11757.3,-0.650635,4.77905,1.278,19.7759,429,0,
11757.3,-0.651245,4.77905,1.278,19.7759,429,0,
11757.3,-0.646362,4.77905,1.278,19.7759,429,0,
11757.3,-0.646362,4.78211,1.278,19.7759,429,0,
11757.3,-0.646057,4.78058,1.278,19.7759,429,0,
11757.3,-0.646362,4.77753,1.278,19.7759,429,0,
11757.3,-0.646057,4.77753,1.278,19.7759,429,0,
11757.3,-0.645752,4.77905,1.278,19.7759,429,0,
11757.3,-0.646057,4.77905,1.278,19.7759,429,0,
11757.3,-0.646667,4.776,1.278,19.7759,429,0,
11757.3,-0.646057,4.77905,1.278,19.7759,429,0,
11757.3,-0.646362,4.78211,1.278,19.7759,429,0,
11757.3,-0.646362,4.78516,1.278,19.7759,429,0,
11757.3,-0.646057,4.78211,1.278,19.7759,429,0,
11757.3,-0.645752,4.78058,1.278,19.7759,429,0,
11757.3,-0.646057,4.78211,1.278,19.7759,429,0,
11757.3,-0.646057,4.78058,1.278,19.7759,429,0,
11757.3,-0.646057,4.78058,1.278,19.7759,429,0,
11757.3,-0.646057,4.78211,1.278,19.7759,429,0,
11757.3,-0.646057,4.77905,1.278,19.7759,429,0,
11757.3,-0.646362,4.77905,1.278,19.7759,429,0,
11757.3,-0.646362,4.77905,1.278,19.7759,429,0,
11757.3,-0.641174,4.78211,1.278,19.7759,429,0,
11757.3,-0.641174,4.78058,1.278,19.7759,429,0,
11757.3,-0.640564,4.78058,1.278,19.7759,429,0,
11757.3,-0.641174,4.77905,1.278,19.7759,429,0,
11757.3,-0.641479,4.78058,1.278,19.7759,429,0,
11757.3,-0.640869,4.776,1.278,19.7759,429,0,
11757.3,-0.641174,4.77905,1.278,19.7759,429,0,
11757.3,-0.640564,4.77905,0,19.7759,429,0,
11757.3,-0.640259,4.78058,0,19.7759,429,0,
11757.3,-0.641785,4.77905,0,19.7759,429,0,
11757.3,-0.640869,4.78211,0,19.7759,429,0,
11757.3,-0.641479,4.77753,0,19.7759,429,0,
11757.3,-0.641174,4.77905,0,19.7759,429,0,
11757.3,-0.641174,4.78058,0,19.7759,429,0,
11757.3,-0.641174,4.78211,0,19.7759,429,0,
11757.3,-0.641174,4.77753,0,19.7759,429,0,
11757.3,-0.641174,4.77905,0,19.7759,429,0,
11757.3,-0.641174,4.78211,0,19.7759,429,0,
11757.3,-0.641785,4.78058,0,19.7759,429,0,
11757.3,-0.641174,4.77905,0,19.7759,429,0,
11757.4,-0.641174,4.77905,0,19.7759,429,0,
11757.4,-0.640869,4.77905,0,19.7759,429,0,
11757.4,-0.640869,4.77905,0,19.7759,429,0,
11757.4,-0.641174,4.77753,0,19.7759,429,0,
11757.4,-0.641174,4.77753,0,19.7759,429,0,
11757.4,-0.635986,4.77905,0,19.7759,429,0,
11757.4,-0.635986,4.78058,0,19.7759,429,0,
11757.4,-0.635681,4.77905,0,19.7759,429,0,
11757.4,-0.636597,4.78211,0,19.7759,429,0,
11757.4,-0.635986,4.78058,0,19.7759,429,0,
11757.4,-0.636292,4.77905,0,19.7759,429,0,
11757.4,-0.635986,4.78516,0,19.7759,429,0,
11757.4,-0.636597,4.77905,0,19.7759,429,0,
11757.4,-0.636292,4.78211,0,19.7759,429,0,
11757.4,-0.636292,4.78363,0,19.7759,429,0,
11757.4,-0.636292,4.78211,0,19.7759,429,0,
11757.4,-0.636902,4.77905,0,19.7759,429,0,
11757.4,-0.635986,4.78058,0,19.7759,429,0,
11757.4,-0.636597,4.78211,0,19.7759,429,0,
11757.4,-0.635986,4.78211,0,19.7759,429,0,
11757.4,-0.635986,4.77753,0,19.7759,429,0,
11757.4,-0.635986,4.77905,0,19.7759,429,0,
11757.4,-0.635986,4.77905,0,19.7759,429,0,
11757.4,-0.635681,4.78058,0,19.7759,429,0,
11757.4,-0.636292,4.78363,0,19.7759,429,0,
11757.4,-0.635986,4.776,0,19.7759,429,0,
11757.4,-0.636292,4.77905,0,19.7759,429,0,
11757.4,-0.636292,4.77753,0,19.7759,429,0,
11757.4,-0.636292,4.78058,0,19.7759,429,0,
11757.4,-0.635986,4.78211,0,19.7759,429,0,
11757.4,-0.636597,4.77905,0,19.7759,429,0,
11757.4,-0.635986,4.77753,0,19.7759,429,0,
11757.4,-0.636292,4.78211,0,19.7759,429,0,
11757.4,-0.636292,4.78058,0,19.7759,429,0,
11757.4,-0.635681,4.78211,0,19.7759,429,0,
11757.4,-0.636292,4.77448,0,19.7759,429,0,
11757.4,-0.636597,4.77905,0,19.7759,429,0,
11757.4,-0.635681,4.78211,0,19.7759,429,0,
11757.4,-0.635681,4.776,0,19.7759,429,0,
11757.4,-0.636292,4.776,0,19.7759,429,0,
11757.4,-0.631409,4.77753,0,19.7759,429,0,
11757.4,-0.631714,4.78058,0,19.7759,429,0,
11757.4,-0.630493,4.78058,0,19.7759,429,0,
11757.4,-0.631714,4.77905,0,19.7759,429,0,
11757.4,-0.632019,4.78058,0,19.7759,429,0,
11757.4,-0.631409,4.78211,0,19.7759,429,0,
11757.4,-0.631714,4.78058,0,19.7759,429,0,
11757.4,-0.631104,4.78058,0,19.7759,429,0,
11757.4,-0.631409,4.78058,0,19.7759,429,0,
11757.4,-0.631714,4.78058,0,19.7759,429,0,
11757.5,-0.630798,4.78058,0,19.7759,429,0,
11757.5,-0.632019,4.77905,0,19.7759,429,0,
11757.5,-0.631104,4.77905,0,19.7759,429,0,
11757.5,-0.631104,4.78058,0,19.7759,429,0,
11757.5,-0.631409,4.77753,0,19.7759,429,0,
11757.5,-0.631714,4.776,0,19.7759,429,0,
11757.5,-0.630798,4.78516,0,19.7759,429,0,
11757.5,-0.631104,4.78058,0,19.7759,429,0,
11757.5,-0.631714,4.77905,0,19.7759,429,0,
11757.5,-0.631104,4.77753,0,19.7759,429,0,
11757.5,-0.630798,4.78058,0,19.7759,429,0,
11757.5,-0.631409,4.77753,0,19.7759,429,0,
11757.5,-0.631104,4.78211,0,19.7759,429,0,
11757.5,-0.630798,4.77905,0,19.7759,429,0,
11757.5,-0.631714,4.776,0,19.7759,429,0,
11757.5,-0.631104,4.78211,0,19.7759,429,0,
11757.5,-0.631104,4.78211,0,19.7759,429,0,
11757.5,-0.631104,4.77905,0,19.7759,429,0,
11757.5,-0.631409,4.78211,0,19.7759,429,0,
11757.5,-0.631409,4.77905,0,19.7759,429,0,
11757.5,-0.632019,4.77905,0,19.7759,429,0,
11757.5,-0.626831,4.78058,0,19.7759,429,0,
11757.5,-0.626526,4.78058,0,19.7759,429,0,
11757.5,-0.625916,4.77753,0,19.7759,429,0,
11757.5,-0.627136,4.78058,0,19.7759,429,0,
11757.5,-0.626831,4.77905,0,19.7759,429,0,
11757.5,-0.626221,4.77905,0,19.7759,429,0,
11757.5,-0.626221,4.78058,0,19.7759,429,0,
11757.5,-0.626221,4.78363,0,19.7759,429,0,
11757.5,-0.627441,4.78211,0,19.7759,429,0,
11757.5,-0.626831,4.77905,0,19.7759,429,0,
11757.5,-0.626526,4.78058,0,19.7759,429,0,
11757.5,-0.626526,4.77905,0,19.7759,429,0,
11757.5,-0.626221,4.78058,0,19.7759,429,0,
11757.5,-0.626221,4.78058,0,19.7759,429,0,
11757.5,-0.626526,4.78363,0,19.7759,429,0,
11757.5,-0.626831,4.78363,0,19.7759,429,0,
11757.5,-0.626221,4.77753,0,19.7759,429,0,
11757.5,-0.62561,4.78211,0,19.7759,429,0,
11757.5,-0.626526,4.77753,0,19.7759,429,0,
11757.5,-0.622253,4.78211,0,19.7759,429,0,
11757.5,-0.621643,4.77905,0,19.7759,429,0,
11757.5,-0.621948,4.78211,0,19.7759,429,0,
11757.5,-0.621643,4.78363,0,19.7759,429,0,
11757.5,-0.621338,4.78058,0,19.7759,429,0,
11757.5,-0.621948,4.77753,0,19.7759,429,0,
11757.5,-0.621948,4.78211,0,19.7759,429,0,
11757.5,-0.621338,4.77753,0,19.7759,429,0,
11757.5,-0.621643,4.77753,0,19.7759,429,0,
11757.5,-0.621338,4.77905,0,19.7759,429,0,
11757.5,-0.621338,4.77753,0,19.7759,429,0,
11757.6,-0.622253,4.78058,0,19.7759,429,0,
11757.6,-0.621948,4.77753,0,19.7759,429,0,
11757.6,-0.621948,4.77905,0,19.7759,429,0,
11757.6,-0.621948,4.78058,0,19.7759,429,0,
11757.6,-0.61676,4.78363,0,19.7759,429,0,
11757.6,-0.61676,4.78211,0,19.7759,429,0,
11757.6,-0.61676,4.77753,0,19.7759,429,0,
11757.6,-0.61676,4.78211,0,19.7759,429,0,
11757.6,-0.616455,4.78058,0,19.7759,429,0,
11757.6,-0.61676,4.78211,0,19.7759,429,0,
11757.6,-0.617065,4.77753,0,19.7759,429,0,
11757.6,-0.617371,4.77905,0,19.7759,429,0,
11757.6,-0.61676,4.77753,0,19.7759,429,0,
11757.6,-0.616455,4.77905,0,19.7759,429,0,
11757.6,-0.617371,4.776,0,19.7759,429,0,
11757.6,-0.616455,4.78058,0,19.7759,429,0,
11757.6,-0.612488,4.78211,0,19.7759,429,0,
11757.6,-0.611877,4.78058,0,19.7759,429,0,
11757.6,-0.612183,4.77905,0,19.7759,429,0,
11757.6,-0.612183,4.77753,0,19.7759,429,0,
11757.6,-0.611877,4.77905,0,19.7759,429,0,
11757.6,-0.611877,4.78058,0,19.7759,429,0,
11757.6,-0.612183,4.77753,0,19.7759,429,0,
11757.6,-0.612183,4.77753,0,19.7759,429,0,
11757.6,-0.611267,4.78058,0,19.7759,429,0,
11757.6,-0.611572,4.77753,0,19.7759,429,0,
11757.6,-0.606689,4.78058,0,19.7759,429,0,
11757.6,-0.606384,4.78211,0,19.7759,429,0,
11757.6,-0.6073,4.78058,0,19.7759,429,0,
11757.6,-0.606079,4.78058,0,19.7759,429,0,
11757.6,-0.6073,4.78211,0,19.7759,429,0,
11757.6,-0.606995,4.78058,0,19.7759,429,0,
11757.6,-0.606384,4.78058,0,19.7759,429,0,
11757.6,-0.606689,4.77753,0,19.7759,429,0,
11757.6,-0.607605,4.78058,0,19.7759,429,0,
11757.6,-0.602722,4.78058,0,19.7759,429,0,
11757.6,-0.601807,4.77905,0,19.7759,429,0,
11757.6,-0.601807,4.78211,0,19.7759,429,0,
11757.6,-0.601807,4.78058,0,19.7759,429,0,
11757.6,-0.602722,4.77905,0,19.7759,429,0,
11757.6,-0.602112,4.77753,0,19.7759,429,0,
11757.6,-0.601501,4.77905,0,19.7759,429,0,
11757.6,-0.59906,4.776,0,19.7759,429,0,
11757.6,-0.596924,4.77905,0,19.7759,429,0,
11757.6,-0.597229,4.776,0,19.7759,429,0,
11757.6,-0.596924,4.776,0,19.7759,429,0,
11757.6,-0.597229,4.78211,0,19.7759,429,0,
11757.6,-0.597534,4.78211,0,19.7759,429,0,
11757.6,-0.596924,4.78058,0,19.7759,429,0,
11757.6,-0.594177,4.78058,0,19.7759,429,0,
11757.7,-0.592651,4.78211,0,19.7759,429,0,
11757.7,-0.592041,4.78058,0,19.7759,429,0,
11757.7,-0.592041,4.78058,0,19.7759,429,0,
11757.7,-0.592041,4.78058,0,19.7759,429,0,
11757.7,-0.592346,4.77905,0,19.7759,429,0,
11757.7,-0.592346,4.78058,0,19.7759,429,0,
11757.7,-0.587463,4.77753,0,19.7759,429,0,
11757.7,-0.587158,4.77753,0,19.7759,429,0,
11757.7,-0.587158,4.77905,0,19.7759,429,0,
11757.7,-0.587463,4.77905,0,19.7759,429,0,
11757.7,-0.587158,4.77905,0,19.7759,429,0,
11757.7,-0.586853,4.77753,0,19.7759,429,0,
11757.7,-0.583191,4.77905,0,19.7759,429,0,
11757.7,-0.582275,4.776,0,19.7759,429,0,
11757.7,-0.58197,4.77753,0,19.7759,429,0,
11757.7,-0.582886,4.78211,0,19.7759,429,0,
11757.7,-0.582886,4.78211,0,19.7759,429,0,
11757.7,-0.582581,4.78058,0,19.7759,429,0,
11757.7,-0.577698,4.78058,0,19.7759,429,0,
11757.7,-0.577087,4.77753,0,19.7759,429,0,
11757.7,-0.577393,4.78058,0,19.7759,429,0,
11757.7,-0.577698,4.77905,0,19.7759,429,0,
11757.7,-0.577698,4.78058,0,19.7759,429,0,
11757.7,-0.574341,4.77905,0,19.7759,429,0,
11757.7,-0.572815,4.78363,0,19.7759,429,0,
11757.7,-0.572205,4.77905,0,19.7759,429,0,
11757.7,-0.57251,4.78058,0,19.7759,429,0,
11757.7,-0.572205,4.78211,0,19.7759,429,0,
11757.7,-0.572205,4.78211,0,19.7759,429,0,
11757.7,-0.567322,4.78058,0,19.7759,429,0,
11757.7,-0.567017,4.78058,0,19.7759,429,0,
11757.7,-0.567932,4.78211,0,19.7759,429,0,
11757.7,-0.567932,4.77753,0,19.7759,429,0,
11757.7,-0.567627,4.77753,0,19.7759,429,0,
11757.7,-0.563049,4.78211,0,19.7759,429,0,
11757.7,-0.562744,4.76685,0,19.7759,429,0,
11757.7,-0.563354,4.76837,0,19.7759,429,0,
11757.7,-0.562744,4.76837,0,19.7759,429,0,
11757.7,-0.562744,4.76837,0,19.7759,429,0,
11757.7,-0.557861,4.76532,0,19.7759,429,0,
11757.7,-0.558472,4.76837,0,19.7759,429,0,
11757.7,-0.557861,4.76532,0,19.7759,429,0,
11757.7,-0.558167,4.76837,0,19.7759,429,0,
11757.7,-0.557556,4.7699,0,19.7759,429,0,
11757.7,-0.553284,4.77142,0,19.7759,429,0,
11757.7,-0.552673,4.76837,0,19.7759,429,0,
11757.7,-0.552979,4.76837,0,19.7759,429,0,
11757.7,-0.552368,4.76837,0,19.7759,429,0,
11757.7,-0.551147,4.7699,0,19.7759,429,0,
11757.8,-0.548096,4.76837,0,19.7759,429,0,
11757.8,-0.548706,4.76837,0,19.7759,429,0,
11757.8,-0.547485,4.76837,0,19.7759,429,0,
11757.8,-0.548706,4.76837,0,19.7759,429,0,
11757.8,-0.543518,4.76685,0,19.7759,429,0,
11757.8,-0.543213,4.76685,0,19.7759,429,0,
11757.8,-0.543518,4.76532,0,19.7759,429,0,
11757.8,-0.542908,4.76685,0,19.7759,429,0,
11757.8,-0.542297,4.76227,0,19.7759,429,0,
11757.8,-0.53894,4.76532,0,19.7759,429,0,
11757.8,-0.538025,4.76837,0,19.7759,429,0,
11757.8,-0.53833,4.76837,0,19.7759,429,0,
11757.8,-0.53894,4.76532,0,19.7759,429,0,
11757.8,-0.534058,4.7699,0,19.7759,429,0,
11757.8,-0.534058,4.76685,0,19.7759,429,0,
11757.8,-0.534058,4.76379,0,19.7759,429,0,
11757.8,-0.533447,4.76532,0,19.7759,429,0,
11757.8,-0.530701,4.7699,0,19.7759,429,0,
11757.8,-0.528259,4.76837,0,19.7759,429,0,
11757.8,-0.52887,4.76532,0,19.7759,429,0,
11757.8,-0.529175,4.76685,0,19.7759,429,0,
11757.8,-0.528564,4.76685,0,19.7759,429,0,
11757.8,-0.523987,4.76532,0,19.7759,429,0,
11757.8,-0.523682,4.76532,0,19.7759,429,0,
11757.8,-0.523071,4.76379,0,19.7759,429,0,
11757.8,-0.523987,4.76532,0,19.7759,429,0,
11757.8,-0.519714,4.7699,0,19.7759,429,0,
11757.8,-0.518188,4.76837,0,19.7759,429,0,
11757.8,-0.518494,4.76685,0,19.7759,429,0,
11757.8,-0.519104,4.7699,0,19.7759,429,0,
11757.8,-0.515747,4.76837,0,19.7759,429,0,
11757.8,-0.513611,4.76837,0,19.7759,429,0,
11757.8,-0.513611,4.76532,0,19.7759,429,0,
11757.8,-0.513306,4.76685,0,19.7759,429,0,
11757.8,-0.510559,4.76685,0,19.7759,429,0,
11757.8,-0.508728,4.76837,0,19.7759,429,0,
11757.8,-0.508423,4.76837,0,19.7759,429,0,
11757.8,-0.509033,4.76532,0,19.7759,429,0,
11757.8,-0.508728,4.76685,0,19.7759,429,0,
11757.8,-0.503845,4.76685,0,19.7759,429,0,
11757.8,-0.50354,4.76837,0,19.7759,429,0,
11757.8,-0.50354,4.76532,0,19.7759,429,0,
11757.8,-0.503845,4.76685,0,19.7759,429,0,
11757.8,-0.498047,4.76532,0,19.7759,429,0,
11757.8,-0.499268,4.76837,0,19.7759,429,0,
11757.8,-0.498962,4.76685,0,19.7759,429,0,
11757.8,-0.498962,4.76685,0,19.7759,429,0,
11757.8,-0.49408,4.7699,0,19.7759,429,0,
11757.8,-0.493774,4.77142,0,19.7759,429,0,
11757.8,-0.493164,4.7699,0,19.7759,429,0,
11757.9,-0.49408,4.76685,0,19.7759,429,0,
11757.9,-0.488586,4.76837,0,19.7759,429,0,
11757.9,-0.488892,4.76685,0,19.7759,429,0,
11757.9,-0.489197,4.76685,0,19.7759,429,0,
11757.9,-0.486755,4.76837,0,19.7759,429,0,
11757.9,-0.484009,4.76685,0,19.7759,429,0,
11757.9,-0.484619,4.76837,0,19.7759,429,0,
11757.9,-0.483398,4.76685,0,19.7759,429,0,
11757.9,-0.481262,4.76379,0,19.7759,429,0,
11757.9,-0.479431,4.76685,0,19.7759,429,0,
11757.9,-0.479431,4.76685,0,19.7759,429,0,
11757.9,-0.480042,4.76837,0,19.7759,429,0,
11757.9,-0.476074,4.76685,0,19.7759,429,0,
11757.9,-0.474243,4.7699,0,19.7759,429,0,
11757.9,-0.474548,4.76837,0,19.7759,429,0,
11757.9,-0.474243,4.76837,0,19.7759,429,0,
11757.9,-0.469971,4.76532,0,19.7759,429,0,
11757.9,-0.46936,4.76837,0,19.7759,429,0,
11757.9,-0.470276,4.76837,0,19.7759,429,0,
11757.9,-0.467224,4.76685,0,19.7759,429,0,
11757.9,-0.463867,4.76837,0,19.7759,429,0,
11757.9,-0.465393,4.76685,0,19.7759,429,0,
11757.9,-0.464783,4.76837,0,19.7759,429,0,
11757.9,-0.46051,4.76685,0,19.7759,429,0,
11757.9,-0.46051,4.76532,0,19.7759,429,0,
11757.9,-0.4599,4.76837,0,19.7759,429,0,
11757.9,-0.459595,4.76685,0,19.7759,429,0,
11757.9,-0.455017,4.76685,0,19.7759,429,0,
11757.9,-0.455017,4.7699,0,19.7759,429,0,
11757.9,-0.455322,4.76685,0,19.7759,429,0,
11757.9,-0.45105,4.76379,0,19.7759,429,0,
11757.9,-0.450134,4.76837,0,19.7759,429,0,
11757.9,-0.450134,4.76379,0,19.7759,429,0,
11757.9,-0.449829,4.76685,0,19.7759,429,0,
11757.9,-0.445557,4.76685,0,19.7759,429,0,
11757.9,-0.445251,4.76837,0,19.7759,429,0,
11757.9,-0.445557,4.76532,0,19.7759,429,0,
11757.9,-0.441589,4.76685,0,19.7759,429,0,
11757.9,-0.440063,4.76379,0,19.7759,429,0,
11757.9,-0.440369,4.76685,0,19.7759,429,0,
11757.9,-0.439758,4.76685,0,19.7759,429,0,
11757.9,-0.43457,4.76532,0,19.7759,429,0,
11757.9,-0.435791,4.76685,0,19.7759,429,0,
11757.9,-0.43457,4.76685,0,19.7759,429,0,
11757.9,-0.430908,4.76685,0,19.7759,429,0,
11757.9,-0.430908,4.76837,0,19.7759,429,0,
11757.9,-0.430603,4.76532,0,19.7759,429,0,
11757.9,-0.427856,4.76685,0,19.7759,429,0,
11757.9,-0.42572,4.7699,0,19.7759,429,0,
11757.9,-0.424805,4.76685,0,19.7759,429,0,
11758,-0.425415,4.76685,0,19.7759,429,0,
11758,-0.419617,4.76532,0,19.7759,429,0,
11758,-0.419922,4.76685,0,19.7759,429,0,
11758,-0.420227,4.76532,0,19.7759,429,0,
11758,-0.415649,4.76685,0,19.7759,429,0,
11758,-0.415039,4.7699,0,19.7759,429,0,
11758,-0.415039,4.76532,0,19.7759,429,0,
11758,-0.412598,4.76685,0,19.7759,429,0,
11758,-0.410767,4.77142,0,19.7759,429,0,
11758,-0.411072,4.7699,0,19.7759,429,0,
11758,-0.410156,4.77142,0,19.7759,429,0,
11758,-0.406494,4.76532,0,19.7759,429,0,
11758,-0.405579,4.76532,0,19.7759,429,0,
11758,-0.405884,4.76685,0,19.7759,430,0,
11758,-0.401917,4.76685,0,19.7759,430,0,
11758,-0.401001,4.7699,0,19.7759,430,0,
11758,-0.401611,4.76685,0,19.7759,430,0,
11758,-0.39856,4.76837,0,19.7759,430,0,
11758,-0.396423,4.7699,0,19.7759,430,0,
11758,-0.396118,4.76532,0,19.7759,430,0,
11758,-0.395813,4.76685,0,19.7759,430,0,
11758,-0.39093,4.76532,0,19.7759,430,0,
11758,-0.391541,4.7699,0,19.7759,430,0,
11758,-0.391846,4.76532,0,19.7759,430,0,
11758,-0.386047,4.76532,0,19.7759,430,0,
11758,-0.386353,4.76532,0,19.7759,430,0,
11758,-0.386353,4.76685,0,19.7759,430,0,
11758,-0.382385,4.76532,0,19.7759,430,0,
11758,-0.382385,4.7699,0,19.7759,430,0,
11758,-0.38208,4.76837,0,19.7759,430,0,
11758,-0.379639,4.76837,0,19.7759,430,0,
11758,-0.376892,4.76837,0,19.7759,430,0,
11758,-0.376892,4.76685,0,19.7759,430,0,
11758,-0.376892,4.76532,0,19.7759,430,0,
11758,-0.371399,4.76685,0,19.7759,430,0,
11758,-0.372314,4.76685,0,19.7759,430,0,
11758,-0.372314,4.76379,0,19.7759,430,0,
11758,-0.366821,4.76685,0,19.7759,430,0,
11758,-0.366211,4.7699,0,19.7759,430,0,
11758,-0.366821,4.76685,0,19.7759,430,0,
11758,-0.362549,4.76685,0,19.7759,430,0,
11758,-0.361328,4.76685,0,19.7759,430,0,
11758,-0.362244,4.76532,0,19.7759,430,0,
11758,-0.357666,4.76837,0,19.7759,430,0,
11758,-0.357361,4.76685,0,19.7759,430,0,
11758,-0.357056,4.76685,0,19.7759,430,0,
11758,-0.354004,4.76532,0,19.7759,430,0,
11758,-0.351257,4.76685,0,19.7759,430,0,
11758,-0.352173,4.76685,0,19.7759,430,0,
11758,-0.352478,4.76685,0,19.7759,430,0,
11758,-0.34729,4.76837,0,19.7759,430,0,
11758.1,-0.34668,4.76685,0,19.7759,430,0,
11758.1,-0.34729,4.76379,0,19.7759,430,0,
11758.1,-0.342712,4.76837,0,19.7759,430,0,
11758.1,-0.341797,4.7699,0,19.7759,430,0,
11758.1,-0.342712,4.76685,0,19.7759,430,0,
11758.1,-0.337219,4.76685,0,19.7759,430,0,
11758.1,-0.33783,4.76379,0,19.7759,430,0,
11758.1,-0.33783,4.76685,0,19.7759,430,0,
11758.1,-0.332642,4.76379,0,19.7759,430,0,
11758.1,-0.332031,4.7699,0,19.7759,430,0,
11758.1,-0.332642,4.76532,0,19.7759,430,0,
11758.1,-0.327759,4.76685,0,19.7759,430,0,
11758.1,-0.327454,4.76837,0,19.7759,430,0,
11758.1,-0.327148,4.76532,0,19.7759,430,0,
11758.1,-0.322266,4.77295,0,19.7759,430,0,
11758.1,-0.323181,4.76685,0,19.7759,430,0,
11758.1,-0.323181,4.76685,0,19.7759,430,0,
11758.1,-0.317383,4.76685,0,19.7759,430,0,
11758.1,-0.317078,4.76532,0,19.7759,430,0,
11758.1,-0.317688,4.76685,0,19.7759,430,0,
11758.1,-0.313721,4.76685,0,19.7759,430,0,
11758.1,-0.31311,4.76685,0,19.7759,430,0,
11758.1,-0.3125,4.76837,0,19.7759,430,0,
11758.1,-0.307922,4.76532,0,19.7759,430,0,
11758.1,-0.307617,4.7699,0,19.7759,430,0,
11758.1,-0.307922,4.7699,0,19.7759,430,0,
11758.1,-0.30426,4.76685,0,19.7759,430,0,
11758.1,-0.302429,4.7699,0,19.7759,430,0,
11758.1,-0.30365,4.76685,0,19.7759,430,0,
11758.1,-0.299988,4.76837,0,19.7759,430,0,
11758.1,-0.297852,4.76379,0,19.7759,430,0,
11758.1,-0.298462,4.76837,0,19.7759,430,0,
11758.1,-0.297852,4.76532,0,19.7759,430,0,
11758.1,-0.292969,4.76685,0,19.7759,430,0,
11758.1,-0.292664,4.76837,0,19.7759,430,0,
11758.1,-0.292969,4.76685,0,19.7759,430,0,
11758.1,-0.288391,4.76685,0,19.7759,430,0,
11758.1,-0.288391,4.76837,0,19.7759,430,0,
11758.1,-0.288086,4.76837,0,19.7759,430,0,
11758.1,-0.284119,4.76837,0,19.7759,430,0,
11758.1,-0.283508,4.76837,0,19.7759,430,0,
11758.1,-0.282593,4.76532,0,19.7759,430,0,
11758.1,-0.280457,4.76837,0,19.7759,430,0,
11758.1,-0.27832,4.76685,0,19.7759,430,0,
11758.1,-0.278015,4.76685,0,19.7759,430,0,
11758.1,-0.278625,4.76532,0,19.7759,430,0,
11758.1,-0.273438,4.76532,0,19.7759,430,0,
11758.1,-0.274353,4.76532,0,19.7759,430,0,
11758.1,-0.273132,4.7699,0,19.7759,430,0,
11758.1,-0.268555,4.7699,0,19.7759,430,0,
11758.2,-0.268555,4.76837,0,19.7759,430,0,
11758.2,-0.26825,4.76532,0,19.7759,430,0,
11758.2,-0.26825,4.77142,0,19.7759,430,0,
11758.2,-0.263672,4.7699,0,19.7759,430,0,
11758.2,-0.263062,4.76837,0,19.7759,430,0,
11758.2,-0.264282,4.76837,0,19.7759,430,0,
11758.2,-0.26062,4.76685,0,19.7759,430,0,
11758.2,-0.258484,4.76685,0,19.7759,430,0,
11758.2,-0.258484,4.76532,0,19.7759,430,0,
11758.2,-0.258789,4.76532,0,19.7759,430,0,
11758.2,-0.253906,4.76837,0,19.7759,430,0,
11758.2,-0.252991,4.76685,0,19.7759,430,0,
11758.2,-0.252991,4.76685,0,19.7759,430,0,
11758.2,-0.253906,4.76837,0,19.7759,430,0,
11758.2,-0.249634,4.76685,0,19.7759,430,0,
11758.2,-0.249634,4.76379,0,19.7759,430,0,
11758.2,-0.249023,4.76685,0,19.7759,430,0,
11758.2,-0.246277,4.76837,0,19.7759,430,0,
11758.2,-0.243835,4.76837,0,19.7759,430,0,
11758.2,-0.24292,4.7699,0,19.7759,430,0,
11758.2,-0.24353,4.76532,0,19.7759,430,0,
11758.2,-0.241089,4.76685,0,19.7759,430,0,
11758.2,-0.238647,4.76837,0,19.7759,430,0,
11758.2,-0.239563,4.76685,0,19.7759,430,0,
11758.2,-0.239258,4.76685,0,19.7759,430,0,
11758.2,-0.235901,4.76532,0,19.7759,430,0,
11758.2,-0.234375,4.76685,0,19.7759,430,0,
11758.2,-0.234375,4.77142,0,19.7759,430,0,
11758.2,-0.23407,4.7699,0,19.7759,430,0,
11758.2,-0.23407,4.76532,0,19.7759,430,0,
11758.2,-0.229492,4.76837,0,19.7759,430,0,
11758.2,-0.229492,4.76379,0,19.7759,430,0,
11758.2,-0.229492,4.7699,0,19.7759,430,0,
11758.2,-0.229797,4.76837,0,19.7759,430,0,
11758.2,-0.224304,4.77142,0,19.7759,430,0,
11758.2,-0.224915,4.76685,0,19.7759,430,0,
11758.2,-0.224915,4.76837,0,19.7759,430,0,
11758.2,-0.224304,4.76532,0,19.7759,430,0,
11758.2,-0.220337,4.76532,0,19.7759,430,0,
11758.2,-0.219421,4.7699,0,19.7759,430,0,
11758.2,-0.219727,4.76532,0,19.7759,430,0,
11758.2,-0.219421,4.76837,0,19.7759,430,0,
11758.2,-0.220032,4.76532,0,19.8282,430,0,
11758.2,-0.214844,4.76532,0,19.8282,430,0,
11758.2,-0.214539,4.76532,0,19.8282,430,0,
11758.2,-0.214539,4.76837,0,19.8282,430,0,
11758.2,-0.214539,4.7699,0,19.8282,430,0,
11758.2,-0.211487,4.76532,0,19.8282,430,0,
11758.2,-0.210266,4.7699,0,19.8282,430,0,
11758.2,-0.209961,4.77142,0,19.8282,430,0,
11758.3,-0.210266,4.76532,0,19.8282,430,0,
11758.3,-0.209961,4.76837,0,19.8282,430,0,
11758.3,-0.206604,4.76685,0,19.8282,430,0,
11758.3,-0.205078,4.76837,0,19.8282,430,0,
11758.3,-0.204468,4.76685,0,19.8282,430,0,
11758.3,-0.204468,4.7699,0,19.8282,430,0,
11758.3,-0.204468,4.76685,0,19.8282,430,0,
11758.3,-0.202332,4.76837,0,19.8282,430,0,
11758.3,-0.19928,4.7699,0,19.8282,430,0,
11758.3,-0.19989,4.76685,0,19.8282,430,0,
11758.3,-0.2005,4.76837,0,19.8282,430,0,
11758.3,-0.200195,4.7699,0,19.8282,430,0,
11758.3,-0.196533,4.76837,0,19.8282,430,0,
11758.3,-0.195312,4.7699,0,19.8282,430,0,
11758.3,-0.194702,4.76837,0,19.8282,430,0,
11758.3,-0.195923,4.7699,0,19.8282,430,0,
11758.3,-0.194092,4.76837,0,19.8282,430,0,
11758.3,-0.195007,4.76532,0,19.8282,430,0,
11758.3,-0.189819,4.76532,0,19.8282,430,0,
11758.3,-0.19043,4.76685,0,19.8282,430,0,
11758.3,-0.19043,4.76837,0,19.8282,430,0,
11758.3,-0.190125,4.76837,0,19.8282,430,0,
11758.3,-0.190125,4.76837,0,19.8282,430,0,
11758.3,-0.189819,4.76685,0,19.8282,430,0,
11758.3,-0.185242,4.76532,0,19.8282,430,0,
11758.3,-0.184631,4.76532,0,19.8282,430,0,
11758.3,-0.185242,4.76379,0,19.8282,430,0,
11758.3,-0.185242,4.76837,0,19.8282,430,0,
11758.3,-0.184937,4.76532,0,19.8282,430,0,
11758.3,-0.1828,4.76685,0,19.8282,430,0,
11758.3,-0.180664,4.76685,0,19.8282,430,0,
11758.3,-0.180359,4.76685,0,19.8282,430,0,
11758.3,-0.180054,4.76837,0,19.8282,430,0,
11758.3,-0.180664,4.76685,0,19.8282,430,0,
11758.3,-0.180054,4.76685,0,19.8282,430,0,
11758.3,-0.178223,4.76532,0,19.8282,430,0,
11758.3,-0.175476,4.77142,0,19.8282,430,0,
11758.3,-0.175781,4.76837,0,19.8282,430,0,
11758.3,-0.174866,4.76685,0,19.8282,430,0,
11758.3,-0.175171,4.76532,0,19.8282,430,0,
11758.3,-0.175476,4.76685,0,19.8282,430,0,
11758.3,-0.172729,4.76837,0,19.8282,430,0,
11758.3,-0.170288,4.76837,0,19.8282,430,0,
11758.3,-0.170898,4.76837,0,19.8282,430,0,
11758.3,-0.170288,4.76685,0,19.8282,430,0,
11758.3,-0.170593,4.76532,0,19.8282,430,0,
11758.3,-0.169678,4.76837,0,19.8282,430,0,
11758.3,-0.170593,4.76532,0,19.8282,430,0,
11758.3,-0.165405,4.7699,0,19.8282,430,0,
11758.4,-0.165405,4.7699,0,19.8282,430,0,
11758.4,-0.16571,4.7699,0,19.8282,430,0,
11758.4,-0.1651,4.76837,0,19.8282,430,0,
11758.4,-0.16571,4.77142,0,19.8282,430,0,
11758.4,-0.166016,4.7699,0,19.8282,430,0,
11758.4,-0.161743,4.7699,0,19.8282,430,0,
11758.4,-0.160522,4.76685,0,19.8282,430,0,
11758.4,-0.160522,4.76837,0,19.8282,430,0,
11758.4,-0.160828,4.76685,0,19.8282,430,0,
11758.4,-0.160217,4.76837,0,19.8282,430,0,
11758.4,-0.160828,4.7699,0,19.8282,430,0,
11758.4,-0.160522,4.7699,0,19.8282,430,0,
11758.4,-0.155945,4.76532,0,19.8282,430,0,
11758.4,-0.15564,4.76685,0,19.8282,430,0,
11758.4,-0.155334,4.76532,0,19.8282,430,0,
11758.4,-0.15564,4.76532,0,19.8282,430,0,
11758.4,-0.15625,4.76685,0,19.8282,430,0,
11758.4,-0.155334,4.76837,0,19.8282,430,0,
11758.4,-0.151672,4.76685,0,19.8282,430,0,
11758.4,-0.150452,4.76685,0,19.8282,430,0,
11758.4,-0.150146,4.76532,0,19.8282,430,0,
11758.4,-0.151062,4.76837,0,19.8282,430,0,
11758.4,-0.151367,4.76685,0,19.8282,430,0,
11758.4,-0.151062,4.76685,0,19.8282,430,0,
11758.4,-0.150757,4.76685,0,19.8282,430,0,
11758.4,-0.146484,4.76532,0,19.8282,430,0,
11758.4,-0.146484,4.76685,0,19.8282,430,0,
11758.4,-0.146484,4.7699,0,19.8282,430,0,
11758.4,-0.145569,4.76837,0,19.8282,430,0,
11758.4,-0.146179,4.76837,0,19.8282,430,0,
11758.4,-0.146484,4.76837,0,19.8282,430,0,
11758.4,-0.146179,4.76837,0,19.8282,430,0,
11758.4,-0.140991,4.76837,0,19.8282,430,0,
11758.4,-0.141296,4.77142,0,19.8282,430,0,
11758.4,-0.140686,4.76379,0,19.8282,430,0,
11758.4,-0.141296,4.76837,0,19.8282,430,0,
11758.4,-0.140686,4.7699,0,19.8282,430,0,
11758.4,-0.140991,4.76837,0,19.8282,430,0,
11758.4,-0.141296,4.76685,0,19.8282,430,0,
11758.4,-0.136414,4.76837,0,19.8282,430,0,
11758.4,-0.136414,4.77142,0,19.8282,430,0,
11758.4,-0.135498,4.76685,0,19.8282,430,0,
11758.4,-0.136414,4.77142,0,19.8282,430,0,
11758.4,-0.136108,4.76532,0,19.8282,430,0,
11758.4,-0.136108,4.76837,0,19.8282,430,0,
11758.4,-0.136108,4.76837,0,19.8282,430,0,
11758.4,-0.132141,4.76532,0,19.8282,430,0,
11758.4,-0.131226,4.7699,0,19.8282,430,0,
11758.4,-0.13092,4.76685,0,19.8282,430,0,
11758.4,-0.131531,4.76379,0,19.8282,430,0,
11758.5,-0.131836,4.7699,0,19.8282,430,0,
11758.5,-0.13092,4.76532,0,19.8282,430,0,
11758.5,-0.13092,4.76837,0,19.8282,430,0,
11758.5,-0.131226,4.76837,0,19.8282,430,0,
11758.5,-0.126343,4.76837,0,19.8282,430,0,
11758.5,-0.126648,4.76685,0,19.8282,430,0,
11758.5,-0.126648,4.76532,0,19.8282,430,0,
11758.5,-0.126343,4.76685,0,19.8282,430,0,
11758.5,-0.126343,4.7699,0,19.8282,430,0,
11758.5,-0.126343,4.76532,0,19.8282,430,0,
11758.5,-0.126343,4.76837,0,19.8282,430,0,
11758.5,-0.123901,4.76837,0,19.8282,430,0,
11758.5,-0.12207,4.76837,0,19.8282,430,0,
11758.5,-0.121155,4.76685,0,19.8282,430,0,
11758.5,-0.12207,4.76837,0,19.8282,430,0,
11758.5,-0.12207,4.76837,0,19.8282,430,0,
11758.5,-0.12207,4.76685,0,19.8282,430,0,
11758.5,-0.121155,4.76837,0,19.8282,430,0,
11758.5,-0.121765,4.76685,0,19.8282,430,0,
11758.5,-0.119019,4.76685,0,19.8282,430,0,
11758.5,-0.116577,4.76685,0,19.8282,430,0,
11758.5,-0.116882,4.76837,0,19.8282,430,0,
11758.5,-0.115967,4.76685,0,19.8282,430,0,
11758.5,-0.116882,4.76685,0,19.8282,430,0,
11758.5,-0.115662,4.76685,0,19.8282,430,0,
11758.5,-0.116577,4.76685,0,19.8282,430,0,
11758.5,-0.116577,4.7699,0,19.8282,430,0,
11758.5,-0.113525,4.76685,0,19.8282,430,0,
11758.5,-0.112,4.76837,0,19.8282,430,0,
11758.5,-0.111389,4.76837,0,19.8282,430,0,
11758.5,-0.112305,4.76837,0,19.8282,430,0,
11758.5,-0.111389,4.76685,0,19.8282,430,0,
11758.5,-0.112305,4.76685,0,19.8282,430,0,
11758.5,-0.111389,4.76685,0,19.8282,430,0,
11758.5,-0.111389,4.76837,0,19.8282,430,0,
11758.5,-0.111084,4.76532,0,19.8282,430,0,
11758.5,-0.106506,4.76685,0,19.8282,430,0,
11758.5,-0.106506,4.76837,0,19.8282,430,0,
11758.5,-0.106812,4.76685,0,19.8282,430,0,
11758.5,-0.106812,4.76532,0,19.8282,430,0,
11758.5,-0.106506,4.76685,0,19.8282,430,0,
11758.5,-0.106506,4.76837,0,19.8282,430,0,
11758.5,-0.106201,4.76837,0,19.8282,430,0,
11758.5,-0.106812,4.76685,0,19.8282,430,0,
11758.5,-0.106812,4.76685,0,19.8282,430,0,
11758.5,-0.102539,4.76532,0,19.8282,430,0,
11758.5,-0.101624,4.76532,0,19.8282,430,0,
11758.5,-0.101318,4.76685,0,19.8282,430,0,
11758.5,-0.101929,4.76532,0,19.8282,430,0,
11758.5,-0.101624,4.76685,0,19.8282,430,0,
11758.5,-0.102234,4.76837,0,19.8282,430,0,
11758.6,-0.101929,4.76685,0,19.8282,430,0,
11758.6,-0.101318,4.76685,0,19.8282,430,0,
11758.6,-0.101929,4.7699,0,19.8282,430,0,
11758.6,-0.0967407,4.76532,0,19.8282,430,0,
11758.6,-0.0970459,4.7699,0,19.8282,430,0,
11758.6,-0.0973511,4.76837,0,19.8282,430,0,
11758.6,-0.0970459,4.76837,0,19.8282,430,0,
11758.6,-0.0970459,4.76685,0,19.8282,430,0,
11758.6,-0.0973511,4.76837,0,19.8282,430,0,
11758.6,-0.0967407,4.7699,0,19.8282,430,0,
11758.6,-0.0970459,4.76532,0,19.8282,430,0,
11758.6,-0.0970459,4.75769,0,19.8282,430,0,
11758.6,-0.0949097,4.75617,0,19.8282,430,0,
11758.6,-0.0918579,4.75311,0,19.8282,430,0,
11758.6,-0.0924683,4.75464,0,19.8282,430,0,
11758.6,-0.0924683,4.75617,0,19.8282,430,0,
11758.6,-0.0918579,4.75464,0,19.8282,430,0,
11758.6,-0.0912476,4.75769,0,19.8282,430,0,
11758.6,-0.0918579,4.75769,0,19.8282,430,0,
11758.6,-0.0915527,4.75769,0,19.8282,430,0,
11758.6,-0.0918579,4.75464,0,19.8282,430,0,
11758.6,-0.0921631,4.75311,0,19.8282,430,0,
11758.6,-0.0918579,4.75311,0,19.8282,430,0,
11758.6,-0.0875854,4.75617,0,19.8282,430,0,
11758.6,-0.0872803,4.75464,0,19.8282,430,0,
11758.6,-0.0869751,4.75922,0,19.8282,430,0,
11758.6,-0.0869751,4.75769,0,19.8282,430,0,
11758.6,-0.0866699,4.75617,0,19.8282,430,0,
11758.6,-0.0872803,4.75769,0,19.8282,430,0,
11758.6,-0.0869751,4.75464,0,19.8282,430,0,
11758.6,-0.0875854,4.75464,0,19.8282,430,0,
11758.6,-0.0875854,4.75159,0,19.8282,430,0,
11758.6,-0.0872803,4.75769,0,19.8282,430,0,
11758.6,-0.0872803,4.75311,0,19.8282,430,0,
11758.6,-0.0872803,4.75617,0,19.8282,430,0,
11758.6,-0.0823975,4.75464,0,19.8282,430,0,
11758.6,-0.0823975,4.75617,0,19.8282,430,0,
11758.6,-0.0827026,4.75464,0,19.8282,430,0,
11758.6,-0.0814819,4.75617,0,19.8282,430,0,
11758.6,-0.0827026,4.75617,0,19.8282,430,0,
11758.6,-0.0827026,4.75617,0,19.8282,430,0,
11758.6,-0.0830078,4.75769,0,19.8282,430,0,
11758.6,-0.0823975,4.75464,0,19.8282,430,0,
11758.6,-0.0827026,4.75769,0,19.8282,430,0,
11758.6,-0.0823975,4.75464,0,19.8282,430,0,
11758.6,-0.0827026,4.75464,0,19.8282,430,0,
11758.6,-0.0820923,4.75464,0,19.8282,430,0,
11758.6,-0.0823975,4.75769,2.97,19.8282,430,0,
11758.6,-0.0814819,4.75617,2.97,19.8282,430,0,
11758.6,-0.0778198,4.75159,2.97,19.8282,430,0,
11758.7,-0.0772095,4.75464,2.97,19.8282,430,0,
11758.7,-0.0772095,4.75464,2.97,19.8282,430,0,
11758.7,-0.0769043,4.75922,2.97,19.8282,430,0,
11758.7,-0.0772095,4.75617,2.97,19.8282,430,0,
11758.7,-0.0769043,4.75617,2.97,19.8282,430,0,
11758.7,-0.0778198,4.75311,2.97,19.8282,430,0,
11758.7,-0.0772095,4.75159,2.97,19.8282,430,0,
11758.7,-0.0772095,4.75769,2.97,19.8282,430,0,
11758.7,-0.0772095,4.75617,2.97,19.8282,430,0,
11758.7,-0.0769043,4.75617,2.97,19.8282,430,0,
11758.7,-0.0769043,4.75769,2.97,19.8282,430,0,
11758.7,-0.0769043,4.75769,2.97,19.8282,430,0,
11758.7,-0.078125,4.75617,2.97,19.8282,430,0,
11758.7,-0.0775146,4.75464,2.97,19.8282,430,5,
11758.7,-0.0775146,4.75617,2.97,19.8282,430,5,
11758.7,-0.0772095,4.75464,2.97,19.8282,430,5,
11758.7,-0.072937,4.75617,2.97,19.8282,430,5,
11758.7,-0.0726318,4.76074,2.97,19.8282,430,5,
11758.7,-0.0726318,4.75617,2.97,19.8282,430,5,
11758.7,-0.0720215,4.75464,2.97,19.8282,430,5,
11758.7,-0.072937,4.75311,2.97,19.8282,430,5,
11758.7,-0.072937,4.75464,2.97,19.8282,430,5,
11758.7,-0.072937,4.75617,2.97,19.8282,430,5,
11758.7,-0.0726318,4.75617,2.97,19.8282,430,5,
11758.7,-0.0726318,4.75617,2.97,19.8282,430,5,
11758.7,-0.0726318,4.76074,2.97,19.8282,430,5,
11758.7,-0.0726318,4.75464,2.97,19.8282,430,5,
11758.7,-0.0723267,4.75769,2.97,19.8282,430,5,
11758.7,-0.072937,4.75464,2.97,19.8282,430,5,
11758.7,-0.0726318,4.75922,2.97,19.8282,430,5,
11758.7,-0.0726318,4.75922,2.97,19.8282,430,5,
11758.7,-0.0723267,4.75617,2.97,19.8282,430,5,
11758.7,-0.0726318,4.75617,2.97,19.8282,430,5,
11758.7,-0.0732422,4.75464,2.97,19.8282,430,5,
11758.7,-0.0723267,4.75617,2.97,19.8282,430,5,
11758.7,-0.0717163,4.75464,2.97,19.8282,430,5,
11758.7,-0.0726318,4.75617,2.97,19.8282,430,5,
11758.7,-0.0726318,4.75617,2.97,19.8282,430,5,
11758.7,-0.0723267,4.75617,2.97,19.8282,430,5,
11758.7,-0.0686646,4.75311,2.97,19.8282,430,5,
11758.7,-0.0680542,4.75617,2.97,19.8282,430,5,
11758.7,-0.0680542,4.75769,2.97,19.8282,430,5,
11758.7,-0.0683594,4.75617,2.97,19.8282,430,5,
11758.7,-0.0668335,4.75617,2.97,19.8282,430,5,
11758.7,-0.0674438,4.75464,2.97,19.8282,430,5,
11758.7,-0.0674438,4.75617,2.97,19.8282,430,5,
11758.7,-0.067749,4.75617,2.97,19.8282,430,5,
11758.7,-0.067749,4.75617,2.97,19.8282,430,5,
11758.7,-0.0674438,4.75464,2.97,19.8282,430,5,
11758.8,-0.067749,4.75617,2.97,19.8282,430,5,
11758.8,-0.067749,4.75464,2.97,19.8282,430,5,
11758.8,-0.0671387,4.75464,2.97,19.8282,430,5,
11758.8,-0.0674438,4.75311,2.97,19.8282,430,5,
11758.8,-0.0680542,4.75617,2.97,19.8282,430,5,
11758.8,-0.067749,4.75769,2.97,19.8282,430,5,
11758.8,-0.067749,4.75159,2.97,19.8282,430,5,
11758.8,-0.0668335,4.75769,2.97,19.8282,430,5,
11758.8,-0.0674438,4.75464,2.97,19.8282,430,5,
11758.8,-0.067749,4.75311,2.97,19.8282,430,5,
11758.8,-0.0674438,4.75617,2.97,19.8282,430,5,
11758.8,-0.0674438,4.75464,2.97,19.8282,430,5,
11758.8,-0.0671387,4.75617,2.97,19.8282,430,5,
11758.8,-0.0668335,4.75464,2.97,19.8282,430,5,
11758.8,-0.0671387,4.75769,2.97,19.8282,430,5,
11758.8,-0.067749,4.75464,2.97,19.8282,430,5,
11758.8,-0.0680542,4.75617,2.97,19.8282,430,5,
11758.8,-0.0674438,4.75464,2.97,19.8282,430,5,
11758.8,-0.0671387,4.75922,2.97,19.8282,430,5,
11758.8,-0.067749,4.75769,2.97,19.8282,430,5,
11758.8,-0.0671387,4.75617,2.97,19.8282,430,5,
11758.8,-0.067749,4.75769,2.97,19.8282,430,5,
11758.8,-0.0680542,4.75617,2.97,19.8282,430,5,
11758.8,-0.067749,4.75617,2.97,19.8282,430,5,
11758.8,-0.0674438,4.75769,2.97,19.8282,430,5,
11758.8,-0.067749,4.75617,2.97,19.8282,430,5,
11758.8,-0.067749,4.75159,2.97,19.8282,430,5,
11758.8,-0.0646973,4.75464,2.97,19.8282,430,5,
11758.8,-0.062561,4.75769,2.97,19.8282,430,5,
11758.8,-0.0631714,4.75617,2.97,19.8282,430,5,
11758.8,-0.0622559,4.75769,2.97,19.8282,430,5,
11758.8,-0.0628662,4.76074,2.97,19.8282,430,5,
11758.8,-0.062561,4.75769,2.97,19.8282,430,5,
11758.8,-0.062561,4.75159,2.97,19.8282,430,5,
11758.8,-0.0631714,4.75617,2.97,19.8282,430,5,
11758.8,-0.062561,4.75769,2.97,19.8282,430,5,
11758.8,-0.0628662,4.75617,2.97,19.8282,430,5,
11758.8,-0.0619507,4.75311,2.97,19.8282,430,5,
11758.8,-0.062561,4.75464,2.97,19.8282,430,5,
11758.8,-0.062561,4.75769,2.97,19.8282,430,5,
11758.8,-0.0631714,4.75311,2.97,19.8282,430,5,
11758.8,-0.062561,4.75769,2.97,19.8282,430,5,
11758.8,-0.0674438,4.75464,2.97,19.8282,430,5,
11758.8,-0.0674438,4.75617,2.97,19.8282,430,5,
11758.8,-0.0665283,4.75617,2.97,19.8282,430,5,
11758.8,-0.0674438,4.75769,2.97,19.8282,430,5,
11758.8,-0.0671387,4.75311,2.97,19.8282,430,5,
11758.8,-0.0674438,4.75464,2.97,19.8282,430,5,
11758.8,-0.067749,4.75769,2.97,19.8282,430,5,
11758.8,-0.0674438,4.75769,2.97,19.8282,430,5,
11758.9,-0.067749,4.75617,2.97,19.8282,430,5,
11758.9,-0.0674438,4.75769,2.97,19.8282,430,5,
11758.9,-0.0671387,4.75311,2.97,19.8282,430,5,
11758.9,-0.0668335,4.75464,2.97,19.8282,430,5,
11758.9,-0.0671387,4.75617,2.97,19.8282,430,5,
11758.9,-0.0674438,4.75159,2.97,19.8282,430,5,
11758.9,-0.0674438,4.75617,2.97,19.8282,430,5,
11758.9,-0.0671387,4.75464,2.97,19.8282,430,5,
11758.9,-0.0674438,4.75464,2.97,19.8282,430,5,
11758.9,-0.0671387,4.75159,2.97,19.8282,430,5,
11758.9,-0.0674438,4.75769,2.97,19.8282,430,5,
11758.9,-0.0671387,4.75617,2.97,19.8282,430,5,
11758.9,-0.0674438,4.75769,2.97,19.8282,430,5,
11758.9,-0.067749,4.75617,2.97,19.8282,430,5,
11758.9,-0.0680542,4.75617,2.97,19.8282,430,5,
11758.9,-0.0704956,4.75617,2.97,19.8282,430,5,
11758.9,-0.0726318,4.75464,2.97,19.8282,430,5,
11758.9,-0.0723267,4.75922,2.97,19.8282,430,5,
11758.9,-0.0723267,4.75464,2.97,19.8282,430,5,
11758.9,-0.0726318,4.75464,2.97,19.8282,430,5,
11758.9,-0.0732422,4.75617,2.97,19.8282,430,5,
11758.9,-0.0723267,4.75922,2.97,19.8282,430,5,
11758.9,-0.0723267,4.75769,2.97,19.8282,430,5,
11758.9,-0.0723267,4.75464,2.97,19.8282,430,5,
11758.9,-0.0720215,4.75464,2.97,19.8282,430,5,
11758.9,-0.072937,4.75464,2.97,19.8282,430,5,
11758.9,-0.0720215,4.75464,2.97,19.8282,430,5,
11758.9,-0.0723267,4.75617,2.97,19.8282,430,5,
11758.9,-0.0778198,4.75922,2.97,19.8282,430,5,
11758.9,-0.0775146,4.75617,2.97,19.8282,430,5,
11758.9,-0.0778198,4.75617,2.97,19.8282,430,5,
11758.9,-0.0772095,4.75617,2.97,19.8282,430,5,
11758.9,-0.0769043,4.75617,2.97,19.8282,430,5,
11758.9,-0.0775146,4.75464,2.97,19.8282,430,5,
11758.9,-0.0775146,4.75922,2.97,19.8282,430,5,
11758.9,-0.0772095,4.75464,2.97,19.8282,430,5,
11758.9,-0.0772095,4.75464,2.97,19.8282,430,5,
11758.9,-0.0778198,4.75922,2.97,19.8282,430,5,
11758.9,-0.0814819,4.75617,2.97,19.8282,430,5,
11758.9,-0.0814819,4.75617,2.97,19.8282,430,5,
11758.9,-0.0823975,4.75311,2.97,19.8282,430,5,
11758.9,-0.0823975,4.75464,2.97,19.8282,430,5,
11758.9,-0.0827026,4.75617,2.97,19.8282,430,5,
11758.9,-0.0827026,4.75311,2.97,19.8282,430,5,
11758.9,-0.0820923,4.75311,2.97,19.8282,430,5,
11758.9,-0.0817871,4.75617,2.97,19.8282,430,5,
11758.9,-0.0866699,4.75464,2.97,19.8282,430,5,
11758.9,-0.0869751,4.75617,2.97,19.8282,430,5,
11758.9,-0.0866699,4.75617,2.97,19.8282,430,5,
11758.9,-0.0872803,4.75617,2.97,19.8282,430,5,
11759,-0.0869751,4.75617,2.97,19.8282,430,5,
11759,-0.0863647,4.75769,2.97,19.8282,430,5,
11759,-0.0869751,4.75769,2.97,19.8282,430,5,
11759,-0.0869751,4.75617,2.97,19.8282,430,5,
11759,-0.0924683,4.75617,2.97,19.8282,430,5,
11759,-0.0915527,4.75769,2.97,19.8282,430,5,
11759,-0.0924683,4.75617,2.97,19.8282,430,5,
11759,-0.0930786,4.75769,2.97,19.8282,430,5,
11759,-0.0924683,4.75464,2.97,19.8282,430,5,
11759,-0.0924683,4.75617,2.97,19.8282,430,5,
11759,-0.0921631,4.75769,2.97,19.8282,430,5,
11759,-0.0952148,4.75922,2.97,19.8282,430,5,
11759,-0.0964355,4.75311,2.97,19.8282,430,5,
11759,-0.0967407,4.75769,2.97,19.8282,430,5,
11759,-0.0973511,4.75464,2.97,19.8282,430,5,
11759,-0.0970459,4.75311,2.97,19.8282,430,5,
11759,-0.0961304,4.75617,2.97,19.8282,430,5,
11759,-0.0976562,4.75311,2.97,19.8282,430,5,
11759,-0.101624,4.75464,2.97,19.8282,430,5,
11759,-0.101624,4.75617,2.97,19.8282,430,5,
11759,-0.101929,4.75769,2.97,19.8282,430,5,
11759,-0.102234,4.75617,2.97,19.8282,430,5,
11759,-0.102234,4.75464,2.97,19.8282,430,5,
11759,-0.102234,4.75769,2.97,19.8282,430,5,
11759,-0.102539,4.75617,2.97,19.8282,430,5,
11759,-0.107117,4.75464,2.97,19.8282,430,5,
11759,-0.107117,4.75617,2.97,19.8282,430,5,
11759,-0.106812,4.75922,2.97,19.8282,430,5,
11759,-0.107117,4.75464,2.97,19.8282,430,5,
11759,-0.106812,4.75464,2.97,19.8282,430,5,
11759,-0.107117,4.75617,2.97,19.8282,430,5,
11759,-0.110168,4.75617,2.97,19.8282,430,5,
11759,-0.111389,4.75464,2.97,19.8282,430,5,
11759,-0.111694,4.75617,2.97,19.8282,430,5,
11759,-0.111694,4.75464,2.97,19.8282,430,5,
11759,-0.111694,4.75617,2.97,19.8282,430,5,
