4200-SECPT.acq
2 msec/sample
6 channels
RSP, X, RSPEC-R
Volts
EDA, Y, PPGED-R
microsiemens
ECG R-R
Seconds
Respiration Rate
BPM
C7 - EDR
Peaks
C14 - Control
Volts
sec,CH1,CH14,CH40,CH42,CH47,CH54,
,23566,23566,23566,23566,23566,23566,
6770.29,-8.84521,1.14288,0,8.16771,263,0,
6770.29,-8.83453,1.14288,0,8.16771,263,0,
6770.29,-8.82568,1.14288,0,8.16771,263,0,
6770.29,-8.81561,1.14594,0,8.16771,263,0,
6770.3,-8.80585,1.14136,0,8.16771,263,0,
6770.3,-8.79608,1.14594,0,8.16771,263,0,
6770.3,-8.78387,1.13983,0,8.16771,263,0,
6770.3,-8.77258,1.14136,0,8.16771,263,0,
6770.3,-8.76129,1.14441,0,8.16771,263,0,
6770.31,-8.74908,1.13983,0,8.16771,263,0,
6770.31,-8.73779,1.13983,0,8.16771,263,0,
6770.31,-8.72253,1.14441,0,8.16771,263,0,
6770.31,-8.71002,1.14441,0,8.16771,263,0,
6770.31,-8.6969,1.14288,0,8.16771,263,0,
6770.32,-8.68347,1.14136,0,8.16771,263,0,
6770.32,-8.67096,1.14136,0,8.16771,263,0,
6770.32,-8.65662,1.14136,0,8.16771,263,0,
6770.32,-8.6438,1.14288,0,8.16771,263,0,
6770.32,-8.62976,1.13983,0,8.16771,263,0,
6770.33,-8.6142,1.14594,0,8.16771,263,0,
6770.33,-8.59741,1.14441,0,8.16771,263,0,
6770.33,-8.58063,1.14136,0,8.16771,263,0,
6770.33,-8.56659,1.14441,0,8.16771,263,0,
6770.33,-8.55194,1.13983,0,8.16771,263,0,
6770.34,-8.53668,1.14136,0,8.16771,263,0,
6770.34,-8.51746,1.14441,0,8.16771,263,0,
6770.34,-8.50311,1.14441,0,8.16771,263,0,
6770.34,-8.48267,1.14288,0,8.16771,263,0,
6770.34,-8.46893,1.14136,0,8.16771,263,0,
6770.35,-8.4494,1.14288,0,8.16771,263,0,
6770.35,-8.43384,1.14594,0,8.16771,263,0,
6770.35,-8.41522,1.14288,0,8.16771,263,0,
6770.35,-8.39508,1.13068,0,8.16771,263,0,
6770.35,-8.37616,1.12915,0,8.16771,263,0,
6770.36,-8.35663,1.12915,0,8.16771,263,0,
6770.36,-8.34106,1.13068,0,8.16771,263,0,
6770.36,-8.32184,1.13373,0,8.16771,263,0,
6770.36,-8.302,1.12915,0,8.16771,263,0,
6770.36,-8.28278,1.1261,0,8.16771,263,0,
6770.37,-8.26111,1.12915,0,8.16771,263,0,
6770.37,-8.23914,1.12763,0,8.16771,263,0,
6770.37,-8.21899,1.13068,0,8.16771,263,0,
6770.37,-8.19977,1.12915,0,8.16771,263,0,
6770.37,-8.18024,1.12915,0,8.16771,263,0,
6770.38,-8.15552,1.12915,0,8.16771,263,0,
6770.38,-8.13538,1.12763,0,8.16771,263,0,
6770.38,-8.11371,1.13373,0,8.16771,263,0,
6770.38,-8.09174,1.1261,0,8.16771,263,0,
6770.38,-8.07007,1.13068,0,8.16771,263,0,
6770.39,-8.04779,1.12915,0,8.16771,263,0,
6770.39,-8.02338,1.13373,0,8.16771,263,0,
6770.39,-8.0011,1.13068,0,8.16771,263,0,
6770.39,-7.97791,1.12763,0,8.16771,263,0,
6770.39,-7.9541,1.13068,0,8.16771,263,0,
6770.4,-7.9303,1.13373,0,8.16771,263,0,
6770.4,-7.9068,1.12763,0,8.16771,263,0,
6770.4,-7.88422,1.1322,0,8.16771,263,0,
6770.4,-7.85919,1.13373,0,8.16771,263,0,
6770.4,-7.83508,1.13068,0,8.16771,263,0,
6770.41,-7.81036,1.13068,0,8.16771,263,0,
6770.41,-7.78381,1.12915,0,8.16771,263,0,
6770.41,-7.75879,1.13068,0,8.16771,263,0,
6770.41,-7.73407,1.13373,0,8.16771,263,0,
6770.41,-7.70996,1.13373,0,8.16771,263,0,
6770.42,-7.6825,1.12915,0,8.16771,263,0,
6770.42,-7.65594,1.12915,0,8.16771,263,0,
6770.42,-7.63153,1.1322,0,8.16771,263,0,
6770.42,-7.60254,1.13068,0,8.16771,263,0,
6770.42,-7.57782,1.12763,0,8.16771,263,0,
6770.43,-7.54883,1.13373,0,8.16771,263,0,
6770.43,-7.52411,1.12915,0,8.16771,263,0,
6770.43,-7.49542,1.13373,0,8.16771,263,0,
6770.43,-7.46735,1.13068,0,8.16771,263,0,
6770.43,-7.43988,1.13373,0,8.16771,263,0,
6770.44,-7.4118,1.12763,0,8.16771,263,0,
6770.44,-7.38495,1.13068,0,8.16771,263,0,
6770.44,-7.35565,1.13068,0,8.16771,263,0,
6770.44,-7.32605,1.13068,0,8.16771,263,0,
6770.44,-7.29645,1.12915,0,8.16771,263,0,
6770.45,-7.2699,1.1322,0,8.16771,263,0,
6770.45,-7.2403,1.1322,0,8.16771,263,0,
6770.45,-7.211,1.12763,0,8.16771,263,0,
6770.45,-7.1814,1.1322,0,8.16771,263,0,
6770.45,-7.14996,1.12915,0,8.16771,263,0,
6770.46,-7.12006,1.1322,0,8.16771,263,0,
6770.46,-7.08984,1.13068,0,8.16771,263,0,
6770.46,-7.05933,1.12915,0,8.16771,263,0,
6770.46,-7.02911,1.1322,0,8.16771,263,0,
6770.46,-6.9986,1.13373,0,8.16771,263,0,
6770.47,-6.96808,1.12915,0,8.16771,263,0,
6770.47,-6.93695,1.12915,0,8.16771,263,0,
6770.47,-6.90491,1.13068,0,8.16771,263,0,
6770.47,-6.87347,1.12915,0,8.16771,263,0,
6770.47,-6.84204,1.1322,0,8.16771,263,0,
6770.48,-6.80939,1.13068,0,8.16771,263,0,
6770.48,-6.77826,1.13068,0,8.16771,263,0,
6770.48,-6.74591,1.13068,0,8.16771,263,0,
6770.48,-6.71387,1.12915,0,8.16771,263,0,
6770.48,-6.67999,1.12763,0,8.16771,263,0,
6770.49,-6.64764,1.12915,0,8.16771,263,0,
6770.49,-6.61591,1.13068,0,8.16771,263,0,
6770.49,-6.58234,1.13373,0,8.16771,263,0,
6770.49,-6.54846,1.12915,0,8.16771,263,0,
6770.49,-6.51611,1.13068,0,8.16771,263,0,
6770.5,-6.48163,1.1322,0,8.16771,263,0,
6770.5,-6.44928,1.12763,0,8.16771,263,0,
6770.5,-6.4151,1.1261,0,8.16771,263,0,
6770.5,-6.38092,1.1322,0,8.16771,263,0,
6770.5,-6.34613,1.12915,0,8.16771,263,0,
6770.51,-6.31226,1.13068,0,8.16771,263,0,
6770.51,-6.27808,1.13068,0,8.16771,263,0,
6770.51,-6.24359,1.13068,0,8.16771,263,0,
6770.51,-6.20911,1.13068,0,8.16771,263,0,
6770.51,-6.1731,1.1322,0,8.16771,263,0,
6770.52,-6.13892,1.12763,0,8.16771,263,0,
6770.52,-6.1026,1.1322,0,8.16771,263,0,
6770.52,-6.0675,1.12763,0,8.16771,263,0,
6770.52,-6.03424,1.1322,0,8.16771,263,0,
6770.52,-5.99701,1.12915,0,8.16771,263,0,
6770.53,-5.96069,1.13068,0,8.16771,263,0,
6770.53,-5.92682,1.12915,0,8.16771,263,0,
6770.53,-5.89111,1.12763,0,8.16771,263,0,
6770.53,-5.85266,1.1322,0,8.16771,263,0,
6770.53,-5.81879,1.12763,0,8.16771,263,0,
6770.54,-5.78094,1.12915,0,8.16771,263,0,
6770.54,-5.74463,1.13068,0,8.16771,263,0,
6770.54,-5.70984,1.12915,0,8.16771,263,0,
6770.54,-5.67169,1.13525,0,8.16771,263,0,
6770.54,-5.63629,1.12915,0,8.16771,263,0,
6770.55,-5.59723,1.12763,0,8.16771,263,0,
6770.55,-5.56335,1.12915,0,8.16771,263,0,
6770.55,-5.5246,1.12915,0,8.16771,263,0,
6770.55,-5.48462,1.1322,0,8.16771,263,0,
6770.55,-5.45105,1.12915,0,8.16771,263,0,
6770.56,-5.41199,1.1261,0,8.16771,263,0,
6770.56,-5.37445,1.13373,0,8.16771,263,0,
6770.56,-5.33783,1.12915,0,8.16771,263,0,
6770.56,-5.29907,1.1261,0,8.16771,263,0,
6770.56,-5.25909,1.12915,0,8.16771,263,0,
6770.57,-5.22461,1.12915,0,8.16771,263,0,
6770.57,-5.18646,1.13373,0,8.16771,263,0,
6770.57,-5.14679,1.1322,0,8.16771,263,0,
6770.57,-5.10773,1.1322,0,8.16771,263,0,
6770.57,-5.06836,1.12915,0,8.16771,263,0,
6770.58,-5.03082,1.13068,0,8.16771,263,0,
6770.58,-4.99512,1.1322,0,8.16771,263,0,
6770.58,-4.95544,1.13068,0,8.16771,263,0,
6770.58,-4.91791,1.13068,0,8.16771,263,0,
6770.58,-4.87762,1.13068,0,8.16771,263,0,
6770.59,-4.83856,1.1322,0,8.16771,263,0,
6770.59,-4.79919,1.12915,0,8.16771,263,0,
6770.59,-4.75952,1.12,0,8.16771,263,0,
6770.59,-4.72107,1.11542,0,8.16771,263,0,
6770.59,-4.68231,1.11847,0,8.16771,263,0,
6770.6,-4.64203,1.11847,0,8.16771,263,0,
6770.6,-4.60297,1.12,0,8.16771,263,0,
6770.6,-4.56451,1.11847,0,8.16771,263,0,
6770.6,-4.52454,1.12,0,8.16771,263,0,
6770.6,-4.48578,1.11694,0,8.16771,263,0,
6770.61,-4.44702,1.11694,0,8.16771,263,0,
6770.61,-4.40186,1.12,0,8.16771,263,0,
6770.61,-4.3634,1.11542,0,8.16771,263,0,
6770.61,-4.32465,1.12,0,8.16771,263,0,
6770.61,-4.28497,1.11389,0,8.16771,263,0,
6770.62,-4.24561,1.11847,0,8.16771,263,0,
6770.62,-4.20654,1.11847,0,8.16771,263,0,
6770.62,-4.16656,1.11694,0,8.16771,263,0,
6770.62,-4.12354,1.11542,0,8.16771,263,0,
6770.62,-4.08356,1.12152,0,8.16771,263,0,
6770.63,-4.04449,1.12,0,8.16771,263,0,
6770.63,-4.00543,1.11389,0,8.16771,263,0,
6770.63,-3.96576,1.11847,0,8.16771,263,0,
6770.63,-3.92181,1.11542,0,8.16771,263,0,
6770.63,-3.88275,1.11694,0,8.16771,263,0,
6770.64,-3.84369,1.12,0,8.16771,263,0,
6770.64,-3.80402,1.11694,0,8.16771,263,0,
6770.64,-3.76465,1.11847,0,8.16771,263,0,
6770.64,-3.72162,1.11694,0,8.16771,263,0,
6770.64,-3.68195,1.11694,0,8.16771,263,0,
6770.65,-3.64258,1.11542,0,8.16771,263,0,
6770.65,-3.60352,1.12,0,8.16771,263,0,
6770.65,-3.56445,1.11847,0,8.16771,263,0,
6770.65,-3.5199,1.11694,0,8.16771,263,0,
6770.65,-3.48053,1.12152,0,8.16771,263,0,
6770.66,-3.44238,1.12,0,8.16771,263,0,
6770.66,-3.40302,1.11542,0,8.16771,263,0,
6770.66,-3.36304,1.11847,0,8.16771,263,0,
6770.66,-3.31879,1.11847,0,8.16771,263,0,
6770.66,-3.28033,1.11847,0,8.16771,263,0,
6770.67,-3.24097,1.11847,0,8.16771,263,0,
6770.67,-3.20129,1.11694,0,8.16771,263,0,
6770.67,-3.16315,1.12152,0,8.16771,263,0,
6770.67,-3.1192,1.11847,0,8.16771,263,0,
6770.67,-3.07861,1.11694,0,8.16771,263,0,
6770.68,-3.03955,1.11847,0,8.16771,263,0,
6770.68,-3.0011,1.11847,0,8.16771,263,0,
6770.68,-2.96204,1.11847,0,8.16771,263,0,
6770.68,-2.92267,1.12,0,8.16771,263,0,
6770.68,-2.88361,1.12,0,8.16771,263,0,
6770.69,-2.83844,1.11847,0,8.16771,263,0,
6770.69,-2.79968,1.11694,0,8.16771,263,0,
6770.69,-2.76154,1.11847,0,8.16771,263,0,
6770.69,-2.72156,1.11694,0,8.16771,263,0,
6770.69,-2.68219,1.11542,0,8.16771,263,0,
6770.7,-2.64374,1.11542,0,8.16771,263,0,
6770.7,-2.60345,1.11847,0,8.16771,263,0,
6770.7,-2.56409,1.12,0,8.16771,263,0,
6770.7,-2.52075,1.10931,0,8.16771,263,0,
6770.7,-2.48199,1.10474,0,8.16771,263,0,
6770.71,-2.44202,1.10474,0,8.16771,263,0,
6770.71,-2.40326,1.10474,0,8.16771,263,0,
6770.71,-2.3642,1.10626,0,8.16771,263,0,
6770.71,-2.32513,1.10779,0,8.16771,263,0,
6770.71,-2.28607,1.10474,0,8.16771,263,0,
6770.72,-2.2467,1.10626,0,8.16771,263,0,
6770.72,-2.20764,1.10626,0,8.16771,263,0,
6770.72,-2.16766,1.10626,0,8.16771,263,0,
6770.72,-2.12891,1.10474,0,8.16771,263,0,
6770.72,-2.08984,1.10626,0,8.16771,263,0,
6770.73,-2.05078,1.10474,0,8.16771,263,0,
6770.73,-2.01111,1.10321,0,8.16771,263,0,
6770.73,-1.97266,1.10474,0,8.16771,263,0,
6770.73,-1.93329,1.10474,0,8.16771,263,0,
6770.73,-1.89453,1.10779,0,8.16771,263,0,
6770.74,-1.85425,1.10626,0,8.16771,263,0,
6770.74,-1.81549,1.10474,0,8.16771,263,0,
6770.74,-1.77551,1.10321,0,8.16771,263,0,
6770.74,-1.73676,1.10474,0,8.16771,263,0,
6770.74,-1.69861,1.12152,0,8.16771,263,0,
6770.75,-1.65863,1.12,0,8.16771,263,0,
6770.75,-1.61957,1.11694,0,8.16771,263,0,
6770.75,-1.57959,1.11694,0,8.16771,263,0,
6770.75,-1.54572,1.11847,0,8.16771,263,0,
6770.75,-1.50635,1.11847,0,8.16771,263,0,
6770.76,-1.46759,1.11847,0,8.16771,263,0,
6770.76,-1.42792,1.11847,0,8.16771,263,0,
6770.76,-1.38947,1.12152,0,8.16771,263,0,
6770.76,-1.35376,1.12,0,8.16771,263,0,
6770.76,-1.31531,1.11847,0,8.16771,263,0,
6770.77,-1.27625,1.12305,0,8.16771,263,0,
6770.77,-1.23749,1.11847,0,8.16771,263,0,
6770.77,-1.20239,1.11847,0,8.16771,263,0,
6770.77,-1.16425,1.12,0,8.16771,263,0,
6770.77,-1.12457,1.11847,0,8.16771,263,0,
6770.78,-1.08765,1.11847,0,8.16771,263,0,
6770.78,-1.05072,1.11847,0,8.16771,263,0,
6770.78,-1.01166,1.11694,0,8.16771,263,0,
6770.78,-0.976562,1.12,0,8.16771,263,0,
6770.78,-0.938416,1.12152,0,8.16771,263,0,
6770.79,-0.901184,1.12305,0,8.16771,263,0,
6770.79,-0.865784,1.11847,0,8.16771,263,0,
6770.79,-0.8255,1.11847,0,8.16771,263,0,
6770.79,-0.79071,1.11694,0,8.16771,263,0,
6770.79,-0.751953,1.11847,0,8.16771,263,0,
6770.8,-0.718079,1.11847,0,8.16771,263,0,
6770.8,-0.680847,1.11847,0,8.16771,263,0,
6770.8,-0.644226,1.12152,0,8.16771,263,0,
6770.8,-0.609131,1.11694,0,8.16771,263,0,
6770.8,-0.570374,1.11694,0,8.16771,263,0,
6770.81,-0.536194,1.11694,0,8.16771,263,0,
6770.81,-0.501099,1.11694,0,8.16771,263,0,
6770.81,-0.462952,1.11847,0,8.16771,263,0,
6770.81,-0.429077,1.12,0,8.16771,263,0,
6770.81,-0.394592,1.11694,0,8.16771,263,0,
6770.82,-0.357056,1.11847,0,8.16771,263,0,
6770.82,-0.320435,1.12152,0,8.16771,263,0,
6770.82,-0.286865,1.11694,0,8.16771,263,0,
6770.82,-0.25177,1.11847,0,8.16771,263,0,
6770.82,-0.217896,1.11847,0,8.16771,263,0,
6770.83,-0.183105,1.11847,0,8.16771,263,0,
6770.83,-0.148621,1.12152,0,8.16771,263,0,
6770.83,-0.114441,1.12152,0,8.16771,263,0,
6770.83,-0.0799561,1.11847,0,8.16771,263,0,
6770.83,-0.0457764,1.12,0,8.16771,263,0,
6770.84,-0.0115967,1.12,0,8.16771,263,0,
6770.84,0.0228882,1.11694,0,8.16771,263,0,
6770.84,0.0561523,1.11847,0,8.16771,263,0,
6770.84,0.0909424,1.11847,0,8.16771,263,0,
6770.84,0.122681,1.11694,0,8.16771,263,0,
6770.85,0.155029,1.11694,0,8.16771,263,0,
6770.85,0.189514,1.11847,0,8.16771,263,0,
6770.85,0.223389,1.12,0,8.16771,263,0,
6770.85,0.255432,1.12,0,8.16771,263,0,
6770.85,0.288086,1.11542,0,8.16771,263,0,
6770.86,0.32074,1.11694,0,8.16771,263,0,
6770.86,0.353394,1.11694,0,8.16771,263,0,
6770.86,0.385742,1.11847,0,8.16771,263,0,
6770.86,0.418091,1.11542,0,8.16771,263,0,
6770.86,0.449524,1.11694,0,8.16771,263,0,
6770.87,0.480652,1.11389,0,8.16771,263,0,
6770.87,0.512695,1.11847,0,8.16771,263,0,
6770.87,0.544739,1.11694,0,8.16771,263,0,
6770.87,0.574341,1.12152,0,8.16771,263,0,
6770.87,0.606384,1.11694,0,8.16771,263,0,
6770.88,0.638123,1.11542,0,8.16771,263,0,
6770.88,0.667725,1.11542,0,8.16771,263,0,
6770.88,0.697632,1.11694,0,8.16771,263,0,
6770.88,0.72876,1.12,0,8.16771,263,0,
6770.88,0.758057,1.1261,0,8.16771,263,0,
6770.89,0.78949,1.12915,0,8.16771,263,0,
6770.89,0.819397,1.12915,0,8.16771,263,0,
6770.89,0.848999,1.1322,0,8.16771,263,0,
6770.89,0.877991,1.12915,0,8.16771,263,0,
6770.89,0.907898,1.12915,0,8.16771,263,0,
6770.9,0.9375,1.12763,0,8.16771,263,0,
6770.9,0.965576,1.1322,0,8.16771,263,0,
6770.9,0.995483,1.12915,0,8.16771,263,0,
6770.9,1.02325,1.13068,0,8.16771,263,0,
6770.9,1.05194,1.12763,0,8.16771,263,0,
6770.91,1.07941,1.12763,0,8.16771,263,0,
6770.91,1.1084,1.13068,0,8.16771,263,0,
6770.91,1.13525,1.1322,0,8.16771,263,0,
6770.91,1.16486,1.12763,0,8.16771,263,0,
6770.91,1.1908,1.1322,0,8.16771,263,0,
6770.92,1.21887,1.13068,0,8.16771,263,0,
6770.92,1.24634,1.12915,0,8.16771,263,0,
6770.92,1.27472,1.13373,0,8.16771,263,0,
6770.92,1.30005,1.13373,0,8.16771,263,0,
6770.92,1.3266,1.12915,0,8.16771,263,0,
6770.93,1.35468,1.12915,0,8.16771,263,0,
6770.93,1.38062,1.13068,0,8.16771,263,0,
6770.93,1.40717,1.12915,0,8.16771,263,0,
6770.93,1.4325,1.13068,0,8.16771,263,0,
6770.93,1.45874,1.13525,0,8.16771,263,0,
6770.94,1.48376,1.13068,0,8.16771,263,0,
6770.94,1.51093,1.13373,0,8.16771,263,0,
6770.94,1.53534,1.13068,0,8.16771,263,0,
6770.94,1.55914,1.13373,0,8.16771,263,0,
6770.94,1.58508,1.13525,0,8.16771,263,0,
6770.95,1.60889,1.12915,0,8.16771,263,0,
6770.95,1.633,1.12763,0,8.16771,263,0,
6770.95,1.65741,1.12915,0,8.16771,263,0,
6770.95,1.68213,1.14441,0,8.16771,263,0,
6770.95,1.70746,1.14136,0,8.16771,263,0,
6770.96,1.73218,1.14288,0,8.16771,263,0,
6770.96,1.75537,1.14288,0,8.16771,263,0,
6770.96,1.77917,1.14288,0,8.16771,263,0,
6770.96,1.80084,1.14441,0,13.7426,263,0,
6770.96,1.82434,1.14288,0,13.7426,263,0,
6770.97,1.84937,1.14288,0,13.7426,263,0,
6770.97,1.87103,1.13983,0,13.7426,263,0,
6770.97,1.89301,1.14288,0,13.7426,263,0,
6770.97,1.9165,1.14288,0,13.7426,263,0,
6770.97,1.93695,1.14441,0,13.7426,263,0,
6770.98,1.96106,1.14288,0,13.7426,263,0,
6770.98,1.9812,1.14441,0,13.7426,263,0,
6770.98,2.0047,1.14136,0,13.7426,263,0,
6770.98,2.02545,1.14288,0,13.7426,263,0,
6770.98,2.04529,1.13983,0,13.7426,263,0,
6770.99,2.0694,1.14594,0,13.7426,263,0,
6770.99,2.08954,1.14136,0,13.7426,263,0,
6770.99,2.10876,1.14288,0,13.7426,263,0,
6770.99,2.13318,1.14136,0,13.7426,263,0,
6770.99,2.15332,1.13983,0,13.7426,263,0,
6771,2.17255,1.14136,0,13.7426,263,0,
6771,2.19177,1.14441,0,13.7426,263,0,
6771,2.211,1.14441,0,13.7426,263,0,
6771,2.23053,1.14441,0,13.7426,263,0,
6771,2.25037,1.14288,0,13.7426,263,0,
6771.01,2.2702,1.13831,0,13.7426,263,0,
6771.01,2.29034,1.14288,0,13.7426,263,0,
6771.01,2.30957,1.13983,0,13.7426,263,0,
6771.01,2.33002,1.14594,0,13.7426,263,0,
6771.01,2.34924,1.13983,0,13.7426,263,0,
6771.02,2.36847,1.14288,0,13.7426,263,0,
6771.02,2.388,1.14136,0,13.7426,263,0,
6771.02,2.40234,1.14288,0,13.7426,263,0,
6771.02,2.4231,1.14136,0,13.7426,263,0,
6771.02,2.44171,1.13831,0,13.7426,263,0,
6771.03,2.45789,1.15509,0,13.7426,263,0,
6771.03,2.4765,1.15051,0,13.7426,263,0,
6771.03,2.49603,1.15814,0,13.7426,263,0,
6771.03,2.51099,1.15814,0,13.7426,263,0,
6771.03,2.5296,1.15204,0,13.7426,263,0,
6771.04,2.54578,1.15051,0,13.7426,263,0,
6771.04,2.56439,1.15357,0,13.7426,263,0,
6771.04,2.57965,1.15662,0,13.7426,263,0,
6771.04,2.59888,1.15509,0,13.7426,263,0,
6771.04,2.61261,1.15509,0,13.7426,263,0,
6771.05,2.63062,1.15814,0,13.7426,263,0,
6771.05,2.6474,1.15662,0,13.7426,263,0,
6771.05,2.66266,1.15662,0,13.7426,263,0,
6771.05,2.67792,1.15509,0,13.7426,263,0,
6771.05,2.69409,1.15509,0,13.7426,263,0,
6771.06,2.71088,1.15509,0,13.7426,263,0,
6771.06,2.72614,1.15204,0,13.7426,263,0,
6771.06,2.74048,1.15357,0,13.7426,263,0,
6771.06,2.75635,1.15509,0,13.7426,263,0,
6771.06,2.77069,1.15509,0,13.7426,263,0,
6771.07,2.78595,1.15357,0,13.7426,263,0,
6771.07,2.8009,1.15662,0,13.7426,263,0,
6771.07,2.81555,1.15357,0,13.7426,263,0,
6771.07,2.8299,1.15814,0,13.7426,263,0,
6771.07,2.84454,1.15357,0,13.7426,263,0,
6771.08,2.8598,1.15662,0,13.7426,263,0,
6771.08,2.87384,1.15509,0,13.7426,263,0,
6771.08,2.88849,1.15814,0,13.7426,263,0,
6771.08,2.90283,1.15662,0,13.7426,263,0,
6771.08,2.91656,1.15662,0,13.7426,263,0,
6771.09,2.92877,1.15204,0,13.7426,263,0,
6771.09,2.94281,1.15509,0,13.7426,263,0,
6771.09,2.95715,1.15662,0,13.7426,263,0,
6771.09,2.97058,1.15357,0,13.7426,263,0,
6771.09,2.98187,1.15509,0,13.7426,263,0,
6771.1,2.99469,1.15509,0,13.7426,263,0,
6771.1,3.00598,1.15509,0,13.7426,263,0,
6771.1,3.02002,1.15662,0,13.7426,263,0,
6771.1,3.03314,1.15357,0,13.7426,263,0,
6771.1,3.04443,1.15662,0,13.7426,263,0,
6771.11,3.05695,1.15814,0,13.7426,263,0,
6771.11,3.06885,1.15204,0,13.7426,263,0,
6771.11,3.07983,1.15662,0,13.7426,263,0,
6771.11,3.09174,1.15814,0,13.7426,263,0,
6771.11,3.10333,1.15509,0,13.7426,263,0,
6771.12,3.11584,1.15357,0,13.7426,263,0,
6771.12,3.12622,1.15662,0,13.7426,263,0,
6771.12,3.13812,1.15509,0,13.7426,263,0,
6771.12,3.14819,1.15204,0,13.7426,263,0,
6771.12,3.1601,1.15357,0,13.7426,263,0,
6771.13,3.16956,1.15204,0,13.7426,263,0,
6771.13,3.18176,1.15509,0,13.7426,263,0,
6771.13,3.19153,1.15509,0,13.7426,263,0,
6771.13,3.2019,1.15357,0,13.7426,263,0,
6771.13,3.21167,1.15509,0,13.7426,263,0,
6771.14,3.22205,1.15051,0,13.7426,263,0,
6771.14,3.23425,1.15662,0,13.7426,263,0,
6771.14,3.24341,1.15509,0,13.7426,263,0,
6771.14,3.25348,1.15662,0,13.7426,263,0,
6771.14,3.26294,1.15509,0,13.7426,263,0,
6771.15,3.27057,1.15204,0,13.7426,263,0,
6771.15,3.28033,1.15509,0,13.7426,263,0,
6771.15,3.29102,1.15204,0,13.7426,263,0,
6771.15,3.30017,1.15357,0,13.7426,263,0,
6771.15,3.30933,1.15509,0,13.7426,263,0,
6771.16,3.31635,1.15509,0,13.7426,263,0,
6771.16,3.32642,1.14746,0,13.7426,263,0,
6771.16,3.33405,1.13983,0,13.7426,263,0,
6771.16,3.34412,1.14136,0,13.7426,263,0,
6771.16,3.35052,1.14136,0,13.7426,263,0,
6771.17,3.3609,1.14288,0,13.7426,263,0,
6771.17,3.36853,1.13983,0,13.7426,263,0,
6771.17,3.37646,1.13983,0,13.7426,263,0,
6771.17,3.38593,1.14288,0,13.7426,263,0,
6771.17,3.39355,1.14441,0,13.7426,263,0,
6771.18,3.39996,1.14441,0,13.7426,263,0,
6771.18,3.40851,1.14288,0,13.7426,263,0,
6771.18,3.41522,1.13831,0,13.7426,263,0,
6771.18,3.42285,1.14288,0,13.7426,263,0,
6771.18,3.43048,1.14441,0,13.7426,263,0,
6771.19,3.43719,1.14288,0,13.7426,263,0,
6771.19,3.44452,1.14288,0,13.7426,263,0,
6771.19,3.45154,1.14288,0,13.7426,263,0,
6771.19,3.45917,1.14441,0,13.7426,263,0,
6771.19,3.46436,1.14441,0,13.7426,263,0,
6771.2,3.47137,1.14441,0,13.7426,263,0,
6771.2,3.4787,1.14136,0,13.7426,263,0,
6771.2,3.48419,1.14594,0,13.7426,263,0,
6771.2,3.49152,1.14136,4.366,13.7426,263,0,
6771.2,3.49854,1.14136,4.366,13.7426,263,0,
6771.21,3.5025,1.14288,4.366,13.7426,263,0,
6771.21,3.50922,1.13831,4.366,13.7426,263,0,
6771.21,3.51379,1.14288,4.366,13.7426,263,0,
6771.21,3.52081,1.14288,4.366,13.7426,263,0,
6771.21,3.52814,1.14288,4.366,13.7426,263,0,
6771.22,3.53271,1.14288,4.366,13.7426,263,0,
6771.22,3.5376,1.13983,4.366,13.7426,263,0,
6771.22,3.54279,1.14288,4.366,13.7426,263,0,
6771.22,3.54797,1.14288,4.366,13.7426,263,0,
6771.22,3.55316,1.14136,4.366,13.7426,263,0,
6771.23,3.55804,1.14288,4.366,13.7426,263,0,
6771.23,3.56262,1.14136,4.366,13.7426,263,0,
6771.23,3.56842,1.14288,4.366,13.7426,263,0,
6771.23,3.57269,1.14441,4.366,13.7426,263,0,
6771.23,3.57727,1.14136,4.366,13.7426,263,0,
6771.24,3.58276,1.14288,4.366,13.7426,263,0,
6771.24,3.58673,1.14288,4.366,13.7426,263,0,
6771.24,3.59131,1.14441,4.366,13.7426,263,0,
6771.24,3.5965,1.14594,4.366,13.7426,263,0,
6771.24,3.59894,1.14441,4.366,13.7426,263,0,
6771.25,3.60229,1.14594,4.366,13.7426,263,0,
6771.25,3.60687,1.14441,4.366,13.7426,263,0,
6771.25,3.61145,1.14136,4.366,13.7426,263,0,
6771.25,3.61542,1.14136,4.366,13.7426,263,0,
6771.25,3.61877,1.13983,4.366,13.7426,263,0,
6771.26,3.62091,1.14136,4.366,13.7426,263,0,
6771.26,3.62701,1.14288,4.366,13.7426,263,0,
6771.26,3.63068,1.14441,4.366,13.7426,263,0,
6771.26,3.63098,1.13831,4.366,13.7426,263,0,
6771.26,3.63586,1.14594,4.366,13.7426,263,0,
6771.27,3.64044,1.14288,4.366,13.7426,263,0,
6771.27,3.64105,1.14288,4.366,13.7426,263,0,
6771.27,3.64624,1.14441,4.366,13.7426,263,0,
6771.27,3.64624,1.14136,4.366,13.7426,263,0,
6771.27,3.65112,1.14136,4.366,13.7426,263,0,
6771.28,3.65295,1.14136,4.366,13.7426,263,0,
6771.28,3.6554,1.13983,4.366,13.7426,263,0,
6771.28,3.65753,1.14594,4.366,13.7426,263,0,
6771.28,3.66089,1.14136,4.366,13.7426,263,0,
6771.28,3.66272,1.14136,4.366,13.7426,263,0,
6771.29,3.66608,1.14441,4.366,13.7426,263,0,
6771.29,3.66608,1.14136,4.366,13.7426,263,0,
6771.29,3.67065,1.14441,4.366,13.7426,263,0,
6771.29,3.67065,1.14441,4.366,13.7426,263,0,
6771.29,3.67279,1.14136,4.366,13.7426,263,0,
6771.3,3.67554,1.14288,4.366,13.7426,263,0,
6771.3,3.67554,1.14136,4.366,13.7426,263,0,
6771.3,3.6795,1.14288,4.366,13.7426,263,0,
6771.3,3.68103,1.14136,4.366,13.7426,263,0,
6771.3,3.67981,1.14594,4.366,13.7426,263,0,
6771.31,3.68073,1.14136,4.366,13.7426,263,0,
6771.31,3.68561,1.14136,4.366,13.7426,263,0,
6771.31,3.68469,1.14136,4.366,13.7426,263,0,
6771.31,3.68561,1.13983,4.366,13.7426,263,0,
6771.31,3.6853,1.14288,4.366,13.7426,263,0,
6771.32,3.68958,1.14441,4.366,13.7426,263,0,
6771.32,3.69019,1.13983,4.366,13.7426,263,0,
6771.32,3.68988,1.14288,4.366,13.7426,263,0,
6771.32,3.69049,1.14288,4.366,13.7426,263,0,
6771.32,3.68988,1.14136,4.366,13.7426,263,0,
6771.33,3.69049,1.14136,4.366,13.7426,263,0,
6771.33,3.68988,1.14441,4.366,13.7426,263,0,
6771.33,3.69049,1.14288,4.366,13.7426,263,0,
6771.33,3.69568,1.14136,4.366,13.7426,263,0,
6771.33,3.69568,1.14594,4.366,13.7426,263,0,
6771.34,3.69507,1.14136,4.366,13.7426,263,0,
6771.34,3.69537,1.14441,4.366,13.7426,263,0,
6771.34,3.69537,1.13983,4.366,13.7426,263,0,
6771.34,3.69537,1.15204,4.366,13.7426,263,0,
6771.34,3.69507,1.15204,4.366,13.7426,263,0,
6771.35,3.69537,1.15509,4.366,13.7426,263,0,
6771.35,3.69537,1.15509,4.366,13.7426,263,0,
6771.35,3.69537,1.15357,4.366,13.7426,263,0,
6771.35,3.69141,1.15051,4.366,13.7426,263,0,
6771.35,3.69049,1.15509,4.366,13.7426,263,0,
6771.36,3.69019,1.15357,4.366,13.7426,263,0,
6771.36,3.68988,1.15357,4.366,13.7426,263,0,
6771.36,3.69019,1.15662,4.366,13.7426,263,0,
6771.36,3.68988,1.15814,4.366,13.7426,263,0,
6771.36,3.68988,1.15662,4.366,13.7426,263,0,
6771.37,3.68988,1.15509,4.366,13.7426,263,0,
6771.37,3.68591,1.15204,4.366,13.7426,263,0,
6771.37,3.68561,1.15357,4.366,13.7426,263,0,
6771.37,3.68591,1.15357,4.366,13.7426,263,0,
6771.37,3.685,1.15357,4.366,13.7426,263,0,
6771.38,3.6853,1.15814,4.366,13.7426,263,0,
6771.38,3.68103,1.15357,4.366,13.7426,263,0,
6771.38,3.67981,1.15662,4.366,13.7426,263,0,
6771.38,3.68011,1.15357,4.366,13.7426,263,0,
6771.38,3.67981,1.15357,4.366,13.7426,263,0,
6771.39,3.67584,1.15357,4.366,13.7426,263,0,
6771.39,3.67523,1.15662,4.366,13.7426,263,0,
6771.39,3.67523,1.15509,4.366,13.7426,263,0,
6771.39,3.67401,1.15662,4.366,13.7426,263,0,
6771.39,3.67065,1.15357,4.366,13.7426,263,0,
6771.4,3.67065,1.15357,4.366,13.7426,263,0,
6771.4,3.66882,1.15509,4.366,13.7426,263,0,
6771.4,3.66577,1.15509,4.366,13.7426,263,0,
6771.4,3.66547,1.15814,4.366,13.7426,263,0,
6771.4,3.6615,1.15357,4.366,13.7426,263,0,
6771.41,3.65997,1.15357,4.366,13.7426,263,0,
6771.41,3.66058,1.15204,4.366,13.7426,263,0,
6771.41,3.6557,1.15509,4.366,13.7426,263,0,
6771.41,3.65662,1.15509,4.366,13.7426,263,0,
6771.41,3.6554,1.15814,4.366,13.7426,263,0,
6771.42,3.65143,1.15509,4.366,13.7426,263,0,
6771.42,3.65112,1.15357,4.366,13.7426,263,0,
6771.42,3.64624,1.15509,4.366,13.7426,263,0,
6771.42,3.64594,1.15509,4.366,13.7426,263,0,
6771.42,3.64166,1.15357,4.366,13.7426,263,0,
6771.43,3.64166,1.15509,4.366,13.7426,263,0,
6771.43,3.63647,1.15357,4.366,13.7426,263,0,
6771.43,3.63647,1.15509,4.366,13.7426,263,0,
6771.43,3.6319,1.15204,4.366,13.7426,263,0,
6771.43,3.63098,1.15662,4.366,13.7426,263,0,
6771.44,3.62701,1.15051,4.366,13.7426,263,0,
6771.44,3.6261,1.15814,4.366,13.7426,263,0,
6771.44,3.62183,1.15357,4.366,13.7426,263,0,
6771.44,3.62152,1.15204,4.366,13.7426,263,0,
6771.44,3.61694,1.15509,4.366,13.7426,263,0,
6771.45,3.61694,1.15509,4.366,13.7426,263,0,
6771.45,3.61176,1.15509,4.366,13.7426,263,0,
6771.45,3.61145,1.15509,4.366,13.7426,263,0,
6771.45,3.60687,1.15814,4.366,13.7426,263,0,
6771.45,3.60474,1.15357,4.366,13.7426,263,0,
6771.46,3.60199,1.15357,4.366,13.7426,263,0,
6771.46,3.59772,1.15509,4.366,13.7426,263,0,
6771.46,3.59711,1.15509,4.366,13.7426,263,0,
6771.46,3.59253,1.15509,4.366,13.7426,263,0,
6771.46,3.59009,1.15509,4.366,13.7426,263,0,
6771.47,3.58734,1.15357,4.366,13.7426,263,0,
6771.47,3.58307,1.15357,4.366,13.7426,263,0,
6771.47,3.58246,1.15662,4.366,13.7426,263,0,
6771.47,3.57697,1.15509,4.366,13.7426,263,0,
6771.47,3.57361,1.15662,4.366,13.7426,263,0,
6771.48,3.57208,1.15357,4.366,13.7426,263,0,
6771.48,3.56781,1.15357,4.366,13.7426,263,0,
6771.48,3.56598,1.15357,4.366,13.7426,263,0,
6771.48,3.56293,1.15357,4.366,13.7426,263,0,
6771.48,3.55804,1.15357,4.366,13.7426,263,0,
6771.49,3.55591,1.15662,4.366,13.7426,263,0,
6771.49,3.55347,1.15509,4.366,13.7426,263,0,
6771.49,3.54797,1.15357,4.366,13.7426,263,0,
6771.49,3.54645,1.15509,4.366,13.7426,263,0,
6771.49,3.54309,1.15357,4.366,13.7426,263,0,
6771.5,3.53882,1.15357,4.366,13.7426,263,0,
6771.5,3.53455,1.15509,4.366,13.7426,263,0,
6771.5,3.53333,1.15357,4.366,13.7426,263,0,
6771.5,3.52905,1.15204,4.366,13.7426,263,0,
6771.5,3.52478,1.15509,4.366,13.7426,263,0,
6771.51,3.52173,1.15357,4.366,13.7426,263,0,
6771.51,3.51837,1.15509,4.366,13.7426,263,0,
6771.51,3.5144,1.15357,4.366,13.7426,263,0,
6771.51,3.51196,1.15357,4.366,13.7426,263,0,
6771.51,3.50922,1.15357,4.366,13.7426,263,0,
6771.52,3.50342,1.15662,4.366,13.7426,263,0,
6771.52,3.49915,1.15357,4.366,13.7426,263,0,
6771.52,3.4967,1.15509,4.366,13.7426,263,0,
6771.52,3.49426,1.15204,4.366,13.7426,263,0,
6771.52,3.48938,1.15509,4.366,13.7426,263,0,
6771.53,3.48541,1.15662,4.366,13.7426,263,0,
6771.53,3.48267,1.15509,4.366,13.7426,263,0,
6771.53,3.47961,1.15814,4.366,13.7426,263,0,
6771.53,3.47412,1.15357,4.366,13.7426,263,0,
6771.53,3.47046,1.15662,4.366,13.7426,263,0,
6771.54,3.46771,1.15509,4.366,13.7426,263,0,
6771.54,3.46497,1.15204,4.366,13.7426,263,0,
6771.54,3.46039,1.15509,4.366,13.7426,263,0,
6771.54,3.45551,1.15509,4.366,13.7426,263,0,
6771.54,3.45062,1.15509,4.366,13.7426,263,0,
6771.55,3.44849,1.15051,4.366,13.7426,263,0,
6771.55,3.44452,1.15357,4.366,13.7426,263,0,
6771.55,3.44086,1.15204,4.366,13.7426,263,0,
6771.55,3.43536,1.15662,4.366,13.7426,263,0,
6771.55,3.4314,1.15509,4.366,13.7426,263,0,
6771.56,3.42896,1.15357,4.366,13.7426,263,0,
6771.56,3.4259,1.15509,4.366,13.7426,263,0,
6771.56,3.42072,1.15509,4.366,13.7426,263,0,
6771.56,3.41644,1.15509,4.366,13.7426,263,0,
6771.56,3.41217,1.15357,4.366,13.7426,263,0,
6771.57,3.40881,1.15204,4.366,13.7426,263,0,
6771.57,3.40637,1.15204,4.366,13.7426,263,0,
6771.57,3.40118,1.15357,4.366,13.7426,263,0,
6771.57,3.396,1.15357,4.366,13.7426,263,0,
6771.57,3.39233,1.15509,4.366,13.7426,263,0,
6771.58,3.3902,1.15357,4.366,13.7426,263,0,
6771.58,3.38654,1.15509,4.366,13.7426,263,0,
6771.58,3.38104,1.15509,4.366,13.7426,263,0,
6771.58,3.37646,1.15662,4.366,13.7426,263,0,
6771.58,3.37189,1.15204,4.366,13.7426,263,0,
6771.59,3.36761,1.15509,4.366,13.7426,263,0,
6771.59,3.36487,1.15204,4.366,13.7426,263,0,
6771.59,3.36182,1.15509,4.366,13.7426,263,0,
6771.59,3.35754,1.15509,4.366,13.7426,263,0,
6771.59,3.35266,1.15204,4.366,13.7426,263,0,
6771.6,3.34778,1.15509,4.366,13.7426,263,0,
6771.6,3.3432,1.15357,4.366,13.7426,263,0,
6771.6,3.33832,1.15357,4.366,13.7426,263,0,
6771.6,3.33557,1.15509,4.366,13.7426,263,0,
6771.6,3.33252,1.15814,4.366,13.7426,263,0,
6771.61,3.32764,1.15509,4.366,13.7426,263,0,
6771.61,3.32306,1.15662,4.366,13.7426,263,0,
6771.61,3.31757,1.15662,4.366,13.7426,263,0,
6771.61,3.3136,1.15509,4.366,13.7426,263,0,
6771.61,3.30872,1.15509,4.366,13.7426,263,0,
6771.62,3.30627,1.15509,4.366,13.7426,263,0,
6771.62,3.30292,1.15204,4.366,13.7426,263,0,
6771.62,3.29865,1.15662,4.366,13.7426,263,0,
6771.62,3.29315,1.15509,4.366,13.7426,263,0,
6771.62,3.28827,1.15662,4.366,13.7426,263,0,
6771.63,3.284,1.15357,4.366,13.7426,263,0,
6771.63,3.27972,1.15357,4.366,13.7426,263,0,
6771.63,3.27637,1.15357,4.366,13.7426,263,0,
6771.63,3.27179,1.15509,4.366,13.7426,263,0,
6771.63,3.26935,1.15204,4.366,13.7426,263,0,
6771.64,3.26355,1.15509,4.366,13.7426,263,0,
6771.64,3.25897,1.15204,4.366,13.7426,263,0,
6771.64,3.25378,1.15662,4.366,13.7426,263,0,
6771.64,3.24951,1.15204,4.366,13.7426,263,0,
6771.64,3.24524,1.15662,4.366,13.7426,263,0,
6771.65,3.24005,1.15357,4.366,13.7426,263,0,
6771.65,3.23792,1.15662,4.366,13.7426,263,0,
6771.65,3.23425,1.15357,4.366,13.7426,263,0,
6771.65,3.22968,1.15357,4.366,13.7426,263,0,
6771.65,3.22479,1.15509,4.366,13.7426,263,0,
6771.66,3.2196,1.15357,4.366,13.7426,263,0,
6771.66,3.21533,1.15509,4.366,13.7426,263,0,
6771.66,3.21075,1.15357,4.366,13.7426,263,0,
6771.66,3.20618,1.15357,4.366,13.7426,263,0,
6771.66,3.20374,1.15051,4.366,13.7426,263,0,
6771.67,3.19824,1.15357,4.366,13.7426,263,0,
6771.67,3.19489,1.15662,4.366,13.7426,263,0,
6771.67,3.19031,1.15509,4.366,13.7426,263,0,
6771.67,3.18573,1.15662,4.366,13.7426,263,0,
6771.67,3.18054,1.15509,4.366,13.7426,263,0,
6771.68,3.17566,1.15662,4.366,13.7426,263,0,
6771.68,3.17169,1.17035,4.366,13.7426,263,0,
6771.68,3.16681,1.16882,4.366,13.7426,263,0,
6771.68,3.16193,1.16577,4.366,13.7426,263,0,
6771.68,3.15857,1.16577,4.366,13.7426,263,0,
6771.69,3.1543,1.1673,4.366,13.7426,263,0,
6771.69,3.15186,1.1673,4.366,13.7426,263,0,
6771.69,3.14636,1.16882,4.366,13.7426,263,0,
6771.69,3.1424,1.1673,4.366,13.7426,263,0,
6771.69,3.1369,1.16577,4.366,13.7426,263,0,
6771.7,3.13232,1.16882,4.366,13.7426,263,0,
6771.7,3.12714,1.16577,4.366,13.7426,263,0,
6771.7,3.12286,1.16882,4.366,13.7426,263,0,
6771.7,3.11798,1.1673,4.366,13.7426,263,0,
6771.7,3.11554,1.17035,4.366,13.7426,263,0,
6771.71,3.11035,1.16577,4.366,13.7426,263,0,
6771.71,3.10486,1.16577,4.366,13.7426,263,0,
6771.71,3.10242,1.16882,4.366,13.7426,263,0,
6771.71,3.09814,1.16577,4.366,13.7426,263,0,
6771.71,3.09296,1.1673,4.366,13.7426,263,0,
6771.72,3.08838,1.1673,4.366,13.7426,263,0,
6771.72,3.08319,1.16577,4.366,13.7426,263,0,
6771.72,3.07831,1.16882,4.366,13.7426,263,0,
6771.72,3.07465,1.16577,4.366,13.7426,263,0,
6771.72,3.06885,1.16882,4.366,13.7426,263,0,
6771.73,3.06641,1.1673,4.366,13.7426,263,0,
6771.73,3.06122,1.16425,4.366,13.7426,263,0,
6771.73,3.05634,1.16882,4.366,13.7426,263,0,
6771.73,3.05237,1.1673,4.366,13.7426,263,0,
6771.73,3.0484,1.1673,4.366,13.7426,263,0,
6771.74,3.04321,1.1673,4.366,13.7426,263,0,
6771.74,3.03955,1.16577,4.366,13.7426,263,0,
6771.74,3.03406,1.16882,4.366,13.7426,263,0,
6771.74,3.02856,1.16577,4.366,13.7426,263,0,
6771.74,3.02399,1.16882,4.366,13.7426,263,0,
6771.75,3.02002,1.1673,4.366,13.7426,263,0,
6771.75,3.01575,1.16577,4.366,13.7426,263,0,
6771.75,3.00995,1.1673,4.366,13.7426,263,0,
6771.75,3.00659,1.16577,4.366,13.7426,263,0,
6771.75,3.00323,1.1673,4.366,13.7426,263,0,
6771.76,2.99744,1.16272,4.366,13.7426,263,0,
6771.76,2.99469,1.16882,4.366,13.7426,263,0,
6771.76,2.9895,1.16882,4.366,13.7426,263,0,
6771.76,2.98553,1.16425,4.366,13.7426,263,0,
6771.76,2.98035,1.1673,4.366,13.7426,263,0,
6771.77,2.97516,1.16882,4.366,13.7426,263,0,
6771.77,2.97058,1.1673,4.366,13.7426,263,0,
6771.77,2.96539,1.16272,4.366,13.7426,263,0,
6771.77,2.96082,1.16577,4.366,13.7426,263,0,
6771.77,2.95563,1.1673,4.366,13.7426,263,0,
6771.78,2.95166,1.16577,4.366,13.7426,263,0,
6771.78,2.94647,1.16425,4.366,13.7426,263,0,
6771.78,2.94189,1.16577,4.366,13.7426,263,0,
6771.78,2.93732,1.16882,4.366,13.7426,263,0,
6771.78,2.93243,1.16882,4.366,13.7426,263,0,
6771.79,2.92877,1.17188,4.366,13.7426,263,0,
6771.79,2.92389,1.1673,4.366,13.7426,263,0,
6771.79,2.91992,1.1673,4.366,13.7426,263,0,
6771.79,2.91412,1.1673,4.366,13.7426,263,0,
6771.79,2.90955,1.16577,4.366,13.7426,263,0,
6771.8,2.90436,1.17798,4.366,13.7426,263,0,
6771.8,2.89917,1.18103,4.366,13.7426,263,0,
6771.8,2.89642,1.17798,4.366,13.7426,263,0,
6771.8,2.89154,1.18103,4.366,13.7426,263,0,
6771.8,2.88696,1.18103,4.366,13.7426,263,0,
6771.81,2.88208,1.17951,4.366,13.7426,263,0,
6771.81,2.87689,1.17798,4.366,13.7426,263,0,
6771.81,2.87292,1.17951,4.366,13.7426,263,0,
6771.81,2.86713,1.17798,4.366,13.7426,263,0,
6771.81,2.86255,1.17951,4.366,13.7426,263,0,
6771.82,2.85706,1.17951,4.366,13.7426,263,0,
6771.82,2.85309,1.17951,4.366,13.7426,263,0,
6771.82,2.8479,1.18103,4.366,13.7426,263,0,
6771.82,2.84241,1.17951,4.366,13.7426,263,0,
6771.82,2.83813,1.18103,4.366,13.7426,263,0,
6771.83,2.83356,1.17951,4.366,13.7426,263,0,
6771.83,2.82867,1.17645,4.366,13.7426,263,0,
6771.83,2.82349,1.18103,4.366,13.7426,263,0,
6771.83,2.8186,1.18103,4.366,13.7426,263,0,
6771.83,2.81342,1.17645,4.366,13.7426,263,0,
6771.84,2.80853,1.17951,4.366,13.7426,263,0,
6771.84,2.80457,1.18103,4.366,13.7426,263,0,
6771.84,2.79907,1.17951,4.366,13.7426,263,0,
6771.84,2.7948,1.17951,4.366,13.7426,263,0,
6771.84,2.789,1.18103,4.366,13.7426,263,0,
6771.85,2.78473,1.17951,4.366,13.7426,263,0,
6771.85,2.77863,1.18256,4.366,13.7426,263,0,
6771.85,2.77435,1.17645,4.366,13.7426,263,0,
6771.85,2.76886,1.17798,4.366,13.7426,263,0,
6771.85,2.76398,1.17951,4.366,13.7426,263,0,
6771.86,2.75909,1.18103,4.366,13.7426,263,0,
6771.86,2.75452,1.17951,4.366,13.7426,263,0,
6771.86,2.74719,1.17798,4.366,13.7426,263,0,
6771.86,2.74292,1.17951,4.366,13.7426,263,0,
6771.86,2.73682,1.18256,4.366,13.7426,263,0,
6771.87,2.73315,1.17798,4.366,13.7426,263,0,
6771.87,2.72614,1.17798,4.366,13.7426,263,0,
6771.87,2.72095,1.17951,4.366,13.7426,263,0,
6771.87,2.71606,1.18103,4.366,13.7426,263,0,
6771.87,2.70996,1.18103,4.366,13.7426,263,0,
6771.88,2.70569,1.18103,4.366,13.7426,263,0,
6771.88,2.7005,1.17951,4.366,13.7426,263,0,
6771.88,2.69562,1.18103,4.366,13.7426,263,0,
6771.88,2.6889,1.17951,4.366,13.7426,263,0,
6771.88,2.68341,1.17798,4.366,13.7426,263,0,
6771.89,2.67731,1.18103,4.366,13.7426,263,0,
6771.89,2.67181,1.18103,4.366,13.7426,263,0,
6771.89,2.66602,1.17798,4.366,13.7426,263,0,
6771.89,2.66113,1.18256,4.366,13.7426,263,0,
6771.89,2.65656,1.17798,4.366,13.7426,263,0,
6771.9,2.64923,1.17951,4.366,13.7426,263,0,
6771.9,2.64435,1.17951,4.366,13.7426,263,0,
6771.9,2.63794,1.17493,4.366,13.7426,263,0,
6771.9,2.63306,1.17951,4.366,13.7426,263,0,
6771.9,2.62756,1.18103,4.366,13.7426,263,0,
6771.91,2.62238,1.18256,4.366,13.7426,263,0,
6771.91,2.61505,1.17645,4.366,13.7426,263,0,
6771.91,2.60834,1.17798,4.366,13.7426,263,0,
6771.91,2.60315,1.18103,4.366,13.7426,263,0,
6771.91,2.59674,1.17493,4.366,13.7426,263,0,
6771.92,2.59064,1.18103,4.366,13.7426,263,0,
6771.92,2.58545,1.18256,4.366,13.7426,263,0,
6771.92,2.57904,1.17798,4.366,13.7426,263,0,
6771.92,2.57385,1.17951,4.366,13.7426,263,0,
6771.92,2.56897,1.18103,4.366,13.7426,263,0,
6771.93,2.56165,1.17493,4.366,13.7426,263,0,
6771.93,2.55463,1.17951,4.366,13.7426,263,0,
6771.93,2.54883,1.17951,4.366,13.7426,263,0,
6771.93,2.54242,1.17645,4.366,13.7426,263,0,
6771.93,2.53479,1.17951,4.366,13.7426,263,0,
6771.94,2.53082,1.17951,4.366,13.7426,263,0,
6771.94,2.52441,1.18103,4.366,13.7426,263,0,
6771.94,2.5177,1.18256,4.366,13.7426,263,0,
6771.94,2.51099,1.17798,4.366,13.7426,263,0,
6771.94,2.50519,1.18103,4.366,13.7426,263,0,
6771.95,2.49878,1.18103,4.366,13.7426,263,0,
6771.95,2.49176,1.17645,4.366,13.7426,263,0,
6771.95,2.48566,1.17951,4.366,13.7426,263,0,
6771.95,2.47864,1.17798,4.366,13.7426,263,0,
6771.95,2.47223,1.17645,4.366,13.7426,263,0,
6771.96,2.46704,1.17951,4.366,13.7426,263,0,
6771.96,2.45667,1.17798,4.366,13.7426,263,0,
6771.96,2.45148,1.18103,4.366,13.7426,263,0,
6771.96,2.44476,1.18256,4.366,13.7426,263,0,
6771.96,2.43713,1.17798,4.366,13.7426,263,0,
6771.97,2.43164,1.17951,4.366,13.7426,263,0,
6771.97,2.42249,1.17798,4.366,13.7426,263,0,
6771.97,2.4173,1.17798,4.366,13.7426,263,0,
6771.97,2.41028,1.17798,4.366,13.7426,263,0,
6771.97,2.40204,1.17798,4.366,13.7426,263,0,
6771.98,2.39502,1.18103,4.366,13.7426,263,0,
6771.98,2.38831,1.17798,4.366,13.7426,263,0,
6771.98,2.37946,1.18256,4.366,13.7426,263,0,
6771.98,2.37335,1.17951,4.366,13.7426,263,0,
6771.98,2.36694,1.17951,4.366,13.7426,263,0,
6771.99,2.35901,1.16882,4.366,13.7426,263,0,
6771.99,2.35321,1.16882,4.366,13.7426,263,0,
6771.99,2.34375,1.1673,4.366,13.7426,263,0,
6771.99,2.33795,1.16425,4.366,13.7426,263,0,
6771.99,2.3291,1.1673,4.366,13.7426,263,0,
6772,2.32361,1.16882,4.366,13.7426,263,0,
6772,2.31445,1.16577,4.366,13.7426,263,0,
6772,2.30896,1.16882,4.366,13.7426,263,0,
6772,2.2995,1.16882,4.366,13.7426,263,0,
6772,2.29431,1.16577,4.366,13.7426,263,0,
6772.01,2.28455,1.16577,4.366,13.7426,263,0,
6772.01,2.27722,1.16577,4.366,13.7426,263,0,
6772.01,2.2699,1.16577,4.366,13.7426,263,0,
6772.01,2.26318,1.17188,4.366,13.7426,263,0,
6772.01,2.25525,1.1673,4.366,13.7426,263,0,
6772.02,2.24762,1.1673,4.366,13.7426,263,0,
6772.02,2.2406,1.16577,4.366,13.7426,263,0,
6772.02,2.23328,1.1673,4.366,13.7426,263,0,
6772.02,2.22504,1.17035,4.366,13.7426,263,0,
6772.02,2.21588,1.17035,4.366,13.7426,263,0,
6772.03,2.20886,1.17035,4.366,13.7426,263,0,
6772.03,2.20154,1.16425,4.366,13.7426,263,0,
6772.03,2.1933,1.1673,4.366,13.7426,263,0,
6772.03,2.18597,1.16882,4.366,13.7426,263,0,
6772.03,2.17712,1.16577,4.366,13.7426,263,0,
6772.04,2.1698,1.17188,4.366,13.7426,263,0,
6772.04,2.16217,1.16882,4.366,13.7426,263,0,
6772.04,2.15485,1.16577,4.366,13.7426,263,0,
6772.04,2.14722,1.1673,4.366,13.7426,263,0,
6772.04,2.13837,1.16882,4.366,13.7426,263,0,
6772.05,2.12982,1.1673,4.366,13.7426,263,0,
6772.05,2.1228,1.1673,4.366,13.7426,263,0,
6772.05,2.11273,1.15509,4.366,13.7426,263,0,
6772.05,2.10602,1.15357,4.366,13.7426,263,0,
6772.05,2.09778,1.15509,4.366,13.7426,263,0,
6772.06,2.08893,1.15509,4.366,13.7426,263,0,
6772.06,2.08099,1.15509,4.366,13.7426,263,0,
6772.06,2.07367,1.15204,4.366,13.7426,263,0,
6772.06,2.06482,1.15509,4.366,13.7426,263,0,
6772.06,2.05658,1.15967,4.366,13.7426,263,0,
6772.07,2.04712,1.15357,4.366,13.7426,263,0,
6772.07,2.03979,1.15509,4.366,13.7426,263,0,
6772.07,2.03033,1.15509,4.366,13.7426,263,0,
6772.07,2.0224,1.15662,4.366,13.7426,263,0,
6772.07,2.01233,1.15814,4.366,13.7426,263,0,
6772.08,2.00623,1.15662,4.366,13.7426,263,0,
6772.08,1.99585,1.15051,4.366,13.7426,263,0,
6772.08,1.98761,1.15357,4.366,13.7426,263,0,
6772.08,1.97845,1.15357,4.366,13.7426,263,0,
6772.08,1.97021,1.15509,4.366,13.7426,263,0,
6772.09,1.96136,1.15357,4.366,13.7426,263,0,
6772.09,1.9516,1.15509,4.366,13.7426,263,0,
6772.09,1.94458,1.15509,4.366,13.7426,263,0,
6772.09,1.9339,1.14288,4.366,13.7426,263,0,
6772.09,1.92444,1.14288,4.366,13.7426,263,0,
6772.1,1.91742,1.14136,4.366,13.7426,263,0,
6772.1,1.90765,1.14136,4.366,13.7426,263,0,
6772.1,1.89789,1.14288,4.366,13.7426,263,0,
6772.1,1.88812,1.14136,4.366,13.7426,263,0,
6772.1,1.88049,1.14288,4.366,13.7426,263,0,
6772.11,1.87012,1.14136,4.366,13.7426,263,0,
6772.11,1.86096,1.14136,4.366,13.7426,263,0,
6772.11,1.8515,1.14288,4.366,13.7426,263,0,
6772.11,1.84143,1.14288,4.366,13.7426,263,0,
6772.11,1.83197,1.14288,4.366,13.7426,263,0,
6772.12,1.82159,1.14288,4.366,13.7426,263,0,
6772.12,1.81213,1.14288,4.366,13.7426,263,0,
6772.12,1.80145,1.14136,4.366,13.7426,263,0,
6772.12,1.79047,1.14288,4.366,13.7426,263,0,
6772.12,1.78009,1.14441,4.366,13.7426,263,0,
6772.13,1.77124,1.14288,4.366,13.7426,263,0,
6772.13,1.75873,1.14288,4.366,13.7426,263,0,
6772.13,1.74805,1.14136,4.366,13.7426,263,0,
6772.13,1.73859,1.12915,4.366,13.7426,263,0,
6772.13,1.72607,1.1322,4.366,13.7426,263,0,
6772.14,1.71661,1.13068,4.366,13.7426,263,0,
6772.14,1.7041,1.1322,4.366,13.7426,263,0,
6772.14,1.69464,1.13068,4.366,13.7426,263,0,
6772.14,1.68243,1.12915,4.366,13.7426,263,0,
6772.14,1.67023,1.13373,4.366,13.7426,263,0,
6772.15,1.66077,1.13068,4.366,13.7426,263,0,
6772.15,1.64856,1.12915,4.366,13.7426,263,0,
6772.15,1.63574,1.13068,4.366,13.7426,263,0,
6772.15,1.62415,1.13373,4.366,13.7426,263,0,
6772.15,1.61072,1.13373,4.366,13.7426,263,0,
6772.16,1.59882,1.13068,4.366,13.7426,263,0,
6772.16,1.58752,1.13373,4.366,13.7426,263,0,
6772.16,1.5744,1.12915,4.366,13.7426,263,0,
6772.16,1.56342,1.13068,4.366,13.7426,263,0,
6772.16,1.5506,1.12915,4.366,13.7426,263,0,
6772.17,1.53748,1.13373,4.366,13.7426,263,0,
6772.17,1.52527,1.12763,4.366,13.7426,263,0,
6772.17,1.51276,1.13068,4.366,13.7426,263,0,
6772.17,1.49902,1.1322,4.366,13.7426,263,0,
6772.17,1.48712,1.12915,4.366,13.7426,263,0,
6772.18,1.47461,1.12915,4.366,13.7426,263,0,
6772.18,1.45996,1.12763,4.366,13.7426,263,0,
6772.18,1.44714,1.13068,4.366,13.7426,263,0,
6772.18,1.43402,1.1261,4.366,13.7426,263,0,
6772.18,1.42029,1.13373,4.366,13.7426,263,0,
6772.19,1.40839,1.12915,4.366,13.7426,263,0,
6772.19,1.39526,1.11694,4.366,13.7426,263,0,
6772.19,1.38062,1.11847,4.366,13.7426,263,0,
6772.19,1.36627,1.11847,4.366,13.7426,263,0,
6772.19,1.35437,1.12,4.366,13.7426,263,0,
6772.2,1.33972,1.11847,4.366,13.7426,263,0,
6772.2,1.32721,1.11694,4.366,13.7426,263,0,
6772.2,1.31256,1.11847,4.366,13.7426,263,0,
6772.2,1.29791,1.11389,4.366,13.7426,263,0,
6772.2,1.2851,1.11847,4.366,13.7426,263,0,
6772.21,1.27075,1.12152,4.366,13.7426,263,0,
6772.21,1.25854,1.12,4.366,13.7426,263,0,
6772.21,1.24329,1.12152,4.366,13.7426,263,0,
6772.21,1.22986,1.11847,4.366,13.7426,263,0,
6772.21,1.2149,1.11542,4.366,13.7426,263,0,
6772.22,1.20026,1.11694,4.366,13.7426,263,0,
6772.22,1.18591,1.11694,4.366,13.7426,263,0,
6772.22,1.17096,1.11694,4.366,13.7426,263,0,
6772.22,1.15845,1.12,4.366,13.7426,263,0,
6772.22,1.14349,1.11694,4.366,13.7426,263,0,
6772.23,1.12915,1.11847,4.366,13.7426,263,0,
6772.23,1.11481,1.11542,4.366,13.7426,263,0,
6772.23,1.09924,1.12,4.366,13.7426,263,0,
6772.23,1.08765,1.11847,4.366,13.7426,263,0,
6772.23,1.07178,1.12,4.366,13.7426,263,0,
6772.24,1.05713,1.11847,4.366,13.7426,263,0,
6772.24,1.04248,1.12,4.366,13.7426,263,0,
6772.24,1.02844,1.12152,4.366,13.7426,263,0,
6772.24,1.01288,1.11694,4.366,13.7426,263,0,
6772.24,0.998535,1.12,4.366,13.7426,263,0,
6772.25,0.983582,1.11694,4.366,13.7426,263,0,
6772.25,0.966797,1.11847,4.366,13.7426,263,0,
6772.25,0.951538,1.11694,4.366,13.7426,263,0,
6772.25,0.9375,1.11694,4.366,13.7426,263,0,
6772.25,0.922546,1.11542,4.366,13.7426,263,0,
6772.26,0.908508,1.11847,4.366,13.7426,263,0,
6772.26,0.891113,1.11847,4.366,13.7426,263,0,
6772.26,0.877075,1.13068,4.366,13.7426,263,0,
6772.26,0.861816,1.12763,4.366,13.7426,263,0,
6772.26,0.847168,1.12915,4.366,13.7426,263,0,
6772.27,0.832214,1.1322,4.366,13.7426,263,0,
6772.27,0.817871,1.12915,4.366,13.7426,263,0,
6772.27,0.802612,1.13068,4.366,13.7426,263,0,
6772.27,0.785828,1.12915,4.366,13.7426,263,0,
6772.27,0.771484,1.1261,4.366,13.7426,263,0,
6772.28,0.754089,1.12915,4.366,13.7426,263,0,
6772.28,0.739746,1.13068,4.366,13.7426,263,0,
6772.28,0.724792,1.14594,4.366,13.7426,263,0,
6772.28,0.709229,1.13983,4.366,13.7426,263,0,
6772.28,0.692444,1.14288,4.366,13.7426,263,0,
6772.29,0.675659,1.14288,4.366,13.7426,263,0,
6772.29,0.661011,1.14136,4.366,13.7426,263,0,
6772.29,0.646057,1.14136,4.366,13.7426,263,0,
6772.29,0.628967,1.14288,4.366,13.7426,263,0,
6772.29,0.613098,1.14441,4.366,13.7426,263,0,
6772.3,0.596924,1.15357,4.366,13.7426,263,0,
6772.3,0.58197,1.15509,4.366,13.7426,263,0,
6772.3,0.563049,1.15357,4.366,13.7426,263,0,
6772.3,0.547485,1.15204,4.366,13.7426,263,0,
6772.3,0.532837,1.15357,4.366,13.7426,263,0,
6772.31,0.513916,1.15662,4.366,13.7426,263,0,
6772.31,0.499878,1.15509,4.366,13.7426,263,0,
6772.31,0.483398,1.15357,4.366,13.7426,263,0,
6772.31,0.465088,1.16425,4.366,13.7426,263,0,
6772.31,0.450439,1.16577,4.366,13.7426,263,0,
6772.32,0.433044,1.16577,4.366,13.7426,263,0,
6772.32,0.415955,1.1673,4.366,13.7426,263,0,
6772.32,0.400391,1.17035,4.366,13.7426,263,0,
6772.32,0.381775,1.17035,4.366,13.7426,263,0,
6772.32,0.367432,1.17035,4.366,13.7426,263,0,
6772.33,0.346985,1.1673,4.366,13.7426,263,0,
6772.33,0.332642,1.1673,4.366,13.7426,263,0,
6772.33,0.312805,1.16882,4.366,13.7426,263,0,
6772.33,0.298767,1.17798,4.366,13.7426,263,0,
6772.33,0.278931,1.17951,4.366,13.7426,263,0,
6772.34,0.264282,1.18103,4.366,13.7426,263,0,
6772.34,0.244446,1.17951,4.366,13.7426,263,0,
6772.34,0.229797,1.17951,4.366,13.7426,263,0,
6772.34,0.209656,1.17951,4.366,13.7426,263,0,
6772.34,0.193787,1.18103,4.366,13.7426,263,0,
6772.35,0.175171,1.18103,4.366,13.7426,263,0,
6772.35,0.160217,1.17951,4.366,13.7426,263,0,
6772.35,0.141296,1.17493,4.366,13.7426,263,0,
6772.35,0.123901,1.17645,4.366,13.7426,263,0,
6772.35,0.107727,1.18103,4.366,13.7426,263,0,
6772.36,0.0878906,1.17798,4.366,13.7426,263,0,
6772.36,0.0744629,1.18103,4.366,13.7426,263,0,
6772.36,0.0534058,1.19019,4.366,13.7426,263,0,
6772.36,0.0384521,1.18866,4.366,13.7426,263,0,
6772.36,0.0195312,1.19171,4.366,13.7426,263,0,
6772.37,0.00244141,1.19019,4.366,13.7426,263,0,
6772.37,-0.0149536,1.19324,4.366,13.7426,263,0,
6772.37,-0.0341797,1.19324,4.366,13.7426,263,0,
6772.37,-0.0488281,1.19324,4.366,13.7426,263,0,
6772.37,-0.0686646,1.19324,4.366,13.7426,263,0,
6772.38,-0.0860596,1.19019,4.366,13.7426,263,0,
6772.38,-0.103455,1.19171,4.366,13.7426,263,0,
6772.38,-0.122681,1.19476,4.366,13.7426,263,0,
6772.38,-0.137024,1.19171,4.366,13.7426,263,0,
6772.38,-0.15686,1.19019,4.366,13.7426,263,0,
6772.39,-0.176697,1.19476,4.366,13.7426,263,0,
6772.39,-0.19104,1.19171,4.366,13.7426,263,0,
6772.39,-0.211182,1.19171,4.366,13.7426,263,0,
6772.39,-0.22644,1.19171,4.366,13.7426,263,0,
6772.39,-0.245361,1.19019,4.366,13.7426,263,0,
6772.4,-0.263977,1.19324,4.366,13.7426,263,0,
6772.4,-0.279236,1.19324,4.366,13.7426,263,0,
6772.4,-0.299377,1.19171,4.366,13.7426,263,0,
6772.4,-0.318909,1.19019,4.366,13.7426,263,0,
6772.4,-0.333557,1.19019,4.366,13.7426,263,0,
6772.41,-0.353088,1.19171,4.366,13.7426,263,0,
6772.41,-0.370483,1.19324,4.366,13.7426,263,0,
6772.41,-0.386658,1.19324,4.366,13.7426,263,0,
6772.41,-0.406799,1.19171,4.366,13.7426,263,0,
6772.41,-0.422668,1.19324,4.366,13.7426,263,0,
6772.42,-0.441589,1.19019,4.366,13.7426,263,0,
6772.42,-0.461121,1.19019,4.366,13.7426,263,0,
6772.42,-0.475769,1.19019,4.366,13.7426,263,0,
6772.42,-0.49469,1.19171,4.366,13.7426,263,0,
6772.42,-0.514526,1.19171,4.366,13.7426,263,0,
6772.43,-0.528564,1.19324,4.366,13.7426,263,0,
6772.43,-0.549011,1.19324,4.366,13.7426,263,0,
6772.43,-0.566406,1.19019,4.366,13.7426,263,0,
6772.43,-0.583801,1.19171,4.366,13.7426,263,0,
6772.43,-0.603333,1.19019,4.366,13.7426,263,0,
6772.44,-0.617981,1.19019,4.366,13.7426,263,0,
6772.44,-0.636902,1.19019,4.366,13.7426,263,0,
6772.44,-0.657349,1.19171,4.366,13.7426,263,0,
6772.44,-0.671387,1.19171,4.366,13.7426,263,0,
6772.44,-0.691528,1.19171,4.366,13.7426,263,0,
6772.45,-0.710449,1.19019,4.366,13.7426,263,0,
6772.45,-0.726013,1.19019,4.366,13.7426,263,0,
6772.45,-0.744629,1.19171,4.366,13.7426,263,0,
6772.45,-0.765381,1.19019,4.366,13.7426,263,0,
6772.45,-0.779419,1.19324,4.366,13.7426,263,0,
6772.46,-0.798645,1.19019,4.366,13.7426,263,0,
6772.46,-0.81665,1.19476,4.366,13.7426,263,0,
6772.46,-0.832825,1.19171,4.366,13.7426,263,0,
6772.46,-0.852661,1.18866,4.366,13.7426,263,0,
6772.46,-0.871277,1.19019,4.366,13.7426,263,0,
6772.47,-0.886841,1.19324,4.366,13.7426,263,0,
6772.47,-0.906982,1.19019,4.366,13.7426,263,0,
6772.47,-0.922241,1.19019,4.366,13.7426,263,0,
6772.47,-0.941467,1.19171,4.366,13.7426,263,0,
6772.47,-0.960693,1.19324,4.366,13.7426,263,0,
6772.48,-0.975647,1.19324,4.366,13.7426,263,0,
6772.48,-0.994873,1.19476,4.366,13.7426,263,0,
6772.48,-1.01471,1.19171,4.366,13.7426,263,0,
6772.48,-1.02936,1.19629,4.366,13.7426,263,0,
6772.48,-1.04919,1.19019,4.366,13.7426,263,0,
6772.49,-1.06628,1.19171,4.366,13.7426,263,0,
6772.49,-1.08337,1.19324,4.366,13.7426,263,0,
6772.49,-1.10229,1.18866,4.366,13.7426,263,0,
6772.49,-1.11908,1.19019,4.366,13.7426,263,0,
6772.49,-1.13708,1.19476,4.366,13.7426,263,0,
6772.5,-1.15662,1.19019,4.366,13.7426,263,0,
6772.5,-1.17126,1.19171,4.366,13.7426,263,0,
6772.5,-1.1908,1.19019,4.366,13.7426,263,0,
6772.5,-1.20697,1.19171,4.366,13.7426,263,0,
6772.5,-1.22559,1.19629,4.366,13.7426,263,0,
6772.51,-1.24329,1.19171,4.366,13.7426,263,0,
6772.51,-1.25916,1.19324,4.366,13.7426,263,0,
6772.51,-1.27899,1.18866,4.366,13.7426,263,0,
6772.51,-1.29364,1.19019,4.366,13.7426,263,0,
6772.51,-1.31378,1.19171,4.366,13.7426,263,0,
6772.52,-1.32782,1.19324,4.366,13.7426,263,0,
6772.52,-1.34827,1.19019,4.366,13.7426,263,0,
6772.52,-1.36322,1.18713,4.366,13.7426,263,0,
6772.52,-1.38275,1.19019,4.366,13.7426,263,0,
6772.52,-1.39771,1.19019,4.366,13.7426,263,0,
6772.53,-1.41693,1.19171,4.366,13.7426,263,0,
6772.53,-1.43127,1.19019,4.366,13.7426,263,0,
6772.53,-1.45142,1.19324,4.366,13.7426,263,0,
6772.53,-1.46545,1.19171,4.366,13.7426,263,0,
6772.53,-1.4859,1.19171,4.366,13.7426,263,0,
6772.54,-1.49994,1.19476,4.366,13.7426,263,0,
6772.54,-1.51733,1.19171,4.366,13.7426,263,0,
6772.54,-1.53412,1.19171,4.366,13.7426,263,0,
6772.54,-1.54968,1.19171,4.366,13.7426,263,0,
6772.54,-1.56769,1.19019,4.366,13.7426,263,0,
6772.55,-1.58295,1.19324,4.366,13.7426,263,0,
6772.55,-1.60065,1.19019,4.366,13.7426,263,0,
6772.55,-1.61713,1.19171,4.366,13.7426,263,0,
6772.55,-1.63177,1.19171,4.366,13.7426,263,0,
6772.55,-1.65039,1.19171,4.366,13.7426,263,0,
6772.56,-1.66626,1.19171,4.366,13.7426,263,0,
6772.56,-1.68152,1.19019,4.366,13.7426,263,0,
6772.56,-1.69891,1.19476,4.366,13.7426,263,0,
6772.56,-1.71509,1.18866,4.366,13.7426,263,0,
6772.56,-1.73004,1.19171,4.366,13.7426,263,0,
6772.57,-1.7453,1.19019,4.366,13.7426,263,0,
6772.57,-1.763,1.20239,4.366,13.7426,263,0,
6772.57,-1.77887,1.20697,4.366,13.7426,263,0,
6772.57,-1.79382,1.20239,4.366,13.7426,263,0,
6772.57,-1.80817,1.20392,4.366,13.7426,263,0,
6772.58,-1.82373,1.20697,4.366,13.7426,263,0,
6772.58,-1.84113,1.20697,4.366,13.7426,263,0,
6772.58,-1.85699,1.20239,4.366,13.7426,263,0,
6772.58,-1.87195,1.20392,4.366,13.7426,263,0,
6772.58,-1.8869,1.20392,4.366,13.7426,263,0,
6772.59,-1.90155,1.20392,4.366,13.7426,263,0,
6772.59,-1.91589,1.20239,4.366,13.7426,263,0,
6772.59,-1.93146,1.20239,4.366,13.7426,263,0,
6772.59,-1.94641,1.20545,4.366,13.7426,263,0,
6772.59,-1.96167,1.20392,4.366,13.7426,263,0,
6772.6,-1.9754,1.20392,4.366,13.7426,263,0,
6772.6,-1.99036,1.20545,4.366,13.7426,263,0,
6772.6,-2.00562,1.20392,4.366,13.7426,263,0,
6772.6,-2.01935,1.20392,4.366,13.7426,263,0,
6772.6,-2.03461,1.20239,4.366,13.7426,263,0,
6772.61,-2.04926,1.20545,4.366,13.7426,263,0,
6772.61,-2.06268,1.20545,4.366,13.7426,263,0,
6772.61,-2.07794,1.20545,4.366,13.7426,263,0,
6772.61,-2.0929,1.20392,4.366,13.7426,263,0,
6772.61,-2.10785,1.20697,4.366,13.7426,263,0,
6772.62,-2.11975,1.20545,4.366,13.7426,263,0,
6772.62,-2.13501,1.21307,4.366,13.7426,263,0,
6772.62,-2.14691,1.21613,4.366,13.7426,263,0,
6772.62,-2.16064,1.21307,4.366,13.7426,263,0,
6772.62,-2.17621,1.21765,4.366,13.7426,263,0,
6772.63,-2.18811,1.21765,4.366,13.7426,263,0,
6772.63,-2.20062,1.21765,4.366,13.7426,263,0,
6772.63,-2.21588,1.21765,4.366,13.7426,263,0,
6772.63,-2.23022,1.21155,4.366,13.7426,263,0,
6772.63,-2.24243,1.21918,4.366,13.7426,263,0,
6772.64,-2.25494,1.21918,4.366,13.7426,263,0,
6772.64,-2.26898,1.21918,4.366,13.7426,263,0,
6772.64,-2.28149,1.21613,4.366,13.7426,263,0,
6772.64,-2.29279,1.21765,4.366,13.7426,263,0,
6772.64,-2.30713,1.21613,4.366,13.7426,263,0,
6772.65,-2.31842,1.21613,4.366,13.7426,263,0,
6772.65,-2.33063,1.2146,4.366,13.7426,263,0,
6772.65,-2.34283,1.21613,4.366,13.7426,263,0,
6772.65,-2.35748,1.2146,4.366,13.7426,263,0,
6772.65,-2.36786,1.21613,4.366,13.7426,263,0,
6772.66,-2.38007,1.21307,4.366,13.7426,263,0,
6772.66,-2.39227,1.21613,4.366,13.7426,263,0,
6772.66,-2.40448,1.21765,4.366,13.7426,263,0,
6772.66,-2.41638,1.21613,4.366,13.7426,263,0,
6772.66,-2.42889,1.21613,4.366,13.7426,263,0,
6772.67,-2.44049,1.21765,4.366,13.7426,263,0,
6772.67,-2.45056,1.21765,4.366,13.7426,263,0,
6772.67,-2.46246,1.21613,4.366,13.7426,263,0,
6772.67,-2.47437,1.21613,4.366,13.7426,263,0,
6772.67,-2.48505,1.2146,4.366,13.7426,263,0,
6772.68,-2.49725,1.2146,4.366,13.7426,263,0,
6772.68,-2.50763,1.21765,4.366,13.7426,263,0,
6772.68,-2.51923,1.2146,4.366,13.7426,263,0,
6772.68,-2.52899,1.21765,4.366,13.7426,263,0,
6772.68,-2.54059,1.2146,4.366,13.7426,263,0,
6772.69,-2.55066,1.21613,4.366,13.7426,263,0,
6772.69,-2.56073,1.21307,4.366,13.7426,263,0,
6772.69,-2.57294,1.21613,4.366,13.7426,263,0,
6772.69,-2.58392,1.21918,4.366,13.7426,263,0,
6772.69,-2.59216,1.21765,4.366,13.7426,263,0,
6772.7,-2.60315,1.22833,4.366,13.7426,263,0,
6772.7,-2.61139,1.22681,4.366,13.7426,263,0,
6772.7,-2.62512,1.23139,4.366,13.7426,263,0,
6772.7,-2.63458,1.22528,4.366,13.7426,263,0,
6772.7,-2.64404,1.22986,4.366,13.7426,263,0,
6772.71,-2.65411,1.22833,4.366,13.7426,263,0,
6772.71,-2.66327,1.22681,4.366,13.7426,263,0,
6772.71,-2.67365,1.22833,4.366,13.7426,263,0,
6772.71,-2.68188,1.22833,4.366,13.7426,263,0,
6772.71,-2.69073,1.22833,4.366,13.7426,263,0,
6772.72,-2.70111,1.22833,4.366,13.7426,263,0,
6772.72,-2.70996,1.22986,4.366,13.7426,263,0,
6772.72,-2.72034,1.22681,4.366,13.7426,263,0,
6772.72,-2.72766,1.22681,4.366,13.7426,263,0,
6772.72,-2.73682,1.22833,4.366,13.7426,263,0,
6772.73,-2.74719,1.23139,4.366,13.7426,263,0,
6772.73,-2.75543,1.22986,4.366,13.7426,263,0,
6772.73,-2.76489,1.22833,4.366,13.7426,263,0,
6772.73,-2.77191,1.23139,4.366,13.7426,263,0,
6772.73,-2.78168,1.22681,4.366,13.7426,263,0,
6772.74,-2.7887,1.23139,4.366,13.7426,263,0,
6772.74,-2.79694,1.22528,4.366,13.7426,263,0,
6772.74,-2.8064,1.22833,4.366,13.7426,263,0,
6772.74,-2.81281,1.22681,4.366,13.7426,263,0,
6772.74,-2.82104,1.22528,4.366,13.7426,263,0,
6772.75,-2.8302,1.22833,4.366,13.7426,263,0,
6772.75,-2.83783,1.22833,4.366,13.7426,263,0,
6772.75,-2.84546,1.22986,4.366,13.7426,263,0,
6772.75,-2.85248,1.22986,4.366,13.7426,263,0,
6772.75,-2.86011,1.22681,4.366,13.7426,263,0,
6772.76,-2.86713,1.22833,4.366,13.7426,263,0,
6772.76,-2.87445,1.23139,4.366,13.7426,263,0,
6772.76,-2.88422,1.22528,4.366,13.7426,263,0,
6772.76,-2.88971,1.22681,4.366,13.7426,263,0,
6772.76,-2.89734,1.22376,4.366,13.7426,263,0,
6772.77,-2.90436,1.24054,4.366,13.7426,263,0,
6772.77,-2.91168,1.23901,4.366,13.7426,263,0,
6772.77,-2.91931,1.24054,4.366,13.7426,263,0,
6772.77,-2.9245,1.24054,4.366,13.7426,263,0,
6772.77,-2.93365,1.24054,4.366,13.7426,263,0,
6772.78,-2.93945,1.24207,4.366,13.7426,263,0,
6772.78,-2.94586,1.24207,4.366,13.7426,263,0,
6772.78,-2.9538,1.24207,4.366,13.7426,263,0,
6772.78,-2.95868,1.23749,4.366,13.7426,263,0,
6772.78,-2.96387,1.24207,4.366,13.7426,263,0,
6772.79,-2.96997,1.24054,4.366,13.7426,263,0,
6772.79,-2.97699,1.23901,4.366,13.7426,263,0,
6772.79,-2.98279,1.24207,4.366,13.7426,263,0,
6772.79,-2.98798,1.24054,4.366,13.7426,263,0,
6772.79,-2.99561,1.24207,4.366,13.7426,263,0,
6772.8,-3.0014,1.23749,4.366,13.7426,263,0,
6772.8,-3.0072,1.23901,4.366,13.7426,263,0,
6772.8,-3.01208,1.24054,4.366,13.7426,263,0,
6772.8,-3.01727,1.24817,4.366,13.7426,263,0,
6772.8,-3.02216,1.2497,4.366,13.7426,263,0,
6772.81,-3.02917,1.25885,4.366,13.7426,263,0,
6772.81,-3.03406,1.25275,4.366,13.7426,263,0,
6772.81,-3.03894,1.25275,4.366,13.7426,263,0,
6772.81,-3.04596,1.25122,4.366,13.7426,263,0,
6772.81,-3.05054,1.25275,4.366,13.7426,263,0,
6772.82,-3.05542,1.25427,4.366,13.7426,263,0,
6772.82,-3.0603,1.25122,4.366,13.7426,263,0,
6772.82,-3.06519,1.25275,4.366,13.7426,263,0,
6772.82,-3.07068,1.25275,4.366,13.7426,263,0,
6772.82,-3.07587,1.2558,4.366,13.7426,263,0,
6772.83,-3.07983,1.25275,4.366,13.7426,263,0,
6772.83,-3.08502,1.26343,4.366,13.7426,263,0,
6772.83,-3.0896,1.26953,4.366,13.7426,263,0,
6772.83,-3.09174,1.26648,4.366,13.7426,263,0,
6772.83,-3.09692,1.26343,4.366,13.7426,263,0,
6772.84,-3.10028,1.26495,4.366,13.7426,263,0,
6772.84,-3.10516,1.26648,4.366,13.7426,263,0,
6772.84,-3.11005,1.26648,4.366,13.7426,263,0,
6772.84,-3.11432,1.26343,4.366,13.7426,263,0,
6772.84,-3.11859,1.26495,4.366,13.7426,263,0,
6772.85,-3.12225,1.27869,4.366,13.7426,263,0,
6772.85,-3.12439,1.27716,4.366,13.7426,263,0,
6772.85,-3.12958,1.28021,4.366,13.7426,263,0,
6772.85,-3.13538,1.27869,4.366,13.7426,263,0,
6772.85,-3.13904,1.27564,4.366,13.7426,263,0,
6772.86,-3.14209,1.27869,4.366,13.7426,263,0,
6772.86,-3.14423,1.27869,4.366,13.7426,263,0,
6772.86,-3.1488,1.27411,4.366,13.7426,263,0,
6772.86,-3.15399,1.27716,4.366,13.7426,263,0,
6772.86,-3.1546,1.29089,4.366,13.7426,263,0,
6772.87,-3.15948,1.29089,4.366,13.7426,263,0,
6772.87,-3.16345,1.29089,4.366,13.7426,263,0,
6772.87,-3.16437,1.29089,4.366,13.7426,263,0,
6772.87,-3.16956,1.29242,4.366,13.7426,263,0,
6772.87,-3.17383,1.29242,4.366,13.7426,263,0,
6772.88,-3.17444,1.28937,4.366,13.7426,263,0,
6772.88,-3.17902,1.297,4.366,13.7426,263,0,
6772.88,-3.18085,1.3031,4.366,13.7426,263,0,
6772.88,-3.1842,1.30463,4.366,13.7426,263,0,
6772.88,-3.18756,1.30615,4.366,13.7426,263,0,
6772.89,-3.1897,1.30158,4.366,13.7426,263,0,
6772.89,-3.19397,1.30005,4.366,13.7426,263,0,
6772.89,-3.19427,1.3031,4.366,13.7426,263,0,
6772.89,-3.19946,1.30615,4.366,13.7426,263,0,
6772.89,-3.2016,1.31531,4.366,13.7426,263,0,
6772.9,-3.20404,1.31378,4.366,13.7426,263,0,
6772.9,-3.20587,1.31378,4.366,13.7426,263,0,
6772.9,-3.20831,1.31531,4.366,13.7426,263,0,
6772.9,-3.20862,1.31683,4.366,13.7426,263,0,
6772.9,-3.2135,1.31683,4.366,13.7426,263,0,
6772.91,-3.2135,1.31683,4.366,13.7426,263,0,
6772.91,-3.21838,1.31683,4.366,13.7426,263,0,
6772.91,-3.21869,1.32752,4.366,13.7426,263,0,
6772.91,-3.22388,1.32752,4.366,13.7426,263,0,
6772.91,-3.22357,1.32599,4.366,13.7426,263,0,
6772.92,-3.2254,1.33057,4.366,13.7426,263,0,
6772.92,-3.22845,1.32446,4.366,13.7426,263,0,
6772.92,-3.22876,1.32446,4.366,13.7426,263,0,
6772.92,-3.23242,1.32599,4.366,13.7426,263,0,
6772.92,-3.23273,1.33667,0,13.7426,263,0,
6772.93,-3.23303,1.33972,0,13.7426,263,0,
6772.93,-3.23822,1.33972,0,13.7426,263,0,
6772.93,-3.23822,1.3382,0,13.7426,263,0,
6772.93,-3.23792,1.33972,0,13.7426,263,0,
6772.93,-3.2428,1.34125,0,13.7426,263,0,
6772.94,-3.2428,1.34277,0,13.7426,263,0,
6772.94,-3.24371,1.35346,0,13.7426,263,0,
6772.94,-3.24768,1.35193,0,13.7426,263,0,
6772.94,-3.24768,1.35193,0,13.7426,263,0,
6772.94,-3.24768,1.35651,0,13.7426,263,0,
6772.95,-3.24982,1.35193,0,13.7426,263,0,
6772.95,-3.25317,1.35193,0,13.7426,263,0,
6772.95,-3.25287,1.36108,0,13.7426,263,0,
6772.95,-3.25256,1.36414,0,13.7426,263,0,
6772.95,-3.25531,1.36261,0,13.7426,263,0,
6772.96,-3.25806,1.36261,0,13.7426,263,0,
6772.96,-3.25745,1.36414,0,13.7426,263,0,
6772.96,-3.25836,1.36566,0,13.7426,263,0,
6772.96,-3.25745,1.36261,0,13.7426,263,0,
6772.96,-3.26141,1.36414,0,13.7426,263,0,
6772.97,-3.26233,1.36566,0,13.7426,263,0,
6772.97,-3.26233,1.36719,0,13.7426,263,0,
6772.97,-3.26263,1.36566,0,13.7426,263,0,
6772.97,-3.26263,1.36566,0,13.7426,263,0,
6772.97,-3.26263,1.36414,0,13.7426,263,0,
6772.98,-3.26782,1.36719,2.298,13.7426,263,0,
6772.98,-3.26782,1.36566,2.298,13.7426,263,0,
6772.98,-3.26721,1.36414,2.298,13.7426,263,0,
6772.98,-3.26782,1.36414,2.298,13.7426,263,0,
6772.98,-3.26752,1.36414,2.298,13.7426,263,0,
6772.99,-3.26752,1.36566,2.298,13.7426,263,0,
6772.99,-3.26782,1.36261,2.298,13.7426,263,0,
6772.99,-3.26782,1.36261,2.298,13.7426,263,0,
6772.99,-3.27209,1.36414,2.298,13.7426,263,0,
6772.99,-3.27332,1.36414,2.298,13.7426,263,0,
6773,-3.2724,1.36566,2.298,13.7426,263,0,
6773,-3.2724,1.36414,2.298,13.7426,263,0,
6773,-3.2724,1.36414,2.298,13.7426,263,0,
6773,-3.2724,1.36414,2.298,13.7426,263,0,
6773,-3.27301,1.36108,2.298,13.7426,263,0,
6773.01,-3.27209,1.36414,2.298,13.7426,263,0,
6773.01,-3.27301,1.36261,2.298,13.7426,263,0,
6773.01,-3.27301,1.36566,2.298,13.7426,263,0,
6773.01,-3.2724,1.35193,2.298,13.7426,263,0,
6773.01,-3.2724,1.35193,2.298,13.7426,263,0,
6773.02,-3.2724,1.35193,2.298,13.7426,263,0,
6773.02,-3.27271,1.35346,2.298,13.7426,263,0,
6773.02,-3.27209,1.35346,2.298,13.7426,263,0,
6773.02,-3.2724,1.34888,2.298,13.7426,263,0,
6773.02,-3.2724,1.35346,2.298,13.7426,263,0,
6773.03,-3.27271,1.34277,2.298,13.7426,263,0,
6773.03,-3.27271,1.33667,2.298,13.7426,263,0,
6773.03,-3.2724,1.33667,2.298,13.7426,263,0,
6773.03,-3.27148,1.33972,2.298,13.7426,263,0,
6773.03,-3.27301,1.3382,2.298,13.7426,263,0,
6773.04,-3.27301,1.33972,2.298,13.7426,263,0,
6773.04,-3.27209,1.33362,2.298,13.7426,263,0,
6773.04,-3.2724,1.32599,2.298,13.7426,263,0,
6773.04,-3.2724,1.32599,2.298,13.7426,263,0,
6773.04,-3.27271,1.32752,2.298,13.7426,263,0,
6773.05,-3.27179,1.32904,2.298,13.7426,263,0,
6773.05,-3.2724,1.32752,2.298,13.7426,263,0,
6773.05,-3.27209,1.31989,2.298,13.7426,263,0,
6773.05,-3.2724,1.31531,2.298,13.7426,263,0,
6773.05,-3.27271,1.31378,2.298,13.7426,263,0,
6773.06,-3.2724,1.31836,2.298,13.7426,263,0,
6773.06,-3.2724,1.31531,2.298,13.7426,263,0,
6773.06,-3.2724,1.31378,2.298,13.7426,263,0,
6773.06,-3.2724,1.31378,2.298,13.7426,263,0,
6773.06,-3.2724,1.31683,2.298,13.7426,263,0,
6773.07,-3.27209,1.31531,2.298,13.7426,263,0,
6773.07,-3.26721,1.31378,2.298,13.7426,263,0,
6773.07,-3.26752,1.31683,2.298,13.7426,263,0,
6773.07,-3.26721,1.31378,2.298,13.7426,263,0,
6773.07,-3.26752,1.31531,2.298,13.7426,263,0,
6773.08,-3.26813,1.31226,2.298,13.7426,263,0,
6773.08,-3.26782,1.31378,2.298,13.7426,263,0,
6773.08,-3.2666,1.31378,2.298,13.7426,263,0,
6773.08,-3.26721,1.31531,2.298,13.7426,263,0,
6773.08,-3.26752,1.31531,2.298,13.7426,263,0,
6773.09,-3.26263,1.31378,2.298,13.7426,263,0,
6773.09,-3.26263,1.32141,2.298,13.7426,263,0,
6773.09,-3.26233,1.32752,2.298,13.7426,263,0,
6773.09,-3.26233,1.32599,2.298,13.7426,263,0,
6773.09,-3.26141,1.32446,2.298,13.7426,263,0,
6773.1,-3.26233,1.32904,2.298,13.7426,263,0,
6773.1,-3.26324,1.3382,2.298,13.7426,263,0,
6773.1,-3.25989,1.3382,2.298,13.7426,263,0,
6773.1,-3.25775,1.33972,2.298,13.7426,263,0,
6773.1,-3.25775,1.34888,2.298,13.7426,263,0,
6773.11,-3.25775,1.3504,2.298,13.7426,263,0,
6773.11,-3.25775,1.35346,2.298,13.7426,263,0,
6773.11,-3.25745,1.36108,2.298,13.7426,263,0,
6773.11,-3.25775,1.36414,2.298,13.7426,263,0,
6773.11,-3.25287,1.36566,2.298,13.7426,263,0,
6773.12,-3.25287,1.35956,2.298,13.7426,263,0,
6773.12,-3.25256,1.37482,2.298,13.7426,263,0,
6773.12,-3.25287,1.38092,2.298,13.7426,263,0,
6773.12,-3.25287,1.37329,2.298,13.7426,263,0,
6773.12,-3.25073,1.37482,2.298,13.7426,263,0,
6773.13,-3.24799,1.38702,2.298,13.7426,263,0,
6773.13,-3.24768,1.38702,2.298,13.7426,263,0,
6773.13,-3.24738,1.3855,2.298,13.7426,263,0,
6773.13,-3.24768,1.38855,2.298,13.7426,263,0,
6773.13,-3.24738,1.39923,2.298,13.7426,263,0,
6773.14,-3.24249,1.40076,2.298,13.7426,263,0,
6773.14,-3.2431,1.40228,2.298,13.7426,263,0,
6773.14,-3.2431,1.40076,2.298,13.7426,263,0,
6773.14,-3.2428,1.41296,2.298,13.7426,263,0,
6773.14,-3.2428,1.41296,2.298,13.7426,263,0,
6773.15,-3.23883,1.41296,2.298,13.7426,263,0,
6773.15,-3.23792,1.41144,2.298,13.7426,263,0,
6773.15,-3.23822,1.42365,2.298,13.7426,263,0,
6773.15,-3.23792,1.42517,2.298,13.7426,263,0,
6773.15,-3.23853,1.42517,2.298,13.7426,263,0,
6773.16,-3.23578,1.42365,2.298,13.7426,263,0,
6773.16,-3.23242,1.43433,2.298,13.7426,263,0,
6773.16,-3.23303,1.43585,2.298,13.7426,263,0,
6773.16,-3.23364,1.43585,2.298,13.7426,263,0,
6773.16,-3.23242,1.43585,2.298,13.7426,263,0,
6773.17,-3.23273,1.44501,2.298,13.7426,263,0,
6773.17,-3.22815,1.45111,2.298,13.7426,263,0,
6773.17,-3.22845,1.44653,2.298,13.7426,263,0,
6773.17,-3.22754,1.44959,2.298,13.7426,263,0,
6773.17,-3.22815,1.46027,2.298,13.7426,263,0,
6773.18,-3.22845,1.46179,2.298,13.7426,263,0,
6773.18,-3.22357,1.46179,2.298,13.7426,263,0,
6773.18,-3.22357,1.46179,2.298,13.7426,263,0,
6773.18,-3.22327,1.46027,2.298,13.7426,263,0,
6773.18,-3.22327,1.47553,2.298,13.7426,263,0,
6773.19,-3.22388,1.47247,2.298,13.7426,263,0,
6773.19,-3.2196,1.47705,2.298,13.7426,263,0,
6773.19,-3.21838,1.474,2.298,13.7426,263,0,
6773.19,-3.21838,1.48468,2.298,13.7426,263,0,
6773.19,-3.21838,1.48468,2.298,13.7426,263,0,
6773.2,-3.21869,1.48468,2.298,13.7426,263,0,
6773.2,-3.21869,1.48468,2.298,13.7426,263,0,
6773.2,-3.2135,1.48621,2.298,13.7426,263,0,
6773.2,-3.2132,1.49231,2.298,13.7426,263,0,
6773.2,-3.21411,1.49689,2.298,13.7426,263,0,
6773.21,-3.21289,1.49994,2.298,13.7426,263,0,
6773.21,-3.21381,1.49536,2.298,13.7426,263,0,
6773.21,-3.21198,1.49841,2.298,13.7426,263,0,
6773.21,-3.20831,1.49689,2.298,13.7426,263,0,
6773.21,-3.20862,1.50147,2.298,13.7426,263,0,
6773.22,-3.20923,1.49536,2.298,13.7426,263,0,
6773.22,-3.20862,1.50147,2.298,13.7426,263,0,
6773.22,-3.20801,1.49994,2.298,13.7426,263,0,
6773.22,-3.20526,1.49536,2.298,13.7426,263,0,
6773.22,-3.20404,1.49689,2.298,13.7426,263,0,
6773.23,-3.20312,1.49841,2.298,13.7426,263,0,
6773.23,-3.20404,1.49841,2.298,13.7426,263,0,
6773.23,-3.20435,1.49994,2.298,13.7426,263,0,
6773.23,-3.20374,1.49841,2.298,13.7426,263,0,
6773.23,-3.20343,1.49841,2.298,13.7426,263,0,
6773.24,-3.19885,1.49841,2.298,13.7426,263,0,
6773.24,-3.19916,1.49994,2.298,13.7426,263,0,
6773.24,-3.19885,1.49994,2.298,13.7426,263,0,
6773.24,-3.19885,1.49536,2.298,13.7426,263,0,
6773.24,-3.19916,1.49689,2.298,13.7426,263,0,
6773.25,-3.19885,1.48621,2.298,13.7426,263,0,
6773.25,-3.19672,1.48773,2.298,13.7426,263,0,
6773.25,-3.19458,1.48468,2.298,13.7426,263,0,
6773.25,-3.19397,1.48773,2.298,13.7426,263,0,
6773.25,-3.19366,1.48468,2.298,13.7426,263,0,
6773.26,-3.19397,1.4801,2.298,13.7426,263,0,
6773.26,-3.19458,1.47095,2.298,13.7426,263,0,
6773.26,-3.19458,1.474,2.298,13.7426,263,0,
6773.26,-3.19397,1.474,2.298,13.7426,263,0,
6773.26,-3.18939,1.47247,2.298,13.7426,263,0,
6773.27,-3.18909,1.46637,2.298,13.7426,263,0,
6773.27,-3.18909,1.46332,2.298,13.7426,263,0,
6773.27,-3.18909,1.46179,2.298,13.7426,263,0,
6773.27,-3.18909,1.46027,2.298,13.7426,263,0,
6773.27,-3.18939,1.45111,2.298,13.7426,263,0,
6773.28,-3.18939,1.44653,2.298,13.7426,263,0,
6773.28,-3.18909,1.44806,2.298,13.7426,263,0,
6773.28,-3.19,1.44806,2.298,13.7426,263,0,
6773.28,-3.1839,1.4389,2.298,13.7426,263,0,
6773.28,-3.1842,1.4389,2.298,13.7426,263,0,
6773.29,-3.18451,1.43738,2.298,13.7426,263,0,
6773.29,-3.18451,1.43738,2.298,13.7426,263,0,
6773.29,-3.1839,1.43585,2.298,13.7426,263,0,
6773.29,-3.1842,1.42517,2.298,13.7426,263,0,
6773.29,-3.1839,1.4267,2.298,13.7426,263,0,
6773.3,-3.18481,1.42517,2.298,13.7426,263,0,
6773.3,-3.1842,1.42517,2.298,13.7426,263,0,
6773.3,-3.1842,1.42517,2.298,13.7426,263,0,
6773.3,-3.1842,1.41144,2.298,13.7426,263,0,
6773.3,-3.18237,1.41449,2.298,13.7426,263,0,
6773.31,-3.17902,1.41144,2.298,13.7426,263,0,
6773.31,-3.17902,1.41296,2.298,13.7426,263,0,
6773.31,-3.17963,1.41602,2.298,13.7426,263,0,
6773.31,-3.17963,1.41449,2.298,13.7426,263,0,
6773.31,-3.17993,1.40076,2.298,13.7426,263,0,
6773.32,-3.17871,1.40076,2.298,13.7426,263,0,
6773.32,-3.17871,1.39771,2.298,13.7426,263,0,
6773.32,-3.17871,1.39923,2.298,13.7426,263,0,
6773.32,-3.17871,1.40228,2.298,13.7426,263,0,
6773.32,-3.17993,1.39923,2.298,13.7426,263,0,
6773.33,-3.17963,1.40228,2.298,13.7426,263,0,
6773.33,-3.17963,1.39465,2.298,13.7426,263,0,
6773.33,-3.17963,1.38092,2.298,13.7426,263,0,
6773.33,-3.17841,1.38702,2.298,13.7426,263,0,
6773.33,-3.17963,1.3916,2.298,13.7426,263,0,
6773.34,-3.17963,1.39008,2.298,13.7426,263,0,
6773.34,-3.17993,1.3855,2.298,13.7426,263,0,
6773.34,-3.17932,1.38702,2.298,13.7426,263,0,
6773.34,-3.17932,1.38702,2.298,13.7426,263,0,
6773.34,-3.17902,1.39313,2.298,13.7426,263,0,
6773.35,-3.17902,1.38702,2.298,13.7426,263,0,
6773.35,-3.17841,1.38702,2.298,13.7426,263,0,
6773.35,-3.17902,1.39008,2.298,13.7426,263,0,
6773.35,-3.17932,1.38702,2.298,13.7426,263,0,
6773.35,-3.17902,1.3855,2.298,13.7426,263,0,
6773.36,-3.17871,1.3855,2.298,13.7426,263,0,
6773.36,-3.17932,1.38702,2.298,13.7426,263,0,
6773.36,-3.17749,1.3916,2.298,13.7426,263,0,
6773.36,-3.17383,1.38702,2.298,13.7426,263,0,
6773.36,-3.17963,1.39008,2.298,13.7426,263,0,
6773.37,-3.17963,1.38702,2.298,13.7426,263,0,
6773.37,-3.17902,1.37634,2.298,13.7426,263,0,
6773.37,-3.17932,1.37482,2.298,13.7426,263,0,
6773.37,-3.17932,1.37482,2.298,13.7426,263,0,
6773.37,-3.17871,1.37482,2.298,13.7426,263,0,
6773.38,-3.17993,1.37787,2.298,13.7426,263,0,
6773.38,-3.17871,1.3855,2.298,13.7426,263,0,
6773.38,-3.17932,1.3916,2.298,13.7426,263,0,
6773.38,-3.17871,1.3855,2.298,13.7426,263,0,
6773.38,-3.17963,1.38702,2.298,13.7426,263,0,
6773.39,-3.17841,1.38855,2.298,13.7426,263,0,
6773.39,-3.17932,1.38702,2.298,13.7426,263,0,
6773.39,-3.17902,1.3855,2.298,13.7426,263,0,
6773.39,-3.17871,1.3916,2.298,13.7426,263,0,
6773.39,-3.17932,1.38855,2.298,13.7426,263,0,
6773.4,-3.17932,1.38702,2.298,13.7426,263,0,
6773.4,-3.17963,1.38702,2.298,13.7426,263,0,
6773.4,-3.17932,1.38702,2.298,13.7426,263,0,
6773.4,-3.17932,1.39008,2.298,13.7426,263,0,
6773.4,-3.17871,1.39008,2.298,13.7426,263,0,
6773.41,-3.17902,1.39008,2.298,13.7426,263,0,
6773.41,-3.17902,1.38855,2.298,13.7426,263,0,
6773.41,-3.17902,1.38855,2.298,13.7426,263,0,
6773.41,-3.17902,1.38702,2.298,13.7426,263,0,
6773.41,-3.17902,1.3855,2.298,13.7426,263,0,
6773.42,-3.17932,1.38855,2.298,13.7426,263,0,
6773.42,-3.17932,1.38855,2.298,13.7426,263,0,
6773.42,-3.18451,1.39008,2.298,13.7426,263,0,
6773.42,-3.18359,1.3916,2.298,13.7426,263,0,
6773.42,-3.18359,1.39008,2.298,13.7426,263,0,
6773.43,-3.18359,1.39008,2.298,13.7426,263,0,
6773.43,-3.18512,1.38397,2.298,13.7426,263,0,
6773.43,-3.1842,1.3916,2.298,13.7426,263,0,
6773.43,-3.1842,1.38702,2.298,13.7426,263,0,
6773.43,-3.1839,1.38397,2.298,13.7426,263,0,
6773.44,-3.1842,1.39771,2.298,13.7426,263,0,
6773.44,-3.18512,1.39618,2.298,13.7426,263,0,
6773.44,-3.18359,1.39771,2.298,13.7426,263,0,
6773.44,-3.1842,1.40076,2.298,13.7426,263,0,
6773.44,-3.18878,1.39923,2.298,13.7426,263,0,
6773.45,-3.18909,1.40534,2.298,13.7426,263,0,
6773.45,-3.18939,1.39923,2.298,13.7426,263,0,
6773.45,-3.18817,1.40228,2.298,13.7426,263,0,
6773.45,-3.18878,1.40228,2.298,13.7426,263,0,
6773.45,-3.18909,1.39923,2.298,13.7426,263,0,
6773.46,-3.18939,1.40076,2.298,13.7426,263,0,
6773.46,-3.18848,1.40076,2.298,13.7426,263,0,
6773.46,-3.18848,1.39923,2.298,13.7426,263,0,
6773.46,-3.18909,1.39923,2.298,13.7426,263,0,
6773.46,-3.19458,1.40991,2.298,13.7426,263,0,
6773.47,-3.19427,1.41449,2.298,13.7426,263,0,
6773.47,-3.19458,1.41296,2.298,13.7426,263,0,
6773.47,-3.19427,1.41144,2.298,13.7426,263,0,
6773.47,-3.19366,1.41144,2.298,13.7426,263,0,
6773.47,-3.19397,1.41144,2.298,13.7426,263,0,
6773.48,-3.19336,1.41296,2.298,13.7426,263,0,
6773.48,-3.19427,1.41602,2.298,13.7426,263,0,
6773.48,-3.19458,1.40991,2.298,13.7426,263,0,
6773.48,-3.19885,1.41144,2.298,13.7426,263,0,
6773.48,-3.19946,1.41449,2.298,13.7426,263,0,
6773.49,-3.19824,1.41144,2.298,13.7426,263,0,
6773.49,-3.19885,1.42059,2.298,13.7426,263,0,
6773.49,-3.19916,1.4267,2.298,13.7426,263,0,
6773.49,-3.19916,1.4267,2.298,13.7426,263,0,
6773.49,-3.19824,1.42822,2.298,13.7426,263,0,
6773.5,-3.19855,1.42365,2.298,13.7426,263,0,
6773.5,-3.20343,1.42365,2.298,13.7426,263,0,
6773.5,-3.20312,1.42365,2.298,13.7426,263,0,
6773.5,-3.20404,1.4267,2.298,13.7426,263,0,
6773.5,-3.20496,1.42365,2.298,13.7426,263,0,
6773.51,-3.20404,1.4267,2.298,13.7426,263,0,
6773.51,-3.20312,1.4267,2.298,13.7426,263,0,
6773.51,-3.20404,1.42517,2.298,13.7426,263,0,
6773.51,-3.20435,1.4389,2.298,13.7426,263,0,
6773.51,-3.20923,1.43738,2.298,13.7426,263,0,
6773.52,-3.20892,1.43738,2.298,13.7426,263,0,
6773.52,-3.20892,1.43433,2.298,13.7426,263,0,
6773.52,-3.20862,1.43433,2.298,13.7426,263,0,
6773.52,-3.20801,1.4389,2.298,13.7426,263,0,
6773.52,-3.20923,1.43585,2.298,13.7426,263,0,
6773.53,-3.20953,1.43433,2.298,13.7426,263,0,
6773.53,-3.2135,1.43738,2.298,13.7426,263,0,
6773.53,-3.21289,1.4389,2.298,13.7426,263,0,
6773.53,-3.21381,1.44043,2.298,13.7426,263,0,
6773.53,-3.21411,1.43585,2.298,13.7426,263,0,
6773.54,-3.21289,1.44653,2.298,13.7426,263,0,
6773.54,-3.2135,1.44959,2.298,13.7426,263,0,
6773.54,-3.21289,1.44806,2.298,13.7426,263,0,
6773.54,-3.21655,1.44959,2.298,13.7426,263,0,
6773.54,-3.21838,1.44959,2.298,13.7426,263,0,
6773.55,-3.21808,1.44959,2.298,13.7426,263,0,
6773.55,-3.21869,1.45264,2.298,13.7426,263,0,
6773.55,-3.21869,1.44501,2.298,13.7426,263,0,
6773.55,-3.21869,1.45111,2.298,13.7426,263,0,
6773.55,-3.21869,1.44806,2.298,13.7426,263,0,
6773.56,-3.22174,1.45111,2.298,13.7426,263,0,
6773.56,-3.22327,1.45111,2.298,13.7426,263,0,
6773.56,-3.22388,1.44959,2.298,13.7426,263,0,
6773.56,-3.22357,1.44806,2.298,13.7426,263,0,
6773.56,-3.22266,1.44959,2.298,13.7426,263,0,
6773.57,-3.22296,1.44806,2.298,13.7426,263,0,
6773.57,-3.22296,1.46027,2.298,13.7426,263,0,
6773.57,-3.22784,1.46179,2.298,13.7426,263,0,
6773.57,-3.22754,1.46027,2.298,13.7426,263,0,
6773.57,-3.22815,1.46027,2.298,13.7426,263,0,
6773.58,-3.22693,1.45874,2.298,13.7426,263,0,
6773.58,-3.22845,1.46179,2.298,13.7426,263,0,
6773.58,-3.22784,1.46179,2.298,13.7426,263,0,
6773.58,-3.22754,1.45874,2.298,13.7426,263,0,
6773.58,-3.23242,1.46027,2.298,13.7426,263,0,
6773.59,-3.23303,1.45874,2.298,13.7426,263,0,
6773.59,-3.23212,1.46027,2.298,13.7426,263,0,
6773.59,-3.23303,1.46027,2.298,13.7426,263,0,
6773.59,-3.23303,1.46179,2.298,13.7426,263,0,
6773.59,-3.23242,1.46179,2.298,13.7426,263,0,
6773.6,-3.23547,1.46332,2.298,13.7426,263,0,
6773.6,-3.23792,1.46332,2.298,13.7426,263,0,
6773.6,-3.23822,1.46179,2.298,13.7426,263,0,
6773.6,-3.23792,1.46484,2.298,13.7426,263,0,
6773.6,-3.23792,1.46027,2.298,13.7426,263,0,
6773.61,-3.23792,1.46332,2.298,13.7426,263,0,
6773.61,-3.23822,1.46332,2.298,13.7426,263,0,
6773.61,-3.24219,1.46027,2.298,13.7426,263,0,
6773.61,-3.2428,1.46332,2.298,13.7426,263,0,
6773.61,-3.2428,1.46179,2.298,13.7426,263,0,
6773.62,-3.24371,1.46332,2.298,13.7426,263,0,
6773.62,-3.2431,1.46484,2.298,13.7426,263,0,
6773.62,-3.2431,1.46179,2.298,13.7426,263,0,
6773.62,-3.24707,1.46179,2.298,13.7426,263,0,
6773.62,-3.24738,1.46179,2.298,13.7426,263,0,
6773.63,-3.24768,1.47095,2.298,13.7426,263,0,
6773.63,-3.24829,1.47247,2.298,13.7426,263,0,
6773.63,-3.24799,1.47247,2.298,13.7426,263,0,
6773.63,-3.24768,1.47553,2.298,13.7426,263,0,
6773.63,-3.2489,1.47247,2.298,13.7426,263,0,
6773.64,-3.25287,1.47095,2.298,13.7426,263,0,
6773.64,-3.25256,1.47247,2.298,13.7426,263,0,
6773.64,-3.25287,1.474,2.298,13.7426,263,0,
6773.64,-3.25317,1.474,2.298,13.7426,263,0,
6773.64,-3.25317,1.47247,2.298,13.7426,263,0,
6773.65,-3.25684,1.47247,2.298,13.7426,263,0,
6773.65,-3.25745,1.47095,2.298,13.7426,263,0,
6773.65,-3.25775,1.474,2.298,13.7426,263,0,
6773.65,-3.25714,1.474,2.298,13.7426,263,0,
6773.65,-3.25775,1.474,2.298,13.7426,263,0,
6773.66,-3.25806,1.47553,2.298,13.7426,263,0,
6773.66,-3.26263,1.47247,2.298,13.7426,263,0,
6773.66,-3.26233,1.474,2.298,13.7426,263,0,
6773.66,-3.26263,1.47247,2.298,13.7426,263,0,
6773.66,-3.26263,1.47247,2.298,13.7426,263,0,
6773.67,-3.26263,1.474,2.298,13.7426,263,0,
6773.67,-3.26599,1.47247,2.298,13.7426,263,0,
6773.67,-3.26721,1.4679,2.298,13.7426,263,0,
6773.67,-3.26782,1.46942,2.298,13.7426,263,0,
6773.67,-3.26721,1.47553,2.298,13.7426,263,0,
6773.68,-3.26843,1.474,2.298,13.7426,263,0,
6773.68,-3.26935,1.4801,2.298,13.7426,263,0,
6773.68,-3.2724,1.474,2.298,13.7426,263,0,
6773.68,-3.27209,1.474,2.298,13.7426,263,0,
6773.68,-3.27271,1.474,2.298,13.7426,263,0,
6773.69,-3.27301,1.47095,2.298,13.7426,263,0,
6773.69,-3.2724,1.47095,2.298,13.7426,263,0,
6773.69,-3.27789,1.47553,2.298,13.7426,263,0,
6773.69,-3.27789,1.47247,2.298,13.7426,263,0,
6773.69,-3.27667,1.48773,2.298,13.7426,263,0,
6773.7,-3.27728,1.48316,2.298,13.7426,263,0,
6773.7,-3.27789,1.48316,2.298,13.7426,263,0,
6773.7,-3.28186,1.48316,2.298,13.7426,263,0,
6773.7,-3.28217,1.48316,2.298,13.7426,263,0,
6773.7,-3.28125,1.48621,2.298,13.7426,263,0,
6773.71,-3.28217,1.48468,2.298,13.7426,263,0,
6773.71,-3.28186,1.48773,2.298,13.7426,263,0,
6773.71,-3.28644,1.48621,2.298,13.7426,263,0,
6773.71,-3.28674,1.48621,2.298,13.7426,263,0,
6773.71,-3.28674,1.48621,2.298,13.7426,263,0,
6773.72,-3.28674,1.48773,2.298,13.7426,263,0,
6773.72,-3.28674,1.48621,2.298,13.7426,263,0,
6773.72,-3.29163,1.48773,2.298,13.7426,263,0,
6773.72,-3.29132,1.48621,2.298,13.7426,263,0,
6773.72,-3.29163,1.48926,2.298,13.7426,263,0,
6773.73,-3.29193,1.48468,2.298,13.7426,263,0,
6773.73,-3.29193,1.48621,2.298,13.7426,263,0,
6773.73,-3.2962,1.48621,2.298,13.7426,263,0,
6773.73,-3.2962,1.49078,2.298,13.7426,263,0,
6773.73,-3.29681,1.48773,2.298,13.7426,263,0,
6773.74,-3.2962,1.48773,2.298,13.7426,263,0,
6773.74,-3.29651,1.48621,2.298,13.7426,263,0,
6773.74,-3.30109,1.48621,2.298,13.7426,263,0,
6773.74,-3.3017,1.48621,2.298,13.7426,263,0,
6773.74,-3.30139,1.48773,2.298,13.7426,263,0,
6773.75,-3.30017,1.48468,2.298,13.7426,263,0,
6773.75,-3.30231,1.48468,2.298,13.7426,263,0,
6773.75,-3.30658,1.48926,2.298,13.7426,263,0,
6773.75,-3.30597,1.49078,2.298,13.7426,263,0,
6773.75,-3.30658,1.48621,2.298,13.7426,263,0,
6773.76,-3.30597,1.48468,2.298,13.7426,263,0,
6773.76,-3.30841,1.48621,2.298,13.7426,263,0,
6773.76,-3.31177,1.48773,2.298,13.7426,263,0,
6773.76,-3.31146,1.48316,2.298,13.7426,263,0,
6773.76,-3.31177,1.48621,2.298,13.7426,263,0,
6773.77,-3.31146,1.48926,2.298,13.7426,263,0,
6773.77,-3.31329,1.48468,2.298,13.7426,263,0,
6773.77,-3.31604,1.48163,2.298,13.7426,263,0,
6773.77,-3.31604,1.49384,2.298,13.7426,263,0,
6773.77,-3.31604,1.49841,2.298,13.7426,263,0,
6773.78,-3.31635,1.49536,2.298,13.7426,263,0,
6773.78,-3.31635,1.49689,2.298,13.7426,263,0,
6773.78,-3.32153,1.49384,2.298,13.7426,263,0,
6773.78,-3.32153,1.49689,2.298,13.7426,263,0,
6773.78,-3.32184,1.49994,2.298,13.7426,263,0,
6773.79,-3.32153,1.49689,2.298,13.7426,263,0,
6773.79,-3.32123,1.49689,2.298,13.7426,263,0,
6773.79,-3.32672,1.49384,2.298,13.7426,263,0,
6773.79,-3.32642,1.49994,2.298,13.7426,263,0,
6773.79,-3.32672,1.49841,2.298,13.7426,263,0,
6773.8,-3.32642,1.49689,2.298,13.7426,263,0,
6773.8,-3.32642,1.49536,2.298,13.7426,263,0,
6773.8,-3.33099,1.50147,2.298,13.7426,263,0,
6773.8,-3.3316,1.49689,2.298,13.7426,263,0,
6773.8,-3.33099,1.49689,2.298,13.7426,263,0,
6773.81,-3.33069,1.49994,2.298,13.7426,263,0,
6773.81,-3.3313,1.49841,2.298,13.7426,263,0,
6773.81,-3.33344,1.49841,2.298,13.7426,263,0,
6773.81,-3.33649,1.49689,2.298,13.7426,263,0,
6773.81,-3.33649,1.49994,2.298,13.7426,263,0,
6773.82,-3.33649,1.49841,2.298,13.7426,263,0,
6773.82,-3.33557,1.49841,2.298,13.7426,263,0,
6773.82,-3.33557,1.49841,2.298,13.7426,263,0,
6773.82,-3.34076,1.49841,2.298,13.7426,263,0,
6773.82,-3.34106,1.49841,2.298,13.7426,263,0,
6773.83,-3.34106,1.49841,2.298,13.7426,263,0,
6773.83,-3.34106,1.49994,2.298,13.7426,263,0,
6773.83,-3.34137,1.49841,2.298,13.7426,263,0,
6773.83,-3.34137,1.49841,2.298,13.7426,263,0,
6773.83,-3.34595,1.49994,2.298,13.7426,263,0,
6773.84,-3.34625,1.49994,2.298,13.7426,263,0,
6773.84,-3.34625,1.5091,2.298,13.7426,263,0,
6773.84,-3.34595,1.5091,2.298,13.7426,263,0,
6773.84,-3.34564,1.5091,2.298,13.7426,263,0,
6773.84,-3.34625,1.51062,2.298,13.7426,263,0,
6773.85,-3.35052,1.51367,2.298,13.7426,263,0,
6773.85,-3.35022,1.51062,2.298,13.7426,263,0,
6773.85,-3.35052,1.51062,2.298,13.7426,263,0,
6773.85,-3.35114,1.51062,2.298,13.7426,263,0,
6773.85,-3.35083,1.51062,2.298,13.7426,263,0,
6773.86,-3.35052,1.51215,2.298,13.7426,263,0,
6773.86,-3.35114,1.51062,2.298,13.7426,263,0,
6773.86,-3.35266,1.51062,2.298,13.7426,263,0,
6773.86,-3.35541,1.51062,2.298,13.7426,263,0,
6773.86,-3.35602,1.51215,2.298,13.7426,263,0,
6773.87,-3.35541,1.5091,2.298,13.7426,263,0,
6773.87,-3.35602,1.5091,2.298,13.7426,263,0,
6773.87,-3.3551,1.51062,2.298,13.7426,263,0,
6773.87,-3.35541,1.51062,2.298,13.7426,263,0,
6773.87,-3.35602,1.5091,2.298,13.7426,263,0,
6773.88,-3.35571,1.5091,2.298,13.7426,263,0,
6773.88,-3.3606,1.51062,2.298,13.7426,263,0,
6773.88,-3.35999,1.5152,2.298,13.7426,263,0,
6773.88,-3.36029,1.51062,2.298,13.7426,263,0,
6773.88,-3.36029,1.51062,2.298,13.7426,263,0,
6773.89,-3.3609,1.51062,2.298,13.7426,263,0,
6773.89,-3.3606,1.50757,2.298,13.7426,263,0,
6773.89,-3.36029,1.5213,2.298,13.7426,263,0,
6773.89,-3.3606,1.5213,2.298,13.7426,263,0,
6773.89,-3.3609,1.52283,2.298,13.7426,263,0,
6773.9,-3.3606,1.51978,2.298,13.7426,263,0,
6773.9,-3.3606,1.51978,2.298,13.7426,263,0,
6773.9,-3.36426,1.52283,2.298,13.7426,263,0,
6773.9,-3.36609,1.5213,2.298,13.7426,263,0,
6773.9,-3.36517,1.51978,2.298,13.7426,263,0,
6773.91,-3.36548,1.52283,2.298,13.7426,263,0,
6773.91,-3.36517,1.52435,2.298,13.7426,263,0,
6773.91,-3.36578,1.52435,2.298,13.7426,263,0,
6773.91,-3.36517,1.52283,2.298,13.7426,263,0,
6773.91,-3.36548,1.52435,2.298,13.7426,263,0,
6773.92,-3.36578,1.52435,2.298,13.7426,263,0,
6773.92,-3.36517,1.52435,2.298,13.7426,263,0,
6773.92,-3.36578,1.52283,2.298,13.7426,263,0,
6773.92,-3.36578,1.52283,2.298,13.7426,263,0,
6773.92,-3.36517,1.52283,2.298,13.7426,263,0,
6773.93,-3.36578,1.5213,2.298,13.7426,263,0,
6773.93,-3.37036,1.52283,2.298,13.7426,263,0,
6773.93,-3.37097,1.52283,2.298,13.7426,263,0,
6773.93,-3.37036,1.5213,2.298,13.7426,263,0,
6773.93,-3.37067,1.52283,2.298,13.7426,263,0,
6773.94,-3.36945,1.52435,2.298,13.7426,263,0,
6773.94,-3.37067,1.5213,2.298,13.7426,263,0,
6773.94,-3.37006,1.52588,2.298,13.7426,263,0,
6773.94,-3.37067,1.52283,2.298,13.7426,263,0,
6773.94,-3.37128,1.52588,2.298,13.7426,263,0,
6773.95,-3.37036,1.52283,2.298,13.7426,263,0,
6773.95,-3.37036,1.52283,2.298,13.7426,263,0,
6773.95,-3.3725,1.52435,2.298,13.7426,263,0,
6773.95,-3.37494,1.52435,2.298,13.7426,263,0,
6773.95,-3.37494,1.5213,2.298,13.7426,263,0,
6773.96,-3.37494,1.51978,2.298,13.7426,263,0,
6773.96,-3.37494,1.52283,2.298,13.7426,263,0,
6773.96,-3.37494,1.52283,2.298,13.7426,263,0,
6773.96,-3.37494,1.5213,2.298,13.7426,263,0,
6773.96,-3.37524,1.51978,2.298,13.7426,263,0,
6773.97,-3.37524,1.51062,2.298,13.7426,263,0,
6773.97,-3.37555,1.51062,2.298,13.7426,263,0,
6773.97,-3.37708,1.5091,2.298,13.7426,263,0,
6773.97,-3.37982,1.51062,2.298,13.7426,263,0,
6773.97,-3.38013,1.5091,2.298,13.7426,263,0,
6773.98,-3.38013,1.5091,2.298,13.7426,263,0,
6773.98,-3.38043,1.51062,2.298,13.7426,263,0,
6773.98,-3.37982,1.51367,2.298,13.7426,263,0,
6773.98,-3.37982,1.51367,2.298,13.7426,263,0,
6773.98,-3.38043,1.50604,2.298,13.7426,263,0,
6773.99,-3.37982,1.51215,2.298,13.7426,263,0,
6773.99,-3.3847,1.5091,2.298,13.7426,263,0,
6773.99,-3.38562,1.51215,2.298,13.7426,263,0,
6773.99,-3.3847,1.51215,2.298,13.7426,263,0,
6773.99,-3.38562,1.51062,2.298,13.7426,263,0,
6774,-3.38531,1.51062,2.298,13.7426,263,0,
6774,-3.38531,1.5091,2.298,13.7426,263,0,
6774,-3.38531,1.51062,2.298,13.7426,263,0,
6774,-3.38379,1.5091,2.298,13.7426,263,0,
6774,-3.38715,1.51062,2.298,13.7426,263,0,
6774.01,-3.3902,1.51062,2.298,13.7426,263,0,
6774.01,-3.38989,1.51062,2.298,13.7426,263,0,
6774.01,-3.3902,1.51062,2.298,13.7426,263,0,
6774.01,-3.38989,1.51062,2.298,13.7426,263,0,
6774.01,-3.38959,1.51062,2.298,13.7426,263,0,
6774.02,-3.3902,1.51062,2.298,13.7426,263,0,
6774.02,-3.38959,1.51062,2.298,13.7426,263,0,
6774.02,-3.39172,1.51062,2.298,13.7426,263,0,
6774.02,-3.39478,1.51062,2.298,13.7426,263,0,
6774.02,-3.39417,1.51062,2.298,13.7426,263,0,
6774.03,-3.39478,1.5091,2.298,13.7426,263,0,
6774.03,-3.39478,1.5091,2.298,13.7426,263,0,
6774.03,-3.39508,1.5091,2.298,13.7426,263,0,
6774.03,-3.39478,1.51215,2.298,13.7426,263,0,
6774.03,-3.39569,1.50757,2.298,13.7426,263,0,
6774.04,-3.39966,1.5091,2.298,13.7426,263,0,
6774.04,-3.39996,1.5091,2.298,13.7426,263,0,
6774.04,-3.39966,1.51215,2.298,13.7426,263,0,
6774.04,-3.40027,1.51367,2.298,13.7426,263,0,
6774.04,-3.39996,1.5091,2.298,13.7426,263,0,
6774.05,-3.40027,1.51062,2.298,13.7426,263,0,
6774.05,-3.40027,1.50757,2.298,13.7426,263,0,
6774.05,-3.40179,1.51062,2.298,13.7426,263,0,
6774.05,-3.40454,1.51215,2.298,13.7426,263,0,
6774.05,-3.40485,1.5091,2.298,13.7426,263,0,
6774.06,-3.40546,1.51367,2.298,13.7426,263,0,
6774.06,-3.40454,1.50757,2.298,13.7426,263,0,
6774.06,-3.40485,1.51062,2.298,13.7426,263,0,
6774.06,-3.40485,1.51062,2.298,13.7426,263,0,
6774.06,-3.40515,1.50757,2.298,13.7426,263,0,
6774.07,-3.40851,1.50757,2.298,13.7426,263,0,
6774.07,-3.40973,1.5091,2.298,13.7426,263,0,
6774.07,-3.40942,1.51062,2.298,13.7426,263,0,
6774.07,-3.41034,1.5091,2.298,13.7426,263,0,
6774.07,-3.40942,1.51062,2.298,13.7426,263,0,
6774.08,-3.41034,1.51062,2.298,13.7426,263,0,
6774.08,-3.40942,1.5091,2.298,13.7426,263,0,
6774.08,-3.40973,1.5091,2.298,13.7426,263,0,
6774.08,-3.41461,1.51062,2.298,13.7426,263,0,
6774.08,-3.41431,1.5091,2.298,13.7426,263,0,
6774.09,-3.41461,1.51062,2.298,13.7426,263,0,
6774.09,-3.41492,1.5091,2.298,13.7426,263,0,
6774.09,-3.41431,1.5091,2.298,13.7426,263,0,
6774.09,-3.41431,1.51367,2.298,13.7426,263,0,
6774.09,-3.41492,1.51215,2.298,13.7426,263,0,
6774.1,-3.41431,1.50757,2.298,13.7426,263,0,
6774.1,-3.41949,1.51062,2.298,13.7426,263,0,
6774.1,-3.41949,1.51062,2.298,13.7426,263,0,
6774.1,-3.4198,1.51215,2.298,13.7426,263,0,
6774.1,-3.41949,1.51062,2.298,13.7426,263,0,
6774.11,-3.41858,1.50604,2.298,13.7426,263,0,
6774.11,-3.41949,1.5091,2.298,13.7426,263,0,
6774.11,-3.41919,1.5091,2.298,13.7426,263,0,
6774.11,-3.41949,1.51062,2.298,13.7426,263,0,
6774.11,-3.42438,1.51367,2.298,13.7426,263,0,
6774.12,-3.42438,1.51062,2.298,13.7426,263,0,
6774.12,-3.42468,1.5091,2.298,13.7426,263,0,
6774.12,-3.42407,1.51062,2.298,13.7426,263,0,
6774.12,-3.42438,1.5091,2.298,13.7426,263,0,
6774.12,-3.42377,1.5091,2.298,13.7426,263,0,
6774.13,-3.42438,1.51215,2.298,13.7426,263,0,
6774.13,-3.42407,1.51215,2.298,13.7426,263,0,
6774.13,-3.42468,1.50299,2.298,13.7426,263,0,
6774.13,-3.42834,1.49841,2.298,13.7426,263,0,
6774.13,-3.42957,1.49841,2.298,13.7426,263,0,
6774.14,-3.42957,1.49536,2.298,13.7426,263,0,
6774.14,-3.42987,1.49536,2.298,13.7426,263,0,
6774.14,-3.42896,1.49689,2.298,13.7426,263,0,
6774.14,-3.42957,1.49841,2.298,13.7426,263,0,
6774.14,-3.42926,1.49689,2.298,13.7426,263,0,
6774.15,-3.42926,1.49841,2.298,13.7426,263,0,
6774.15,-3.42957,1.49994,2.298,13.7426,263,0,
6774.15,-3.42896,1.49841,2.298,13.7426,263,0,
6774.15,-3.42926,1.49841,2.298,13.7426,263,0,
6774.15,-3.42987,1.49994,2.298,13.7426,263,0,
6774.16,-3.42957,1.49841,2.298,13.7426,263,0,
6774.16,-3.43414,1.49994,2.298,13.7426,263,0,
6774.16,-3.43445,1.49841,2.298,13.7426,263,0,
6774.16,-3.43445,1.49841,2.298,13.7426,263,0,
6774.16,-3.43414,1.49536,2.298,13.7426,263,0,
6774.17,-3.43445,1.49994,2.298,13.7426,263,0,
6774.17,-3.43414,1.49536,2.298,13.7426,263,0,
6774.17,-3.43384,1.49994,2.298,13.7426,263,0,
6774.17,-3.43445,1.49841,2.298,13.7426,263,0,
6774.17,-3.43384,1.49689,2.298,13.7426,263,0,
6774.18,-3.43384,1.49689,2.298,13.7426,263,0,
6774.18,-3.43414,1.49994,2.298,13.7426,263,0,
6774.18,-3.43323,1.49689,2.298,13.7426,263,0,
6774.18,-3.43445,1.49841,2.298,13.7426,263,0,
6774.18,-3.43384,1.49841,2.298,13.7426,263,0,
6774.19,-3.43384,1.49689,2.298,13.7426,263,0,
6774.19,-3.43475,1.49536,2.298,13.7426,263,0,
6774.19,-3.43475,1.49841,2.298,13.7426,263,0,
6774.19,-3.43414,1.49841,2.298,13.7426,263,0,
6774.19,-3.43384,1.49841,2.298,13.7426,263,0,
6774.2,-3.4314,1.49841,2.298,13.7426,263,0,
6774.2,-3.43048,1.49841,2.298,13.7426,263,0,
6774.2,-3.42926,1.49841,2.298,13.7426,263,0,
6774.2,-3.42926,1.49689,2.298,13.7426,263,0,
6774.2,-3.42957,1.49536,2.298,13.7426,263,0,
6774.21,-3.42926,1.49841,2.298,13.7426,263,0,
6774.21,-3.42926,1.49689,2.298,13.7426,263,0,
6774.21,-3.42957,1.49536,2.298,13.7426,263,0,
6774.21,-3.42926,1.49994,2.298,13.7426,263,0,
6774.21,-3.42896,1.49841,2.298,13.7426,263,0,
6774.22,-3.42896,1.49689,2.298,13.7426,263,0,
6774.22,-3.42926,1.50299,2.298,13.7426,263,0,
6774.22,-3.42926,1.49994,2.298,13.7426,263,0,
6774.22,-3.42468,1.49994,2.298,13.7426,263,0,
6774.22,-3.42407,1.49841,2.298,13.7426,263,0,
6774.23,-3.42499,1.49841,2.298,13.7426,263,0,
6774.23,-3.42377,1.49689,2.298,13.7426,263,0,
6774.23,-3.42438,1.49689,2.298,13.7426,263,0,
6774.23,-3.42499,1.49536,2.298,13.7426,263,0,
6774.23,-3.42468,1.49689,2.298,13.7426,263,0,
6774.24,-3.4198,1.49689,2.298,13.7426,263,0,
6774.24,-3.41888,1.49994,2.298,13.7426,263,0,
6774.24,-3.41949,1.49841,2.298,13.7426,263,0,
6774.24,-3.41949,1.49841,2.298,13.7426,263,0,
6774.24,-3.41919,1.49841,2.298,13.7426,263,0,
6774.25,-3.41736,1.49994,2.298,13.7426,263,0,
6774.25,-3.41461,1.49841,2.298,13.7426,263,0,
6774.25,-3.41461,1.49689,2.298,13.7426,263,0,
6774.25,-3.41522,1.50147,2.298,13.7426,263,0,
6774.25,-3.41431,1.49536,2.298,13.7426,263,0,
6774.26,-3.41064,1.49689,2.298,13.7426,263,0,
6774.26,-3.40973,1.49689,2.298,13.7426,263,0,
6774.26,-3.41003,1.49994,2.298,13.7426,263,0,
6774.26,-3.41034,1.49689,2.298,13.7426,263,0,
6774.26,-3.40607,1.50147,2.298,13.7426,263,0,
6774.27,-3.40424,1.49841,2.298,13.7426,263,0,
6774.27,-3.40485,1.49841,2.298,13.7426,263,0,
6774.27,-3.40515,1.49689,2.298,13.7426,263,0,
6774.27,-3.40027,1.49841,2.298,13.7426,263,0,
6774.27,-3.39935,1.49841,2.298,13.7426,263,0,
6774.28,-3.39966,1.49689,2.298,13.7426,263,0,
6774.28,-3.39844,1.49841,2.298,13.7426,263,0,
6774.28,-3.39508,1.49536,2.298,13.7426,263,0,
6774.28,-3.39508,1.49689,2.298,13.7426,263,0,
6774.28,-3.39294,1.49841,2.298,13.7426,263,0,
6774.29,-3.38989,1.49536,2.298,13.7426,263,0,
6774.29,-3.3905,1.49536,2.298,13.7426,263,0,
6774.29,-3.38776,1.49689,2.298,13.7426,263,0,
6774.29,-3.38501,1.49841,2.298,13.7426,263,0,
6774.29,-3.3847,1.51215,2.298,13.7426,263,0,
6774.3,-3.38043,1.5091,2.298,13.7426,263,0,
6774.3,-3.38013,1.51062,2.298,13.7426,263,0,
6774.3,-3.38013,1.51062,2.298,13.7426,263,0,
6774.3,-3.37616,1.51215,2.298,13.7426,263,0,
6774.3,-3.37524,1.51215,2.298,13.7426,263,0,
6774.31,-3.37372,1.51062,2.298,13.7426,263,0,
6774.31,-3.37097,1.5091,2.298,13.7426,263,0,
6774.31,-3.37006,1.51062,2.298,13.7426,263,0,
6774.31,-3.36609,1.51062,2.298,13.7426,263,0,
6774.31,-3.36548,1.51215,2.298,13.7426,263,0,
6774.32,-3.36121,1.5091,2.298,13.7426,263,0,
6774.32,-3.3606,1.5091,2.298,13.7426,263,0,
6774.32,-3.35815,1.51062,2.298,13.7426,263,0,
6774.32,-3.35541,1.51062,2.298,13.7426,263,0,
6774.32,-3.35571,1.51062,2.298,13.7426,263,0,
6774.33,-3.35052,1.51062,2.298,13.7426,263,0,
6774.33,-3.35052,1.51215,2.298,13.7426,263,0,
6774.33,-3.34595,1.51215,2.298,13.7426,263,0,
6774.33,-3.34534,1.51062,2.298,13.7426,263,0,
6774.33,-3.34106,1.51062,2.298,13.7426,263,0,
6774.34,-3.34076,1.51062,2.298,13.7426,263,0,
6774.34,-3.33618,1.51215,2.298,13.7426,263,0,
6774.34,-3.33344,1.51215,2.298,13.7426,263,0,
6774.34,-3.33099,1.51062,2.298,13.7426,263,0,
6774.34,-3.32703,1.5091,2.298,13.7426,263,0,
6774.35,-3.32611,1.51062,2.298,13.7426,263,0,
6774.35,-3.32153,1.51367,2.298,13.7426,263,0,
6774.35,-3.31909,1.51367,2.298,13.7426,263,0,
6774.35,-3.31635,1.51215,2.298,13.7426,263,0,
6774.35,-3.31085,1.51062,2.298,13.7426,263,0,
6774.36,-3.30933,1.5091,2.298,13.7426,263,0,
6774.36,-3.30597,1.51062,2.298,13.7426,263,0,
6774.36,-3.3017,1.51062,2.298,13.7426,263,0,
6774.36,-3.29742,1.51062,2.298,13.7426,263,0,
6774.36,-3.29498,1.51062,2.298,13.7426,263,0,
6774.37,-3.29163,1.5091,2.298,13.7426,263,0,
6774.37,-3.28705,1.51062,2.298,13.7426,263,0,
6774.37,-3.28217,1.50757,2.298,13.7426,263,0,
6774.37,-3.27789,1.5091,2.298,13.7426,263,0,
6774.37,-3.27332,1.50757,2.298,13.7426,263,0,
6774.38,-3.27026,1.5091,2.298,13.7426,263,0,
6774.38,-3.26538,1.5091,2.298,13.7426,263,0,
6774.38,-3.2608,1.51062,2.298,13.7426,263,0,
6774.38,-3.25592,1.5152,2.298,13.7426,263,0,
6774.38,-3.25073,1.5091,2.298,13.7426,263,0,
6774.39,-3.24615,1.51062,2.298,13.7426,263,0,
6774.39,-3.24127,1.51367,2.298,13.7426,263,0,
6774.39,-3.23608,1.5152,2.298,13.7426,263,0,
6774.39,-3.23151,1.51062,2.298,13.7426,263,0,
6774.39,-3.22418,1.51215,2.298,13.7426,263,0,
6774.4,-3.21991,1.51215,2.298,13.7426,263,0,
6774.4,-3.21411,1.51062,2.298,13.7426,263,0,
6774.4,-3.20892,1.51215,2.298,13.7426,263,0,
6774.4,-3.20435,1.51062,2.298,13.7426,263,0,
6774.4,-3.19641,1.51062,2.298,13.7426,263,0,
6774.41,-3.19183,1.51062,2.298,13.7426,263,0,
6774.41,-3.18512,1.51062,2.298,13.7426,263,0,
6774.41,-3.17932,1.51062,2.298,13.7426,263,0,
6774.41,-3.172,1.51062,2.298,13.7426,263,0,
6774.41,-3.16528,1.51062,2.298,13.7426,263,0,
6774.42,-3.15918,1.5091,2.298,13.7426,263,0,
6774.42,-3.15277,1.51062,2.298,13.7426,263,0,
6774.42,-3.14514,1.50757,2.298,13.7426,263,0,
6774.42,-3.14026,1.5091,2.298,13.7426,263,0,
6774.42,-3.1308,1.5091,2.298,13.7426,263,0,
6774.43,-3.12592,1.5091,2.298,13.7426,263,0,
6774.43,-3.11676,1.51215,2.298,13.7426,263,0,
6774.43,-3.11127,1.51215,2.298,13.7426,263,0,
6774.43,-3.1015,1.51215,2.298,13.7426,263,0,
6774.43,-3.09418,1.51215,2.298,13.7426,263,0,
6774.44,-3.08716,1.51062,2.298,13.7426,263,0,
6774.44,-3.07892,1.51215,2.298,13.7426,263,0,
6774.44,-3.06976,1.51062,2.298,13.7426,263,0,
6774.44,-3.06366,1.51062,2.298,13.7426,263,0,
6774.44,-3.05267,1.50757,2.298,13.7426,263,0,
6774.45,-3.04535,1.51062,2.298,13.7426,263,0,
6774.45,-3.0365,1.5091,2.298,13.7426,263,0,
6774.45,-3.02826,1.51062,2.298,13.7426,263,0,
6774.45,-3.01819,1.51062,2.298,13.7426,263,0,
6774.45,-3.00903,1.51062,2.298,13.7426,263,0,
6774.46,-3.0011,1.5152,2.298,13.7426,263,0,
6774.46,-2.99072,1.51062,2.298,13.7426,263,0,
6774.46,-2.98126,1.51215,2.298,13.7426,263,0,
6774.46,-2.97119,1.5091,2.298,13.7426,263,0,
6774.46,-2.96173,1.51215,2.298,13.7426,263,0,
6774.47,-2.95197,1.5091,2.298,13.7426,263,0,
6774.47,-2.9422,1.51215,2.298,13.7426,263,0,
6774.47,-2.93213,1.51062,2.298,13.7426,263,0,
6774.47,-2.92236,1.5091,2.298,13.7426,263,0,
6774.47,-2.91016,1.51215,2.298,13.7426,263,0,
6774.48,-2.9007,1.50757,2.298,13.7426,263,0,
6774.48,-2.89154,1.51367,2.298,13.7426,263,0,
6774.48,-2.87811,1.51215,2.298,13.7426,263,0,
6774.48,-2.86865,1.5091,2.298,13.7426,263,0,
6774.48,-2.85706,1.51062,2.298,13.7426,263,0,
6774.49,-2.84637,1.51062,2.298,13.7426,263,0,
6774.49,-2.83447,1.51062,2.298,13.7426,263,0,
6774.49,-2.82379,1.5091,2.298,13.7426,263,0,
6774.49,-2.81219,1.51062,2.298,13.7426,263,0,
6774.49,-2.8006,1.51367,2.298,13.7426,263,0,
6774.5,-2.78992,1.51215,2.298,13.7426,263,0,
6774.5,-2.77863,1.51215,2.298,13.7426,263,0,
6774.5,-2.76672,1.51062,2.298,13.7426,263,0,
6774.5,-2.75513,1.51215,2.298,13.7426,263,0,
6774.5,-2.74139,1.5091,2.298,13.7426,263,0,
6774.51,-2.73071,1.50757,2.298,13.7426,263,0,
6774.51,-2.71942,1.51062,2.298,13.7426,263,0,
6774.51,-2.7066,1.5091,2.298,13.7426,263,0,
6774.51,-2.69501,1.5091,2.298,13.7426,263,0,
6774.51,-2.6825,1.50757,2.298,13.7426,263,0,
6774.52,-2.67059,1.5091,2.298,13.7426,263,0,
6774.52,-2.65778,1.51215,2.298,13.7426,263,0,
6774.52,-2.64374,1.51062,2.298,13.7426,263,0,
6774.52,-2.63336,1.5091,2.298,13.7426,263,0,
6774.52,-2.61932,1.5091,2.298,13.7426,263,0,
6774.53,-2.60651,1.51367,2.298,13.7426,263,0,
6774.53,-2.5943,1.51062,2.298,13.7426,263,0,
6774.53,-2.58209,1.51062,2.298,13.7426,263,0,
6774.53,-2.56958,1.50757,2.298,13.7426,263,0,
6774.53,-2.55554,1.51062,2.298,13.7426,263,0,
6774.54,-2.54333,1.51062,2.298,13.7426,263,0,
6774.54,-2.53052,1.50757,2.298,13.7426,263,0,
6774.54,-2.51678,1.51062,2.298,13.7426,263,0,
6774.54,-2.50153,1.5152,2.298,13.7426,263,0,
6774.54,-2.48901,1.51215,2.298,13.7426,263,0,
6774.55,-2.4765,1.51215,2.298,13.7426,263,0,
6774.55,-2.46246,1.51062,2.298,13.7426,263,0,
6774.55,-2.44751,1.51215,2.298,13.7426,263,0,
6774.55,-2.43469,1.51062,2.298,13.7426,263,0,
6774.55,-2.42249,1.5091,2.298,13.7426,263,0,
6774.56,-2.40814,1.51062,2.298,13.7426,263,0,
6774.56,-2.39349,1.51215,2.298,13.7426,263,0,
6774.56,-2.37946,1.5091,2.298,13.7426,263,0,
6774.56,-2.36542,1.50757,2.298,13.7426,263,0,
6774.56,-2.35199,1.5091,2.298,13.7426,263,0,
6774.57,-2.33795,1.51215,2.298,13.7426,263,0,
6774.57,-2.323,1.51062,2.298,13.7426,263,0,
6774.57,-2.31079,1.51062,2.298,13.7426,263,0,
6774.57,-2.29614,1.51062,2.298,13.7426,263,0,
6774.57,-2.28119,1.51062,2.298,13.7426,263,0,
6774.58,-2.26654,1.51062,2.298,13.7426,263,0,
6774.58,-2.25159,1.51215,2.298,13.7426,263,0,
6774.58,-2.23724,1.50757,2.298,13.7426,263,0,
6774.58,-2.2226,1.51367,2.298,13.7426,263,0,
6774.58,-2.20703,1.51367,2.298,13.7426,263,0,
6774.59,-2.19208,1.51062,2.298,13.7426,263,0,
6774.59,-2.1759,1.51215,2.298,13.7426,263,0,
6774.59,-2.16064,1.50757,2.298,13.7426,263,0,
6774.59,-2.14539,1.51062,2.298,13.7426,263,0,
6774.59,-2.13043,1.51215,2.298,13.7426,263,0,
6774.6,-2.11456,1.51062,2.298,13.7426,263,0,
6774.6,-2.09991,1.51215,2.298,13.7426,263,0,
6774.6,-2.08496,1.51215,2.298,13.7426,263,0,
6774.6,-2.06787,1.51062,2.298,13.7426,263,0,
6774.6,-2.05139,1.51062,2.298,13.7426,263,0,
6774.61,-2.03613,1.51062,2.298,13.7426,263,0,
6774.61,-2.02148,1.5091,2.298,13.7426,263,0,
6774.61,-2.00653,1.5091,2.298,13.7426,263,0,
6774.61,-1.98792,1.51062,2.298,13.7426,263,0,
6774.61,-1.97235,1.51367,2.298,13.7426,263,0,
6774.62,-1.95709,1.5091,2.298,13.7426,263,0,
6774.62,-1.94092,1.5091,2.298,13.7426,263,0,
6774.62,-1.92413,1.51062,2.298,13.7426,263,0,
6774.62,-1.90826,1.51062,2.298,13.7426,263,0,
6774.62,-1.88965,1.51367,2.298,13.7426,263,0,
6774.63,-1.87469,1.5091,2.298,13.7426,263,0,
6774.63,-1.85913,1.5091,2.298,13.7426,263,0,
6774.63,-1.84021,1.51215,2.298,13.7426,263,0,
6774.63,-1.82587,1.51215,2.298,13.7426,263,0,
6774.63,-1.80664,1.51215,2.298,13.7426,263,0,
6774.64,-1.79138,1.51215,2.298,13.7426,263,0,
6774.64,-1.77368,1.51215,2.298,13.7426,263,0,
6774.64,-1.75751,1.51215,2.298,13.7426,263,0,
6774.64,-1.73981,1.51062,2.298,13.7426,263,0,
6774.64,-1.72302,1.51062,2.298,13.7426,263,0,
6774.65,-1.70563,1.51215,2.298,13.7426,263,0,
6774.65,-1.68915,1.5091,2.298,13.7426,263,0,
6774.65,-1.67114,1.51215,2.298,13.7426,263,0,
6774.65,-1.65405,1.51062,2.298,13.7426,263,0,
6774.65,-1.63666,1.50147,2.298,13.7426,263,0,
6774.66,-1.62018,1.49841,2.298,13.7426,263,0,
6774.66,-1.60034,1.49841,2.298,13.7426,263,0,
6774.66,-1.586,1.49536,2.298,13.7426,263,0,
6774.66,-1.56647,1.49841,2.298,13.7426,263,0,
6774.66,-1.55243,1.49841,2.298,13.7426,263,0,
6774.67,-1.53198,1.50299,2.298,13.7426,263,0,
6774.67,-1.51367,1.49536,2.298,13.7426,263,0,
6774.67,-1.49719,1.49994,2.298,13.7426,263,0,
6774.67,-1.47766,1.49689,2.298,13.7426,263,0,
6774.67,-1.46301,1.49841,2.298,13.7426,263,0,
6774.68,-1.44348,1.49536,2.298,13.7426,263,0,
6774.68,-1.42731,1.48773,2.298,13.7426,263,0,
6774.68,-1.40839,1.48468,2.298,13.7426,263,0,
6774.68,-1.38947,1.48773,2.298,13.7426,263,0,
6774.68,-1.37482,1.48773,2.298,13.7426,263,0,
6774.69,-1.35498,1.48621,2.298,13.7426,263,0,
6774.69,-1.33972,1.48621,2.298,13.7426,263,0,
6774.69,-1.32111,1.48468,2.298,13.7426,263,0,
6774.69,-1.30127,1.474,2.298,13.7426,263,0,
6774.69,-1.28693,1.47247,2.298,13.7426,263,0,
6774.7,-1.26709,1.474,2.298,13.7426,263,0,
6774.7,-1.24969,1.47247,2.298,13.7426,263,0,
6774.7,-1.23352,1.474,2.298,13.7426,263,0,
6774.7,-1.21368,1.47247,2.298,13.7426,263,0,
6774.7,-1.19843,1.46179,2.298,13.7426,263,0,
6774.71,-1.17889,1.46179,2.298,13.7426,263,0,
6774.71,-1.16211,1.46179,2.298,13.7426,263,0,
6774.71,-1.14532,1.46332,2.298,13.7426,263,0,
6774.71,-1.12549,1.46179,2.298,13.7426,263,0,
6774.71,-1.11084,1.46027,2.298,13.7426,263,0,
6774.72,-1.09161,1.45111,2.298,13.7426,263,0,
6774.72,-1.07391,1.44959,2.298,13.7426,263,0,
6774.72,-1.05682,1.45416,2.298,13.7426,263,0,
6774.72,-1.0376,1.44653,2.298,13.7426,263,0,
6774.72,-1.02264,1.44501,2.298,13.7426,263,0,
6774.73,-1.00311,1.43738,2.298,13.7426,263,0,
6774.73,-0.984192,1.44043,2.298,13.7426,263,0,
6774.73,-0.968018,1.43585,2.298,13.7426,263,0,
6774.73,-0.949097,1.43585,2.298,13.7426,263,0,
6774.73,-0.934753,1.42822,2.298,13.7426,263,0,
6774.74,-0.915222,1.42517,2.298,13.7426,263,0,
6774.74,-0.899963,1.4267,2.298,13.7426,263,0,
6774.74,-0.880737,1.42517,2.298,13.7426,263,0,
6774.74,-0.862732,1.41296,2.298,13.7426,263,0,
6774.74,-0.846863,1.41449,2.298,13.7426,263,0,
6774.75,-0.826416,1.41296,2.298,13.7426,263,0,
6774.75,-0.812073,1.41144,2.298,13.7426,263,0,
6774.75,-0.792236,1.40228,2.298,13.7426,263,0,
6774.75,-0.777283,1.40228,2.298,13.7426,263,0,
6774.75,-0.758057,1.40228,2.298,13.7426,263,0,
6774.76,-0.743103,1.40076,2.298,13.7426,263,0,
6774.76,-0.723877,1.40381,2.298,13.7426,263,0,
6774.76,-0.708313,1.38702,2.298,13.7426,263,0,
6774.76,-0.688782,1.38855,2.298,13.7426,263,0,
6774.76,-0.673523,1.38702,2.298,13.7426,263,0,
6774.77,-0.655823,1.38702,2.298,13.7426,263,0,
6774.77,-0.638733,1.3855,2.298,13.7426,263,0,
6774.77,-0.620728,1.3916,2.298,13.7426,263,0,
6774.77,-0.606384,1.38092,2.298,13.7426,263,0,
6774.77,-0.586548,1.3794,2.298,13.7426,263,0,
6774.78,-0.571289,1.37482,2.298,13.7426,263,0,
6774.78,-0.551758,1.37634,2.298,13.7426,263,0,
6774.78,-0.537415,1.37634,2.298,13.7426,263,0,
6774.78,-0.519409,1.37634,2.298,13.7426,263,0,
6774.78,-0.503235,1.37634,2.298,13.7426,263,0,
6774.79,-0.487061,1.36261,2.298,13.7426,263,0,
6774.79,-0.469055,1.36414,2.298,13.7426,263,0,
6774.79,-0.453491,1.36566,2.298,13.7426,263,0,
6774.79,-0.436096,1.36261,2.298,13.7426,263,0,
6774.79,-0.419922,1.36566,2.298,13.7426,263,0,
6774.8,-0.403748,1.36261,2.298,13.7426,263,0,
6774.8,-0.385742,1.36261,2.298,13.7426,263,0,
6774.8,-0.370483,1.36566,2.298,13.7426,263,0,
6774.8,-0.35553,1.36414,2.298,13.7426,263,0,
6774.8,-0.336304,1.36261,2.298,13.7426,263,0,
6774.81,-0.32196,1.34888,2.298,13.7426,263,0,
6774.81,-0.306702,1.3504,2.298,13.7426,263,0,
6774.81,-0.289307,1.35193,2.298,13.7426,263,0,
6774.81,-0.272827,1.35193,2.298,13.7426,263,0,
6774.81,-0.257568,1.35193,2.298,13.7426,263,0,
6774.82,-0.24231,1.35193,2.298,13.7426,263,0,
6774.82,-0.225525,1.35193,2.298,13.7426,263,0,
6774.82,-0.20874,1.3504,2.298,13.7426,263,0,
6774.82,-0.194397,1.35193,2.298,13.7426,263,0,
6774.82,-0.178223,1.34888,2.298,13.7426,263,0,
6774.83,-0.163269,1.3504,2.298,13.7426,263,0,
6774.83,-0.1474,1.3504,2.298,13.7426,263,0,
6774.83,-0.130615,1.35193,2.298,13.7426,263,0,
6774.83,-0.115662,1.35193,2.298,13.7426,263,0,
6774.83,-0.101318,1.34888,2.298,13.7426,263,0,
6774.84,-0.0860596,1.3504,2.298,13.7426,263,0,
6774.84,-0.0704956,1.35193,2.298,13.7426,263,0,
6774.84,-0.0564575,1.3504,2.298,13.7426,263,0,
6774.84,-0.0411987,1.35193,2.298,13.7426,263,0,
6774.84,-0.0241089,1.35346,2.298,13.7426,263,0,
6774.85,-0.0238037,1.35346,2.298,13.7426,263,0,
6774.85,-0.0238037,1.34888,2.298,13.7426,263,0,
6774.85,0.0131226,1.35193,2.298,13.7426,263,0,
6774.85,0.03479,1.35193,2.298,13.7426,263,0,
6774.85,0.0488281,1.35193,2.298,13.7426,263,0,
6774.86,0.0619507,1.3504,2.298,13.7426,263,0,
6774.86,0.0762939,1.35346,2.298,13.7426,263,0,
6774.86,0.0906372,1.3504,2.298,13.7426,263,0,
6774.86,0.104675,1.35346,2.298,13.7426,263,0,
6774.86,0.119324,1.35193,2.298,13.7426,263,0,
6774.87,0.134888,1.35193,2.298,13.7426,263,0,
6774.87,0.146484,1.35193,2.298,13.7426,263,0,
6774.87,0.15686,1.3504,2.298,13.7426,263,0,
6774.87,0.157166,1.35193,2.298,13.7426,263,0,
6774.87,0.157471,1.3504,2.298,13.7426,263,0,
6774.88,0.157166,1.3504,2.298,13.7426,263,0,
6774.88,0.157471,1.35193,2.298,13.7426,263,0,
6774.88,0.21637,1.34888,2.298,13.7426,263,0,
6774.88,0.24231,1.3504,2.298,13.7426,263,0,
6774.88,0.254211,1.35193,2.298,13.7426,263,0,
6774.89,0.267334,1.3504,2.298,13.7426,263,0,
6774.89,0.280457,1.35193,2.298,13.7426,263,0,
6774.89,0.294189,1.35346,2.298,13.7426,263,0,
6774.89,0.306702,1.3504,2.298,13.7426,263,0,
6774.89,0.318298,1.3504,2.298,13.7426,263,0,
6774.9,0.330811,1.35193,2.298,13.7426,263,0,
6774.9,0.343323,1.35193,2.298,13.7426,263,0,
6774.9,0.35553,1.34735,2.298,13.7426,263,0,
6774.9,0.367432,1.34888,2.298,13.7426,263,0,
6774.9,0.380249,1.3504,2.298,13.7426,263,0,
6774.91,0.391541,1.34888,2.298,13.7426,263,0,
6774.91,0.403748,1.35193,2.298,13.7426,263,0,
6774.91,0.414124,1.3504,2.298,13.7426,263,0,
6774.91,0.426331,1.34735,2.298,13.7426,263,0,
6774.91,0.439148,1.3504,2.298,13.7426,263,0,
6774.92,0.447998,1.34735,2.298,13.7426,263,0,
6774.92,0.460815,1.35193,2.298,13.7426,263,0,
6774.92,0.470581,1.35193,2.298,13.7426,263,0,
6774.92,0.482788,1.35193,2.298,13.7426,263,0,
6774.92,0.492249,1.35346,2.298,13.7426,263,0,
6774.93,0.503845,1.34888,2.298,13.7426,263,0,
6774.93,0.514526,1.3504,2.298,13.7426,263,0,
6774.93,0.524292,1.34888,2.298,13.7426,263,0,
6774.93,0.534058,1.35193,2.298,13.7426,263,0,
6774.93,0.543823,1.3504,2.298,13.7426,263,0,
6774.94,0.553894,1.3382,2.298,13.7426,263,0,
6774.94,0.563965,1.3382,2.298,13.7426,263,0,
6774.94,0.57373,1.3382,2.298,13.7426,263,0,
6774.94,0.582886,1.33667,2.298,13.7426,263,0,
6774.94,0.592346,1.3382,2.298,13.7426,263,0,
6774.95,0.602722,1.34277,2.298,13.7426,263,0,
6774.95,0.612793,1.34125,2.298,13.7426,263,0,
6774.95,0.620117,1.34125,2.298,13.7426,263,0,
6774.95,0.630188,1.34125,2.298,13.7426,263,0,
6774.95,0.637512,1.34125,2.298,13.7426,263,0,
6774.96,0.646362,1.33972,2.298,13.7426,263,0,
6774.96,0.654602,1.3382,2.298,13.7426,263,0,
6774.96,0.661926,1.34125,2.298,13.7426,263,0,
6774.96,0.671082,1.33972,2.298,13.7426,263,0,
6774.96,0.678711,1.33667,2.298,13.7426,263,0,
6774.97,0.68573,1.32752,2.298,13.7426,263,0,
6774.97,0.693359,1.32752,2.298,13.7426,263,0,
6774.97,0.700684,1.32599,2.298,13.7426,263,0,
6774.97,0.708008,1.32599,2.298,13.7426,263,0,
6774.97,0.715027,1.32599,2.298,13.7426,263,0,
6774.98,0.722961,1.32446,2.298,13.7426,263,0,
6774.98,0.730591,1.32599,2.298,13.7426,263,0,
6774.98,0.735168,1.32752,2.298,13.7426,263,0,
6774.98,0.743103,1.32599,2.298,13.7426,263,0,
6774.98,0.749817,1.32599,2.298,13.7426,263,0,
6774.99,0.7547,1.32904,2.298,13.7426,263,0,
6774.99,0.760193,1.32599,2.298,13.7426,263,0,
6774.99,0.764771,1.32446,2.298,13.7426,263,0,
6774.99,0.77179,1.32752,2.298,13.7426,263,0,
6774.99,0.776672,1.32752,2.298,13.7426,263,0,
6775,0.78186,1.32446,2.298,13.7426,263,0,
6775,0.788879,1.31226,2.298,13.7426,263,0,
6775,0.793152,1.31531,2.298,13.7426,263,0,
6775,0.796509,1.31378,2.298,13.7426,263,0,
6775,0.801392,1.31531,2.298,13.7426,263,0,
6775.01,0.805969,1.31531,2.298,13.7426,263,0,
6775.01,0.809326,1.31836,2.298,13.7426,263,0,
6775.01,0.814209,1.31531,2.298,13.7426,263,0,
6775.01,0.818176,1.31531,2.298,13.7426,263,0,
6775.01,0.822754,1.31836,2.298,13.7426,263,0,
6775.02,0.825806,1.31378,2.298,13.7426,263,0,
6775.02,0.828857,1.31683,2.298,13.7426,263,0,
6775.02,0.83374,1.31531,2.298,13.7426,263,0,
6775.02,0.835266,1.31531,2.298,13.7426,263,0,
6775.02,0.838928,1.31531,2.298,13.7426,263,0,
6775.03,0.84259,1.31226,2.298,13.7426,263,0,
6775.03,0.844116,1.31531,2.298,13.7426,263,0,
6775.03,0.847778,1.31531,2.298,13.7426,263,0,
6775.03,0.848083,1.31378,2.298,13.7426,263,0,
6775.03,0.852966,1.31378,2.298,13.7426,263,0,
6775.04,0.852356,1.31531,2.298,13.7426,263,0,
6775.04,0.853271,1.31531,2.298,13.7426,263,0,
6775.04,0.857849,1.32904,2.298,13.7426,263,0,
6775.04,0.858459,1.32599,2.298,13.7426,263,0,
6775.04,0.858154,1.32599,2.298,13.7426,263,0,
6775.05,0.862427,1.32904,2.298,13.7426,263,0,
6775.05,0.863342,1.32904,2.298,13.7426,263,0,
6775.05,0.863037,1.32599,2.298,13.7426,263,0,
6775.05,0.863037,1.3382,2.298,13.7426,263,0,
6775.05,0.863037,1.34125,2.298,13.7426,263,0,
6775.06,0.862732,1.34125,2.298,13.7426,263,0,
6775.06,0.863342,1.33972,2.298,13.7426,263,0,
6775.06,0.862427,1.34125,2.298,13.7426,263,0,
6775.06,0.863037,1.35346,2.298,13.7426,263,0,
6775.06,0.863037,1.35346,2.298,13.7426,263,0,
6775.07,0.863037,1.3504,2.298,13.7426,263,0,
6775.07,0.863647,1.34735,2.298,13.7426,263,0,
6775.07,0.862122,1.34888,2.298,13.7426,263,0,
6775.07,0.858154,1.36566,2.298,13.7426,263,0,
6775.07,0.857849,1.36261,2.298,13.7426,263,0,
6775.08,0.857849,1.36414,2.298,13.7426,263,0,
6775.08,0.852966,1.36261,2.298,13.7426,263,0,
6775.08,0.853271,1.37177,2.298,13.7426,263,0,
6775.08,0.85144,1.37482,2.298,13.7426,263,0,
6775.08,0.848999,1.37634,2.298,13.7426,263,0,
6775.09,0.843811,1.37634,2.298,13.7426,263,0,
6775.09,0.842896,1.37482,2.298,13.7426,263,0,
6775.09,0.838623,1.38855,2.298,13.7426,263,0,
6775.09,0.835876,1.39008,2.298,13.7426,263,0,
6775.09,0.833435,1.38702,2.298,13.7426,263,0,
6775.1,0.828857,1.38855,2.298,13.7426,263,0,
6775.1,0.82489,1.38855,2.298,13.7426,263,0,
6775.1,0.819397,1.39923,2.298,13.7426,263,0,
6775.1,0.816956,1.40076,2.298,13.7426,263,0,
6775.1,0.811768,1.39771,2.298,13.7426,263,0,
6775.11,0.80719,1.39923,2.298,13.7426,263,0,
6775.11,0.802612,1.39923,1.74,13.7426,263,0,
6775.11,0.796814,1.41449,1.74,13.7426,263,0,
6775.11,0.792847,1.41449,1.74,13.7426,263,0,
6775.11,0.785217,1.41144,1.74,13.7426,263,0,
6775.12,0.78064,1.41449,1.74,13.7426,263,0,
6775.12,0.775146,1.41296,1.74,13.7426,263,0,
6775.12,0.767822,1.42059,1.74,13.7426,263,0,
6775.12,0.761108,1.4267,1.74,13.7426,263,0,
6775.12,0.755615,1.42517,1.74,13.7426,263,0,
6775.13,0.748901,1.42365,1.74,13.7426,263,0,
6775.13,0.741577,1.42517,1.74,13.7426,263,0,
6775.13,0.735474,1.4267,1.74,13.7426,263,0,
6775.13,0.726624,1.4267,1.74,13.7426,263,0,
6775.13,0.72113,1.43738,1.74,13.7426,263,0,
6775.14,0.71167,1.43585,1.74,13.7426,263,0,
6775.14,0.704041,1.4389,1.74,13.7426,263,0,
6775.14,0.697021,1.43738,1.74,13.7426,263,0,
6775.14,0.689392,1.43585,1.74,13.7426,263,0,
6775.14,0.679321,1.43585,1.74,13.7426,263,0,
6775.15,0.672607,1.43738,1.74,13.7426,263,0,
6775.15,0.662842,1.43433,1.74,13.7426,263,0,
6775.15,0.655212,1.4389,1.74,13.7426,263,0,
6775.15,0.645447,1.45264,1.74,13.7426,263,0,
6775.15,0.636597,1.45264,1.74,13.7426,263,0,
6775.16,0.628052,1.44806,1.74,13.7426,263,0,
6775.16,0.618896,1.45416,1.74,13.7426,263,0,
6775.16,0.609436,1.44806,1.74,13.7426,263,0,
6775.16,0.599976,1.45111,1.74,13.7426,263,0,
6775.16,0.589294,1.44959,1.74,13.7426,263,0,
6775.17,0.579834,1.44959,1.74,13.7426,263,0,
6775.17,0.570068,1.44959,1.74,13.7426,263,0,
6775.17,0.557861,1.45264,1.74,13.7426,263,0,
6775.17,0.54718,1.45111,1.74,13.7426,263,0,
6775.17,0.53772,1.45111,1.74,13.7426,263,0,
6775.18,0.527649,1.44959,1.74,13.7426,263,0,
6775.18,0.515747,1.45111,1.74,13.7426,263,0,
6775.18,0.505676,1.46179,1.74,13.7426,263,0,
6775.18,0.493469,1.46179,1.74,13.7426,263,0,
6775.18,0.484009,1.46027,1.74,13.7426,263,0,
6775.19,0.471497,1.46179,1.74,13.7426,263,0,
6775.19,0.4599,1.46179,1.74,13.7426,263,0,
6775.19,0.449829,1.46027,1.74,13.7426,263,0,
6775.19,0.436096,1.46332,1.74,13.7426,263,0,
6775.19,0.424805,1.46179,1.74,13.7426,263,0,
6775.2,0.412903,1.46027,1.74,13.7426,263,0,
6775.2,0.400696,1.46027,1.74,13.7426,263,0,
6775.2,0.385742,1.46027,1.74,13.7426,263,0,
6775.2,0.375977,1.46484,1.74,13.7426,263,0,
6775.2,0.361633,1.46179,1.74,13.7426,263,0,
6775.21,0.349426,1.46027,1.74,13.7426,263,0,
6775.21,0.336609,1.45874,1.74,13.7426,263,0,
6775.21,0.323486,1.46332,1.74,13.7426,263,0,
6775.21,0.308838,1.46179,1.74,13.7426,263,0,
6775.21,0.295715,1.46027,1.74,13.7426,263,0,
6775.22,0.280762,1.46027,1.74,13.7426,263,0,
6775.22,0.26825,1.46179,1.74,13.7426,263,0,
6775.22,0.253296,1.46332,1.74,13.7426,263,0,
6775.22,0.238647,1.46484,1.74,13.7426,263,0,
6775.22,0.224304,1.45874,1.74,13.7426,263,0,
6775.23,0.210571,1.46179,1.74,13.7426,263,0,
6775.23,0.195312,1.46179,1.74,13.7426,263,0,
6775.23,0.180054,1.46179,1.74,13.7426,263,0,
6775.23,0.165405,1.46332,1.74,13.7426,263,0,
6775.23,0.150757,1.46179,1.74,13.7426,263,0,
6775.24,0.133972,1.46332,1.74,13.7426,263,0,
6775.24,0.116882,1.46027,1.74,13.7426,263,0,
6775.24,0.102539,1.46179,1.74,13.7426,263,0,
6775.24,0.0869751,1.46179,1.74,13.7426,263,0,
6775.24,0.0708008,1.46179,1.74,13.7426,263,0,
6775.25,0.0537109,1.46332,1.74,13.7426,263,0,
6775.25,0.038147,1.46179,1.74,13.7426,263,0,
6775.25,0.0216675,1.46484,1.74,13.7426,263,0,
6775.25,0.00518799,1.46332,1.74,13.7426,263,0,
6775.25,-0.0100708,1.46484,1.74,13.7426,263,0,
6775.26,-0.0292969,1.46179,1.74,13.7426,263,0,
6775.26,-0.0436401,1.46332,1.74,13.7426,263,0,
6775.26,-0.0634766,1.46332,1.74,13.7426,263,0,
6775.26,-0.0790405,1.46179,1.74,13.7426,263,0,
6775.26,-0.0982666,1.46179,1.74,13.7426,263,0,
6775.27,-0.102539,1.46027,1.74,13.7426,263,0,
6775.27,-0.102539,1.46027,1.74,13.7426,263,0,
6775.27,-0.140686,1.46027,1.74,13.7426,263,0,
6775.27,-0.166931,1.45874,1.74,13.7426,263,0,
6775.27,-0.182495,1.46332,1.74,13.7426,263,0,
6775.28,-0.185242,1.47553,1.74,13.7426,263,0,
6775.28,-0.185852,1.474,1.74,13.7426,263,0,
6775.28,-0.228271,1.47553,1.74,13.7426,263,0,
6775.28,-0.255127,1.474,1.74,13.7426,263,0,
6775.28,-0.274963,1.47247,1.74,13.7426,263,0,
6775.29,-0.292358,1.47247,1.74,13.7426,263,0,
6775.29,-0.308838,1.474,1.74,13.7426,263,0,
6775.29,-0.328674,1.47247,1.74,13.7426,263,0,
6775.29,-0.347595,1.47553,1.74,13.7426,263,0,
6775.29,-0.368042,1.47247,1.74,13.7426,263,0,
6775.3,-0.38269,1.47705,1.74,13.7426,263,0,
6775.3,-0.402222,1.47247,1.74,13.7426,263,0,
6775.3,-0.421753,1.46942,1.74,13.7426,263,0,
6775.3,-0.440979,1.474,1.74,13.7426,263,0,
6775.3,-0.46051,1.47553,1.74,13.7426,263,0,
6775.31,-0.480042,1.47247,1.74,13.7426,263,0,
6775.31,-0.500488,1.47553,1.74,13.7426,263,0,
6775.31,-0.52002,1.48468,1.74,13.7426,263,0,
6775.31,-0.534973,1.48316,1.74,13.7426,263,0,
6775.31,-0.554199,1.48621,1.74,13.7426,263,0,
6775.32,-0.57312,1.48926,1.74,13.7426,263,0,
6775.32,-0.593262,1.48621,1.74,13.7426,263,0,
6775.32,-0.613098,1.48926,1.74,13.7426,263,0,
6775.32,-0.631714,1.48621,1.74,13.7426,263,0,
6775.32,-0.652466,1.48621,1.74,13.7426,263,0,
6775.33,-0.671692,1.48621,1.74,13.7426,263,0,
6775.33,-0.691528,1.48468,1.74,13.7426,263,0,
6775.33,-0.711365,1.48621,1.74,13.7426,263,0,
6775.33,-0.72998,1.48468,1.74,13.7426,263,0,
6775.33,-0.7547,1.48773,1.74,13.7426,263,0,
6775.34,-0.774841,1.48316,1.74,13.7426,263,0,
6775.34,-0.794373,1.48621,1.74,13.7426,263,0,
6775.34,-0.813904,1.48468,1.74,13.7426,263,0,
6775.34,-0.83374,1.48621,1.74,13.7426,263,0,
6775.34,-0.853271,1.48773,1.74,13.7426,263,0,
6775.35,-0.872803,1.48621,1.74,13.7426,263,0,
6775.35,-0.891724,1.48621,1.74,13.7426,263,0,
6775.35,-0.91156,1.48468,1.74,13.7426,263,0,
6775.35,-0.931396,1.48773,1.74,13.7426,263,0,
6775.35,-0.951538,1.48468,1.74,13.7426,263,0,
6775.36,-0.970154,1.48621,1.74,13.7426,263,0,
6775.36,-0.990906,1.48621,1.74,13.7426,263,0,
6775.36,-1.01501,1.48926,1.74,13.7426,263,0,
6775.36,-1.03516,1.48773,1.74,13.7426,263,0,
6775.36,-1.05438,1.48621,1.74,13.7426,263,0,
6775.37,-1.0733,1.49689,1.74,13.7426,263,0,
6775.37,-1.09344,1.49689,1.74,13.7426,263,0,
6775.37,-1.11237,1.50147,1.74,13.7426,263,0,
6775.37,-1.13251,1.49994,1.74,13.7426,263,0,
6775.37,-1.15204,1.49841,1.74,13.7426,263,0,
6775.38,-1.17218,1.49841,1.74,13.7426,263,0,
6775.38,-1.1908,1.50147,1.74,13.7426,263,0,
6775.38,-1.21063,1.49994,1.74,13.7426,263,0,
6775.38,-1.23108,1.49689,1.74,13.7426,263,0,
6775.38,-1.24939,1.49994,1.74,13.7426,263,0,
6775.39,-1.26923,1.50147,1.74,13.7426,263,0,
6775.39,-1.28906,1.49841,1.74,13.7426,263,0,
6775.39,-1.30859,1.50147,1.74,13.7426,263,0,
6775.39,-1.32782,1.49689,1.74,13.7426,263,0,
6775.39,-1.34827,1.50299,1.74,13.7426,263,0,
6775.4,-1.36719,1.49689,1.74,13.7426,263,0,
6775.4,-1.38702,1.49841,1.74,13.7426,263,0,
6775.4,-1.40656,1.49994,1.74,13.7426,263,0,
6775.4,-1.4267,1.49994,1.74,13.7426,263,0,
6775.4,-1.44623,1.49689,1.74,13.7426,263,0,
6775.41,-1.46484,1.49841,1.74,13.7426,263,0,
6775.41,-1.4856,1.49689,1.74,13.7426,263,0,
6775.41,-1.50513,1.49689,1.74,13.7426,263,0,
6775.41,-1.52466,1.49841,1.74,13.7426,263,0,
6775.41,-1.54388,1.49841,1.74,13.7426,263,0,
6775.42,-1.56128,1.50147,1.74,13.7426,263,0,
6775.42,-1.57776,1.50147,1.74,13.7426,263,0,
6775.42,-1.59698,1.49994,1.74,13.7426,263,0,
6775.42,-1.61743,1.49689,1.74,13.7426,263,0,
6775.42,-1.63696,1.49841,1.74,13.7426,263,0,
6775.43,-1.6568,1.49841,1.74,13.7426,263,0,
6775.43,-1.67145,1.49689,1.74,13.7426,263,0,
6775.43,-1.69037,1.49536,1.74,13.7426,263,0,
6775.43,-1.71082,1.49994,1.74,13.7426,263,0,
6775.43,-1.73004,1.49994,1.74,13.7426,263,0,
6775.44,-1.745,1.49384,1.74,13.7426,263,0,
6775.44,-1.76361,1.49689,1.74,13.7426,263,0,
6775.44,-1.78345,1.49841,1.74,13.7426,263,0,
6775.44,-1.79901,1.50299,1.74,13.7426,263,0,
6775.44,-1.81793,1.49689,1.74,13.7426,263,0,
6775.45,-1.83807,1.49994,1.74,13.7426,263,0,
6775.45,-1.85242,1.49994,1.74,13.7426,263,0,
6775.45,-1.87195,1.49994,1.74,13.7426,263,0,
6775.45,-1.88721,1.49994,1.74,13.7426,263,0,
6775.45,-1.90674,1.49841,1.74,13.7426,263,0,
6775.46,-1.92444,1.49994,1.74,13.7426,263,0,
6775.46,-1.94092,1.49689,1.74,13.7426,263,0,
6775.46,-1.9577,1.49994,1.74,13.7426,263,0,
6775.46,-1.9751,1.50299,1.74,13.7426,263,0,
6775.46,-1.99219,1.5091,1.74,13.7426,263,0,
6775.47,-2.00928,1.5091,1.74,13.7426,263,0,
6775.47,-2.02667,1.51215,1.74,13.7426,263,0,
6775.47,-2.04285,1.51215,1.74,13.7426,263,0,
6775.47,-2.05902,1.51062,1.74,13.7426,263,0,
6775.47,-2.07764,1.5091,1.74,13.7426,263,0,
6775.48,-2.09259,1.51062,1.74,13.7426,263,0,
6775.48,-2.1106,1.51367,1.74,13.7426,263,0,
6775.48,-2.12646,1.51062,1.74,13.7426,263,0,
6775.48,-2.14142,1.51062,1.74,13.7426,263,0,
6775.48,-2.15942,1.51215,1.74,13.7426,263,0,
6775.49,-2.17651,1.51215,1.74,13.7426,263,0,
6775.49,-2.19116,1.5091,1.74,13.7426,263,0,
6775.49,-2.20825,1.5091,1.74,13.7426,263,0,
6775.49,-2.22504,1.50757,1.74,13.7426,263,0,
6775.49,-2.23999,1.5091,1.74,13.7426,263,0,
6775.5,-2.25464,1.51215,1.74,13.7426,263,0,
6775.5,-2.27173,1.51062,1.74,13.7426,263,0,
6775.5,-2.28912,1.51062,1.74,13.7426,263,0,
6775.5,-2.30286,1.50757,1.74,13.7426,263,0,
6775.5,-2.31781,1.51215,1.74,13.7426,263,0,
6775.51,-2.33368,1.51062,1.74,13.7426,263,0,
6775.51,-2.34772,1.51062,1.74,13.7426,263,0,
6775.51,-2.36481,1.51062,1.74,13.7426,263,0,
6775.51,-2.3822,1.51367,1.74,13.7426,263,0,
6775.51,-2.39655,1.50757,1.74,13.7426,263,0,
6775.52,-2.41089,1.51367,1.74,13.7426,263,0,
6775.52,-2.42523,1.51062,1.74,13.7426,263,0,
6775.52,-2.4411,1.51062,1.74,13.7426,263,0,
6775.52,-2.45544,1.51062,1.74,13.7426,263,0,
6775.52,-2.4704,1.50757,1.74,13.7426,263,0,
6775.53,-2.48505,1.5091,1.74,13.7426,263,0,
6775.53,-2.50031,1.50757,1.74,13.7426,263,0,
6775.53,-2.51434,1.5091,1.74,13.7426,263,0,
6775.53,-2.53082,1.5091,1.74,13.7426,263,0,
6775.53,-2.54608,1.50452,1.74,13.7426,263,0,
6775.54,-2.56042,1.49994,1.74,13.7426,263,0,
6775.54,-2.57751,1.49536,1.74,13.7426,263,0,
6775.54,-2.59216,1.49841,1.74,13.7426,263,0,
6775.54,-2.60651,1.49689,1.74,13.7426,263,0,
6775.54,-2.62177,1.49841,1.74,13.7426,263,0,
6775.55,-2.63672,1.49536,1.74,13.7426,263,0,
6775.55,-2.65137,1.49689,1.74,13.7426,263,0,
6775.55,-2.66571,1.49384,1.74,13.7426,263,0,
6775.55,-2.68066,1.49841,1.74,13.7426,263,0,
6775.55,-2.69806,1.50147,1.74,13.7426,263,0,
6775.56,-2.71393,1.49689,1.74,13.7426,263,0,
6775.56,-2.72919,1.49689,1.74,13.7426,263,0,
6775.56,-2.74384,1.50147,1.74,13.7426,263,0,
6775.56,-2.75879,1.49841,1.74,13.7426,263,0,
6775.56,-2.77618,1.49689,1.74,13.7426,263,0,
6775.57,-2.79327,1.50147,1.74,13.7426,263,0,
6775.57,-2.80762,1.49841,1.74,13.7426,263,0,
6775.57,-2.82196,1.49841,1.74,13.7426,263,0,
6775.57,-2.83691,1.49841,1.74,13.7426,263,0,
6775.57,-2.85614,1.49994,1.74,13.7426,263,0,
6775.58,-2.87079,1.49994,1.74,13.7426,263,0,
6775.58,-2.88605,1.49689,1.74,13.7426,263,0,
6775.58,-2.90405,1.49841,1.74,13.7426,263,0,
6775.58,-2.92023,1.49994,1.74,13.7426,263,0,
6775.58,-2.93488,1.50147,1.74,13.7426,263,0,
6775.59,-2.95074,1.49536,1.74,13.7426,263,0,
6775.59,-2.96967,1.49689,1.74,13.7426,263,0,
6775.59,-2.98462,1.49994,1.74,13.7426,263,0,
6775.59,-2.99957,1.50147,1.74,13.7426,263,0,
6775.59,-3.0188,1.49689,1.74,13.7426,263,0,
6775.6,-3.03406,1.49841,1.74,13.7426,263,0,
6775.6,-3.04901,1.49841,1.74,13.7426,263,0,
6775.6,-3.06793,1.49841,1.74,13.7426,263,0,
6775.6,-3.08258,1.49841,1.74,13.7426,263,0,
6775.6,-3.09753,1.49689,1.74,13.7426,263,0,
6775.61,-3.11676,1.49841,1.74,13.7426,263,0,
6775.61,-3.1308,1.49841,1.74,13.7426,263,0,
6775.61,-3.14667,1.50147,1.74,13.7426,263,0,
6775.61,-3.1662,1.50147,1.74,13.7426,263,0,
6775.61,-3.18054,1.49994,1.74,13.7426,263,0,
6775.62,-3.19641,1.49841,1.74,13.7426,263,0,
6775.62,-3.21503,1.49841,1.74,13.7426,263,0,
6775.62,-3.22937,1.49689,1.74,13.7426,263,0,
6775.62,-3.24463,1.49689,1.74,13.7426,263,0,
6775.62,-3.26141,1.49841,1.74,13.7426,263,0,
6775.63,-3.2785,1.49841,1.74,13.7426,263,0,
6775.63,-3.29285,1.49841,1.74,13.7426,263,0,
6775.63,-3.31055,1.49536,1.74,13.7426,263,0,
6775.63,-3.32703,1.49689,1.74,13.7426,263,0,
6775.63,-3.3429,1.49841,1.74,13.7426,263,0,
6775.64,-3.35754,1.49841,1.74,13.7426,263,0,
6775.64,-3.37616,1.49994,1.74,13.7426,263,0,
6775.64,-3.39081,1.49841,1.74,13.7426,263,0,
6775.64,-3.40607,1.49994,1.74,13.7426,263,0,
6775.64,-3.42346,1.49689,1.74,13.7426,263,0,
6775.65,-3.43994,1.50147,1.74,13.7426,263,0,
6775.65,-3.4549,1.49994,1.74,13.7426,263,0,
6775.65,-3.46954,1.49994,1.74,13.7426,263,0,
