4400-SECPT.acq
2 msec/sample
6 channels
RSP, X, RSPEC-R
Volts
EDA, Y, PPGED-R
microsiemens
ECG R-R
Seconds
Respiration Rate
BPM
C7 - EDR
Peaks
C14 - Control
Volts
sec,CH1,CH14,CH40,CH42,CH47,CH54,
,23960,23960,23960,23960,23960,23960,
11946,3.55499,5.53894,0.46,9.12964,750,5,
11946,3.55347,5.54199,0.46,9.12964,750,5,
11946,3.55347,5.54047,0.46,9.12964,750,5,
11946,3.55286,5.54199,0.46,9.12964,750,5,
11946,3.54828,5.54199,0.46,9.12964,750,5,
11946,3.54797,5.53742,0.46,9.12964,750,5,
11946,3.54797,5.54047,0.46,9.12964,750,5,
11946,3.5437,5.54352,0.46,9.12964,750,5,
11946,3.5434,5.54199,0.46,9.12964,750,5,
11946,3.5437,5.54199,0.46,9.12964,750,5,
11946,3.54218,5.54199,0.46,9.12964,750,5,
11946,3.53912,5.54504,0.46,9.12964,750,5,
11946,3.53851,5.54199,0.46,9.12964,750,5,
11946,3.53851,5.53742,0.46,9.12964,750,5,
11946,3.53455,5.54962,0.46,9.12964,750,5,
11946,3.53394,5.55267,0.46,9.12964,750,5,
11946,3.53363,5.54962,0.46,9.12964,750,5,
11946,3.53241,5.55573,0.46,9.12964,750,5,
11946,3.52875,5.55267,0.46,9.12964,750,5,
11946,3.52875,5.5542,0.46,9.12964,750,5,
11946,3.52875,5.55267,0.46,9.12964,750,5,
11946,3.52448,5.5481,0.46,9.12964,750,5,
11946,3.52356,5.5542,0.46,9.12964,750,5,
11946,3.52356,5.54962,0.46,9.12964,750,5,
11946,3.52295,5.5542,0.46,9.12964,750,5,
11946,3.5199,5.55267,0.46,9.12964,750,5,
11946,3.51929,5.55267,0.46,9.12964,750,5,
11946,3.51898,5.55267,0.46,9.12964,750,5,
11946,3.5144,5.5542,0.46,9.12964,750,5,
11946,3.5141,5.55115,0.46,9.12964,750,5,
11946,3.5141,5.55267,0.46,9.12964,750,5,
11946,3.5144,5.55115,0.46,9.12964,750,5,
11946,3.50861,5.55115,0.46,9.12964,750,5,
11946,3.50922,5.55115,0.46,9.12964,750,5,
11946,3.50983,5.5542,0.46,9.12964,750,5,
11946,3.50586,5.5603,0.46,9.12964,750,5,
11946,3.50555,5.56793,0.46,9.12964,750,5,
11946,3.50433,5.56488,0.46,9.12964,750,5,
11946,3.50433,5.56488,0.46,9.12964,750,5,
11946,3.49976,5.56641,0.46,9.12964,750,5,
11946,3.49945,5.56641,0.46,9.12964,750,5,
11946,3.50006,5.56336,0.46,9.12964,750,5,
11946,3.49976,5.56641,0.46,9.12964,750,5,
11946.1,3.49457,5.56488,0.46,9.12964,750,5,
11946.1,3.49426,5.56641,0.46,9.12964,750,5,
11946.1,3.49396,5.56488,0.46,9.12964,750,5,
11946.1,3.49518,5.56488,0.46,9.12964,750,5,
11946.1,3.48969,5.56793,0.46,9.12964,750,5,
11946.1,3.48969,5.56641,0.46,9.12964,750,5,
11946.1,3.4906,5.56488,0.46,9.12964,750,5,
11946.1,3.48846,5.56488,0.46,9.12964,750,5,
11946.1,3.48419,5.56488,0.46,9.12964,750,5,
11946.1,3.4845,5.56488,0.46,9.12964,750,5,
11946.1,3.4848,5.56488,0.46,9.12964,750,5,
11946.1,3.48389,5.56488,0.46,9.12964,750,5,
11946.1,3.47961,5.58014,0.46,9.12964,750,5,
11946.1,3.47931,5.57556,0.46,9.12964,750,5,
11946.1,3.48022,5.57709,0.46,9.12964,750,5,
11946.1,3.4787,5.57709,0.46,9.12964,750,5,
11946.1,3.47473,5.57556,0.46,9.12964,750,5,
11946.1,3.47595,5.57861,0.46,9.12964,750,5,
11946.1,3.47443,5.57404,0.46,9.12964,750,5,
11946.1,3.47443,5.58014,0.46,9.12964,750,5,
11946.1,3.47015,5.57556,0.46,9.12964,750,5,
11946.1,3.47046,5.57556,0.46,9.12964,750,5,
11946.1,3.47076,5.57404,0.46,9.12964,750,5,
11946.1,3.46954,5.57709,0.46,9.12964,750,5,
11946.1,3.46527,5.57556,0.46,9.12964,750,5,
11946.1,3.46497,5.57556,0.46,9.12964,750,5,
11946.1,3.46527,5.57556,0.46,9.12964,750,5,
11946.1,3.46619,5.57556,0.46,9.12964,750,5,
11946.1,3.45978,5.58014,0.46,9.12964,750,5,
11946.1,3.46008,5.57709,0.46,9.12964,750,5,
11946.1,3.46008,5.58777,0.46,9.12964,750,5,
11946.1,3.45978,5.58777,0.46,9.12964,750,5,
11946.1,3.45642,5.59235,0.46,9.12964,750,5,
11946.1,3.45551,5.58624,0.46,9.12964,750,5,
11946.1,3.45581,5.5954,0.46,9.12964,750,5,
11946.1,3.4552,5.5893,0.46,9.12964,750,5,
11946.1,3.4552,5.59082,0.46,9.12964,750,5,
11946.1,3.45093,5.58777,0.46,9.12964,750,5,
11946.1,3.45093,5.58624,0.46,9.12964,750,5,
11946.1,3.45032,5.5893,0.46,9.12964,750,5,
11946.1,3.45032,5.5893,0.46,9.12964,750,5,
11946.1,3.44696,5.59082,0.46,9.12964,750,5,
11946.1,3.44574,5.5893,0.46,9.12964,750,5,
11946.1,3.44543,5.58777,0.46,9.12964,750,5,
11946.1,3.44574,5.59082,0.46,9.12964,750,5,
11946.1,3.44482,5.5893,0.46,9.12964,750,5,
11946.1,3.44269,5.5893,0.46,9.12964,750,5,
11946.1,3.44055,5.5893,0.46,9.12964,750,5,
11946.1,3.44147,5.60455,0.46,9.12964,750,5,
11946.1,3.44086,5.6015,0.46,9.12964,750,5,
11946.2,3.44055,5.6015,0.46,9.12964,750,5,
11946.2,3.4375,5.6015,0.46,9.12964,750,5,
11946.2,3.43597,5.6015,0.46,9.12964,750,5,
11946.2,3.43597,5.6015,0.46,9.12964,750,5,
11946.2,3.43536,5.60608,0.46,9.12964,750,5,
11946.2,3.43658,5.59998,0.46,9.12964,750,5,
11946.2,3.43628,5.5954,0.46,9.12964,750,5,
11946.2,3.4317,5.60455,0.46,9.12964,750,5,
11946.2,3.4314,5.59998,0.46,9.12964,750,5,
11946.2,3.4317,5.60455,0.46,9.12964,750,5,
11946.2,3.43109,5.6015,0.46,9.12964,750,5,
11946.2,3.43231,5.59998,0.46,9.12964,750,5,
11946.2,3.43109,5.6015,0.46,9.12964,750,5,
11946.2,3.42651,5.60303,0.46,9.12964,750,5,
11946.2,3.42651,5.60455,0.46,9.12964,750,5,
11946.2,3.42682,5.61218,0.46,9.12964,750,5,
11946.2,3.42621,5.61371,0.46,9.12964,750,5,
11946.2,3.4256,5.61524,0.46,9.12964,750,5,
11946.2,3.42499,5.61371,0.46,9.12964,750,5,
11946.2,3.42102,5.61066,0.46,9.12964,750,5,
11946.2,3.42072,5.61524,0.46,9.12964,750,5,
11946.2,3.42072,5.61218,0.46,9.12964,750,5,
11946.2,3.42072,5.61524,0.46,9.12964,750,5,
11946.2,3.42102,5.61524,0.46,9.12964,750,5,
11946.2,3.42041,5.61066,0.46,9.12964,750,5,
11946.2,3.41736,5.61371,0.46,9.12964,750,5,
11946.2,3.41583,5.61218,0.46,9.12964,750,5,
11946.2,3.41675,5.61524,0.46,9.12964,750,5,
11946.2,3.41583,5.61371,0.46,9.12964,750,5,
11946.2,3.41644,5.61371,0.46,9.12964,750,5,
11946.2,3.41583,5.61524,0.46,9.12964,750,5,
11946.2,3.41614,5.61524,0.46,9.12964,750,5,
11946.2,3.41278,5.62286,0.46,9.12964,750,5,
11946.2,3.41156,5.62897,0.46,9.12964,750,5,
11946.2,3.41217,5.62744,0.46,9.12964,750,5,
11946.2,3.41095,5.62592,0.46,9.12964,750,5,
11946.2,3.41095,5.63049,0.46,9.12964,750,5,
11946.2,3.41064,5.62744,0.46,9.12964,750,5,
11946.2,3.41125,5.62744,0.46,9.12964,750,5,
11946.2,3.41156,5.62286,0.46,9.12964,750,5,
11946.2,3.4082,5.62286,0.46,9.12964,750,5,
11946.2,3.40637,5.62439,0.46,9.12964,750,5,
11946.2,3.40668,5.62286,0.46,9.12964,750,5,
11946.2,3.40607,5.62439,0.46,9.12964,750,5,
11946.2,3.40729,5.62744,0.46,9.12964,750,5,
11946.2,3.40668,5.62744,0.46,9.12964,750,5,
11946.2,3.40637,5.62439,0.46,9.12964,750,5,
11946.2,3.40698,5.62286,0.46,9.12964,750,5,
11946.2,3.40668,5.63965,0.46,9.12964,750,5,
11946.2,3.40546,5.63812,0.46,9.12964,750,5,
11946.3,3.40179,5.63812,0.46,9.12964,750,5,
11946.3,3.40149,5.63965,0.46,9.12964,750,5,
11946.3,3.40149,5.63965,0.46,9.12964,750,5,
11946.3,3.4021,5.6366,0.46,9.12964,750,5,
11946.3,3.40179,5.6366,0.46,9.12964,750,5,
11946.3,3.40179,5.6366,0.46,9.12964,750,5,
11946.3,3.40118,5.6366,0.46,9.12964,750,5,
11946.3,3.40179,5.63812,0.46,9.12964,750,5,
11946.3,3.4021,5.6366,0.46,9.12964,750,5,
11946.3,3.40118,5.63812,0.46,9.12964,750,5,
11946.3,3.40149,5.63812,0.46,9.12964,750,5,
11946.3,3.39752,5.6366,0.46,9.12964,750,5,
11946.3,3.39722,5.6427,0.46,9.12964,750,5,
11946.3,3.3963,5.65033,0.46,9.12964,750,5,
11946.3,3.3963,5.6488,0.46,9.12964,750,5,
11946.3,3.39691,5.65186,0.46,9.12964,750,5,
11946.3,3.39722,5.6488,0.46,9.12964,750,5,
11946.3,3.39661,5.65186,0.46,9.12964,750,5,
11946.3,3.3963,5.6488,0.46,9.12964,750,5,
11946.3,3.3963,5.65033,0.46,9.12964,750,5,
11946.3,3.39691,5.65186,0.46,9.12964,750,5,
11946.3,3.39722,5.65186,0.46,9.12964,750,5,
11946.3,3.39661,5.65033,0.46,9.12964,750,5,
11946.3,3.39691,5.65033,0.46,9.12964,750,5,
11946.3,3.39691,5.65033,0.46,9.12964,750,5,
11946.3,3.39691,5.64575,0.46,9.12964,750,5,
11946.3,3.39233,5.64728,0.46,9.12964,750,5,
11946.3,3.39172,5.65338,0.46,9.12964,750,5,
11946.3,3.39233,5.66406,0.46,9.12964,750,5,
11946.3,3.39233,5.66406,0.46,9.12964,750,5,
11946.3,3.39203,5.65949,0.46,9.12964,750,5,
11946.3,3.39294,5.66406,0.46,9.12964,750,5,
11946.3,3.39264,5.66406,0.46,9.12964,750,5,
11946.3,3.39172,5.66406,0.46,9.12964,750,5,
11946.3,3.39264,5.66101,0.46,9.12964,750,5,
11946.3,3.39264,5.66406,0.46,9.12964,750,5,
11946.3,3.39264,5.66101,0.46,9.12964,750,5,
11946.3,3.39203,5.66101,0.46,9.12964,750,5,
11946.3,3.39233,5.65949,0.46,9.12964,750,5,
11946.3,3.39233,5.66406,0.46,9.12964,750,5,
11946.3,3.39203,5.65949,0.46,9.12964,750,5,
11946.3,3.39233,5.66254,0.46,9.12964,750,5,
11946.3,3.39233,5.66101,0.46,9.12964,750,5,
11946.3,3.39172,5.66712,0.46,9.12964,750,5,
11946.3,3.39142,5.67474,0.46,9.12964,750,5,
11946.3,3.39264,5.67322,0.46,9.12964,750,5,
11946.3,3.39233,5.6778,0.46,9.12964,750,5,
11946.3,3.39172,5.67627,0.46,9.12964,750,5,
11946.3,3.39233,5.67627,0.46,9.12964,750,5,
11946.4,3.39203,5.67474,0.46,9.12964,750,5,
11946.4,3.39172,5.67474,0.46,9.12964,750,5,
11946.4,3.39203,5.67474,0.46,9.12964,750,5,
11946.4,3.39172,5.67627,0.46,9.12964,750,5,
11946.4,3.39172,5.67627,0.46,9.12964,750,5,
11946.4,3.39233,5.67474,0.46,9.12964,750,5,
11946.4,3.39203,5.67627,0.46,9.12964,750,5,
11946.4,3.39264,5.6778,0.46,9.12964,750,5,
11946.4,3.39233,5.67322,0.46,9.12964,750,5,
11946.4,3.39203,5.67474,0.46,9.12964,750,5,
11946.4,3.39203,5.67474,0.46,9.12964,750,5,
11946.4,3.39172,5.6839,0.46,9.12964,750,5,
11946.4,3.39203,5.6839,0.46,9.12964,750,5,
11946.4,3.39203,5.68543,0.46,9.12964,750,5,
11946.4,3.39203,5.6839,0.46,9.12964,750,5,
11946.4,3.39203,5.68848,0.46,9.12964,750,5,
11946.4,3.39172,5.68695,0.46,9.12964,750,5,
11946.4,3.39264,5.68848,0.46,9.12964,750,5,
11946.4,3.39264,5.68695,0.46,9.12964,750,5,
11946.4,3.39233,5.68695,0.46,9.12964,750,5,
11946.4,3.39233,5.68237,0.46,9.12964,750,5,
11946.4,3.39172,5.69,0.46,9.12964,750,5,
11946.4,3.39142,5.68695,0.46,9.12964,750,5,
11946.4,3.39172,5.68543,0.46,9.12964,750,5,
11946.4,3.39203,5.68695,0.46,9.12964,750,5,
11946.4,3.39203,5.68848,0.46,9.12964,750,5,
11946.4,3.39172,5.68695,0.46,9.12964,750,5,
11946.4,3.39233,5.68695,0.46,9.12964,750,5,
11946.4,3.39264,5.68848,0.46,9.12964,750,5,
11946.4,3.39233,5.69611,0.46,9.12964,750,5,
11946.4,3.39233,5.69916,0.46,9.12964,750,5,
11946.4,3.39172,5.69763,0.46,9.12964,750,5,
11946.4,3.39142,5.70068,0.46,9.12964,750,5,
11946.4,3.39142,5.69763,0.46,9.12964,750,5,
11946.4,3.39142,5.69916,0.46,9.12964,750,5,
11946.4,3.39203,5.69763,0.46,9.12964,750,5,
11946.4,3.39203,5.69763,0.46,9.12964,750,5,
11946.4,3.39203,5.69916,0.46,9.12964,750,5,
11946.4,3.39142,5.69763,0.46,9.12964,750,5,
11946.4,3.39172,5.69763,0.46,9.12964,750,5,
11946.4,3.39203,5.70068,0.46,9.12964,750,5,
11946.4,3.39172,5.69763,0.46,9.12964,750,5,
11946.4,3.39172,5.69611,0.46,9.12964,750,5,
11946.4,3.39233,5.69763,0.46,9.12964,750,5,
11946.4,3.39203,5.69916,0.46,9.12964,750,5,
11946.4,3.39233,5.70831,0.46,9.12964,750,5,
11946.4,3.39172,5.71137,0.46,9.12964,750,5,
11946.4,3.39172,5.71289,0.46,9.12964,750,5,
11946.4,3.39203,5.71137,0.46,9.12964,750,5,
11946.4,3.39539,5.70984,0.46,9.12964,750,5,
11946.5,3.396,5.70984,0.46,9.12964,750,5,
11946.5,3.39691,5.71442,0.46,9.12964,750,5,
11946.5,3.39661,5.71137,0.46,9.12964,750,5,
11946.5,3.39722,5.71289,0.46,9.12964,750,5,
11946.5,3.39691,5.71289,0.46,9.12964,750,5,
11946.5,3.3963,5.71137,0.46,9.12964,750,5,
11946.5,3.396,5.70984,0.46,9.12964,750,5,
11946.5,3.3963,5.71442,0.46,9.12964,750,5,
11946.5,3.39661,5.71289,0.46,9.12964,750,5,
11946.5,3.39661,5.70984,0.46,9.12964,750,5,
11946.5,3.39661,5.71594,0.46,9.12964,750,5,
11946.5,3.396,5.72052,0.46,9.12964,750,5,
11946.5,3.39691,5.7251,0.46,9.12964,750,5,
11946.5,3.39691,5.72357,0.46,9.12964,750,5,
11946.5,3.39722,5.7251,0.46,9.12964,750,5,
11946.5,3.39691,5.72052,0.46,9.12964,750,5,
11946.5,3.39661,5.72815,0.46,9.12964,750,5,
11946.5,3.3963,5.72205,0.46,9.12964,750,5,
11946.5,3.39722,5.7251,0.46,9.12964,750,5,
11946.5,3.39661,5.7251,0.46,9.12964,750,5,
11946.5,3.39691,5.72357,0.46,9.12964,750,5,
11946.5,3.396,5.719,0.46,9.12964,750,5,
11946.5,3.39661,5.72815,0.46,9.12964,750,5,
11946.5,3.3963,5.7251,0.46,9.12964,750,5,
11946.5,3.396,5.72357,0.46,9.12964,750,5,
11946.5,3.39691,5.7251,0.46,9.12964,750,5,
11946.5,3.396,5.72052,0.46,9.12964,750,5,
11946.5,3.39722,5.73273,0.46,9.12964,750,5,
11946.5,3.3963,5.73883,0.46,9.12964,750,5,
11946.5,3.3963,5.73578,0.46,9.12964,750,5,
11946.5,3.39661,5.73578,0.46,9.12964,750,5,
11946.5,3.39661,5.73731,0.46,9.12964,750,5,
11946.5,3.39691,5.73731,0.46,9.12964,750,5,
11946.5,3.39691,5.73578,0.46,9.12964,750,5,
11946.5,3.39661,5.73578,0.46,9.12964,750,5,
11946.5,3.39691,5.73578,0.46,9.12964,750,5,
11946.5,3.39661,5.73578,0.46,9.12964,750,5,
11946.5,3.39691,5.73731,0.46,9.12964,750,5,
11946.5,3.39691,5.73731,0.46,9.12964,750,5,
11946.5,3.40179,5.73578,0.46,9.12964,750,5,
11946.5,3.40149,5.73731,0.46,9.12964,750,5,
11946.5,3.40179,5.74494,0.46,9.12964,750,5,
11946.5,3.40118,5.74799,0.46,9.12964,750,5,
11946.5,3.40149,5.74799,0.46,9.12964,750,5,
11946.5,3.40149,5.74799,0.46,9.12964,750,5,
11946.5,3.40179,5.74799,0.46,9.12964,750,5,
11946.5,3.40149,5.74646,0.46,9.12964,750,5,
11946.5,3.40118,5.75256,0.46,9.12964,750,5,
11946.5,3.40118,5.74951,0.46,9.12964,750,5,
11946.5,3.4021,5.74646,0.46,9.12964,750,5,
11946.5,3.40149,5.75104,0.46,9.12964,750,5,
11946.6,3.40149,5.74951,0.46,9.12964,750,5,
11946.6,3.40149,5.74951,0.46,9.12964,750,5,
11946.6,3.40149,5.74799,0.46,9.12964,750,5,
11946.6,3.40179,5.76019,0.46,9.12964,750,5,
11946.6,3.40149,5.76019,0.46,9.12964,750,5,
11946.6,3.40118,5.75714,0.46,9.12964,750,5,
11946.6,3.40149,5.75867,0.46,9.12964,750,5,
11946.6,3.40118,5.76019,0.46,9.12964,750,5,
11946.6,3.40118,5.75867,0.46,9.12964,750,5,
11946.6,3.40057,5.76172,0.46,9.12964,750,5,
11946.6,3.39996,5.75867,0.46,9.12964,750,5,
11946.6,3.40179,5.76325,0.46,9.12964,750,5,
11946.6,3.40057,5.76019,0.46,9.12964,750,5,
11946.6,3.40118,5.76019,0.46,9.12964,750,5,
11946.6,3.40149,5.76325,0.46,9.12964,750,5,
11946.6,3.40179,5.76172,0.46,9.12964,750,5,
11946.6,3.40149,5.77698,0.46,9.12964,750,5,
11946.6,3.4021,5.77087,0.46,9.12964,750,5,
11946.6,3.40118,5.77393,0.46,9.12964,750,5,
11946.6,3.40149,5.77545,0.46,9.12964,750,5,
11946.6,3.40179,5.77087,0.46,9.12964,750,5,
11946.6,3.40179,5.7724,0.46,9.12964,750,5,
11946.6,3.40179,5.77393,0.46,9.12964,750,5,
11946.6,3.40149,5.77393,0.46,9.12964,750,5,
11946.6,3.40179,5.7724,0.46,9.12964,750,5,
11946.6,3.40149,5.77087,0.46,9.12964,750,5,
11946.6,3.4021,5.77087,0.46,9.12964,750,5,
11946.6,3.40088,5.77393,0.46,9.12964,750,5,
11946.6,3.40149,5.77545,0.46,9.12964,750,5,
11946.6,3.4024,5.77545,0.46,9.12964,750,5,
11946.6,3.40179,5.78613,0.46,9.12964,750,5,
11946.6,3.40179,5.78156,0.46,9.12964,750,5,
11946.6,3.40118,5.78461,0.46,9.12964,750,5,
11946.6,3.40149,5.78613,0.46,9.12964,750,5,
11946.6,3.40179,5.78461,0.46,9.12964,750,5,
11946.6,3.40149,5.78613,0.46,9.12964,750,5,
11946.6,3.40149,5.78461,0.46,9.12964,750,5,
11946.6,3.40149,5.78461,0.46,9.12964,750,5,
11946.6,3.40149,5.78919,0.46,9.12964,750,5,
11946.6,3.40149,5.78461,0.46,9.12964,750,5,
11946.6,3.40149,5.78613,0.46,9.12964,750,5,
11946.6,3.40118,5.78461,0.46,9.12964,750,5,
11946.6,3.40149,5.78461,0.46,9.12964,750,5,
11946.6,3.40118,5.78766,0.46,9.12964,750,5,
11946.6,3.40149,5.78461,0.46,9.12964,750,5,
11946.6,3.40118,5.79529,0.46,9.12964,750,5,
11946.6,3.40088,5.79834,0.46,9.12964,750,5,
11946.6,3.40179,5.79834,0.46,9.12964,750,5,
11946.6,3.4021,5.79834,0.46,9.12964,750,5,
11946.6,3.40149,5.79987,0.46,9.12964,750,5,
11946.7,3.40118,5.79834,0.46,9.12964,750,5,
11946.7,3.40149,5.79681,0.46,9.12964,750,5,
11946.7,3.40088,5.79681,0.46,9.12964,750,5,
11946.7,3.40118,5.79681,0.46,9.12964,750,5,
11946.7,3.40118,5.79681,0.46,9.12964,750,5,
11946.7,3.40149,5.79681,0.46,9.12964,750,5,
11946.7,3.40149,5.79834,0.46,9.12964,750,5,
11946.7,3.40149,5.79834,0.46,9.12964,750,5,
11946.7,3.40149,5.79681,0.46,9.12964,750,5,
11946.7,3.4021,5.79834,0.46,9.12964,750,5,
11946.7,3.40149,5.79681,0.46,9.12964,750,5,
11946.7,3.40118,5.79834,0.46,9.12964,750,5,
11946.7,3.40179,5.80902,0.46,9.12964,750,5,
11946.7,3.40118,5.80902,0.46,9.12964,750,5,
11946.7,3.40179,5.81055,0.46,9.12964,750,5,
11946.7,3.40149,5.80902,0.46,9.12964,750,5,
11946.7,3.40088,5.81055,0.46,9.12964,750,5,
11946.7,3.40179,5.81055,0.46,9.12964,750,5,
11946.7,3.40179,5.80597,0.46,9.12964,750,5,
11946.7,3.39661,5.80902,0.46,9.12964,750,5,
11946.7,3.39661,5.8075,0.46,9.12964,750,5,
11946.7,3.39661,5.8075,0.46,9.12964,750,5,
11946.7,3.39691,5.81207,0.46,9.12964,750,5,
11946.7,3.3963,5.8136,0.46,9.12964,750,5,
11946.7,3.39661,5.81207,0.46,9.12964,750,5,
11946.7,3.396,5.81055,0.46,9.12964,750,5,
11946.7,3.3963,5.81055,0.46,9.12964,750,5,
11946.7,3.39691,5.81207,0.46,9.12964,750,5,
11946.7,3.39661,5.81055,0.46,9.12964,750,5,
11946.7,3.39691,5.81055,0.46,9.12964,750,5,
11946.7,3.39722,5.81055,0.46,9.12964,750,5,
11946.7,3.396,5.8136,0.46,9.12964,750,5,
11946.7,3.39691,5.82428,0.46,9.12964,750,5,
11946.7,3.3963,5.82275,0.46,9.12964,750,5,
11946.7,3.3963,5.82428,0.46,9.12964,750,5,
11946.7,3.3963,5.82275,0.46,9.12964,750,5,
11946.7,3.39691,5.8197,0.46,9.12964,750,5,
11946.7,3.39661,5.82581,0.46,9.12964,750,5,
11946.7,3.396,5.82275,0.46,9.12964,750,5,
11946.7,3.39691,5.82275,0.46,9.12964,750,5,
11946.7,3.39722,5.82123,0.46,9.12964,750,5,
11946.7,3.39722,5.82275,0.46,9.12964,750,5,
11946.7,3.3963,5.82275,0.46,9.12964,750,5,
11946.7,3.39691,5.82123,0.46,9.12964,750,5,
11946.7,3.39722,5.81665,0.46,9.12964,750,5,
11946.7,3.39691,5.82123,0.46,9.12964,750,5,
11946.7,3.3963,5.8197,0.46,9.12964,750,5,
11946.7,3.39691,5.82428,0.46,9.12964,750,5,
11946.7,3.396,5.8197,0.46,9.12964,750,5,
11946.8,3.39691,5.82428,0.46,9.12964,750,5,
11946.8,3.396,5.82275,0.46,9.12964,750,5,
11946.8,3.39661,5.82123,0.46,9.12964,750,5,
11946.8,3.3963,5.83649,0.46,9.12964,750,5,
11946.8,3.39691,5.83496,0.46,9.12964,750,5,
11946.8,3.3963,5.83344,0.46,9.12964,750,5,
11946.8,3.39661,5.83496,0.46,9.12964,750,5,
11946.8,3.396,5.83038,0.46,9.12964,750,5,
11946.8,3.39661,5.83344,0.46,9.12964,750,5,
11946.8,3.39661,5.83496,0.46,9.12964,750,5,
11946.8,3.39691,5.83496,0.46,9.12964,750,5,
11946.8,3.3963,5.83496,0.46,9.12964,750,5,
11946.8,3.3963,5.83344,0.46,9.12964,750,5,
11946.8,3.3963,5.83344,0.46,9.12964,750,5,
11946.8,3.396,5.83344,0.46,9.12964,750,5,
11946.8,3.39661,5.83649,0.46,9.12964,750,5,
11946.8,3.39569,5.83801,0.46,9.12964,750,5,
11946.8,3.39752,5.83191,0.46,9.12964,750,5,
11946.8,3.39661,5.83496,0.46,9.12964,750,5,
11946.8,3.39661,5.83496,0.46,9.12964,750,5,
11946.8,3.39691,5.83496,0.46,9.12964,750,5,
11946.8,3.39752,5.83496,0.46,9.12964,750,5,
11946.8,3.396,5.83649,0.46,9.12964,750,5,
11946.8,3.39691,5.84412,0.46,9.12964,750,5,
11946.8,3.39691,5.84564,0.46,9.12964,750,5,
11946.8,3.39661,5.84259,0.46,9.12964,750,5,
11946.8,3.396,5.84717,0.46,9.12964,750,5,
11946.8,3.39752,5.84717,0.46,9.12964,750,5,
11946.8,3.3963,5.84717,0.46,9.12964,750,5,
11946.8,3.3963,5.84869,0.46,9.12964,750,5,
11946.8,3.39691,5.84564,0.46,9.12964,750,5,
11946.8,3.39661,5.84564,0.46,9.12964,750,5,
11946.8,3.3963,5.84412,0.46,9.12964,750,5,
11946.8,3.40027,5.84717,0,9.12964,750,5,
11946.8,3.40179,5.84717,0,9.12964,750,5,
11946.8,3.4021,5.84564,0,9.12964,750,5,
11946.8,3.4024,5.85022,0,9.12964,750,5,
11946.8,3.40149,5.84717,0,9.12964,750,5,
11946.8,3.40118,5.84412,0,9.12964,750,5,
11946.8,3.40179,5.84717,0,9.12964,750,5,
11946.8,3.40149,5.84717,0,9.12964,750,5,
11946.8,3.40179,5.84717,0,9.12964,750,5,
11946.8,3.40118,5.84717,0,9.12964,750,5,
11946.8,3.40179,5.85632,0,9.12964,750,5,
11946.8,3.40179,5.85785,0,9.12964,750,5,
11946.8,3.40149,5.86243,0,9.12964,750,5,
11946.8,3.40118,5.85938,0,9.12964,750,5,
11946.8,3.40149,5.8609,0,9.12964,750,5,
11946.8,3.4021,5.85938,0,9.12964,750,5,
11946.8,3.40179,5.86243,0,9.12964,750,5,
11946.9,3.40149,5.8609,0,9.12964,750,5,
11946.9,3.40149,5.85938,0,9.12964,750,5,
11946.9,3.4024,5.86243,0,9.12964,750,5,
11946.9,3.40668,5.85785,0,9.12964,750,5,
11946.9,3.40668,5.8609,0,9.12964,750,5,
11946.9,3.40607,5.85785,0,9.12964,750,5,
11946.9,3.40637,5.8609,0,9.12964,750,5,
11946.9,3.40637,5.85938,0,9.12964,750,5,
11946.9,3.40668,5.85785,0,9.12964,750,5,
11946.9,3.40698,5.85938,0,9.12964,750,5,
11946.9,3.40637,5.85632,0,9.12964,750,5,
11946.9,3.40607,5.8609,0,9.12964,750,5,
11946.9,3.40607,5.8609,0,9.12964,750,5,
11946.9,3.40637,5.85785,0,9.12964,750,5,
11946.9,3.41034,5.87006,0,9.12964,750,5,
11946.9,3.41125,5.87311,0,9.12964,750,5,
11946.9,3.41156,5.87006,0,9.12964,750,5,
11946.9,3.41125,5.87311,0,9.12964,750,5,
11946.9,3.41125,5.86701,0,9.12964,750,5,
11946.9,3.41156,5.86853,0,9.12964,750,5,
11946.9,3.41156,5.86853,0,9.12964,750,5,
11946.9,3.41187,5.87158,0,9.12964,750,5,
11946.9,3.41187,5.87158,0,9.12964,750,5,
11946.9,3.41278,5.86701,0,9.12964,750,5,
11946.9,3.41736,5.87158,0,9.12964,750,5,
11946.9,3.41614,5.87006,0,9.12964,750,5,
11946.9,3.41705,5.87311,0,9.12964,750,5,
11946.9,3.41705,5.87158,0,9.12964,750,5,
11946.9,3.41705,5.86853,0,9.12964,750,5,
11946.9,3.41675,5.86701,0,9.12964,750,5,
11946.9,3.41675,5.87158,0,9.12964,750,5,
11946.9,3.41797,5.86853,0,9.12964,750,5,
11946.9,3.42224,5.87463,0,9.12964,750,5,
11946.9,3.42163,5.88074,0,9.12964,750,5,
11946.9,3.42133,5.88379,0,9.12964,750,5,
11946.9,3.42133,5.88684,0,9.12964,750,5,
11946.9,3.42133,5.87921,0,9.12964,750,5,
11946.9,3.42041,5.88226,0,9.12964,750,5,
11946.9,3.42133,5.88226,0,9.12964,750,5,
11946.9,3.42621,5.88379,0,9.12964,750,5,
11946.9,3.42621,5.88684,0,9.12964,750,5,
11946.9,3.4256,5.88226,0,9.12964,750,5,
11946.9,3.4256,5.88532,0,9.12964,750,5,
11946.9,3.4259,5.88532,0,9.12964,750,5,
11946.9,3.4256,5.88226,0,9.12964,750,5,
11946.9,3.42926,5.88226,0,9.12964,750,5,
11946.9,3.43109,5.88532,0,9.12964,750,5,
11946.9,3.4314,5.88379,0,9.12964,750,5,
11946.9,3.43109,5.88379,0,9.12964,750,5,
11946.9,3.43079,5.88226,0,9.12964,750,5,
11947,3.43109,5.88379,0,9.12964,750,5,
11947,3.4317,5.88379,0,9.12964,750,5,
11947,3.43536,5.88684,0,9.12964,750,5,
11947,3.43567,5.89295,0,9.12964,750,5,
11947,3.43597,5.896,0,9.12964,750,5,
11947,3.43536,5.896,0,9.12964,750,5,
11947,3.43536,5.896,0,9.12964,750,5,
11947,3.44055,5.896,0,9.12964,750,5,
11947,3.43994,5.89142,0,9.12964,750,5,
11947,3.44086,5.896,0,9.12964,750,5,
11947,3.44086,5.89752,0,9.12964,750,5,
11947,3.44086,5.89752,0,9.12964,750,5,
11947,3.44177,5.89295,0,9.12964,750,5,
11947,3.44543,5.896,0,9.12964,750,5,
11947,3.44543,5.89447,2.41,9.12964,750,5,
11947,3.44574,5.896,2.41,9.12964,750,5,
11947,3.44543,5.89295,2.41,9.12964,750,5,
11947,3.44574,5.89447,2.41,9.12964,750,5,
11947,3.45032,5.89752,2.41,9.12964,750,5,
11947,3.45062,5.896,2.41,9.12964,750,5,
11947,3.45062,5.896,2.41,9.12964,750,5,
11947,3.45001,5.896,2.41,9.12964,750,5,
11947,3.45398,5.89752,2.41,9.12964,750,5,
11947,3.4552,5.89752,2.41,9.12964,750,5,
11947,3.4549,5.9082,2.41,9.12964,750,5,
11947,3.4549,5.90973,2.41,9.12964,750,5,
11947,3.4552,5.90973,2.41,9.12964,750,5,
11947,3.45978,5.9082,2.41,9.12964,750,5,
11947,3.46039,5.90668,2.41,9.12964,750,5,
11947,3.46039,5.90973,2.41,9.12964,750,5,
11947,3.45947,5.9082,2.41,9.12964,750,5,
11947,3.461,5.9082,2.41,9.12964,750,5,
11947,3.46497,5.9082,2.41,9.12964,750,5,
11947,3.46497,5.90973,2.41,9.12964,750,5,
11947,3.46527,5.90973,2.41,9.12964,750,5,
11947,3.46527,5.9082,2.41,9.12964,750,5,
11947,3.46954,5.90668,2.41,9.12964,750,5,
11947,3.46954,5.90973,2.41,9.12964,750,5,
11947,3.47046,5.9082,2.41,9.12964,750,5,
11947,3.47046,5.90515,2.41,9.12964,750,5,
11947,3.47443,5.9082,2.41,9.12964,750,5,
11947,3.47473,5.90668,2.41,9.12964,750,5,
11947,3.47534,5.90668,2.41,9.12964,750,5,
11947,3.47473,5.90668,2.41,9.12964,750,5,
11947,3.479,5.90973,2.41,9.12964,750,5,
11947,3.47961,5.9082,2.41,9.12964,750,5,
11947,3.48022,5.91736,2.41,9.12964,750,5,
11947,3.47961,5.92041,2.41,9.12964,750,5,
11947,3.4848,5.92041,2.41,9.12964,750,5,
11947,3.48541,5.92194,2.41,9.12964,750,5,
11947,3.48511,5.92041,2.41,9.12964,750,5,
11947.1,3.48572,5.91889,2.41,9.12964,750,5,
11947.1,3.4903,5.92041,2.41,9.12964,750,5,
11947.1,3.48969,5.91736,2.41,9.12964,750,5,
11947.1,3.48938,5.92041,2.41,9.12964,750,5,
11947.1,3.49365,5.91736,2.41,9.12964,750,5,
11947.1,3.49396,5.92041,2.41,9.12964,750,5,
11947.1,3.49457,5.91583,2.41,9.12964,750,5,
11947.1,3.49487,5.92041,2.41,9.12964,750,5,
11947.1,3.50037,5.92041,2.41,9.12964,750,5,
11947.1,3.49976,5.92346,2.41,9.12964,750,5,
11947.1,3.50006,5.92346,2.41,9.12964,750,5,
11947.1,3.50342,5.92499,2.41,9.12964,750,5,
11947.1,3.50433,5.92346,2.41,9.12964,750,5,
11947.1,3.50464,5.92346,2.41,9.12964,750,5,
11947.1,3.50555,5.91736,2.41,9.12964,750,5,
11947.1,3.50952,5.91889,2.41,9.12964,750,5,
11947.1,3.50952,5.92194,2.41,9.12964,750,5,
11947.1,3.50983,5.92041,2.41,9.12964,750,5,
11947.1,3.5144,5.93262,2.41,9.12964,750,5,
11947.1,3.5141,5.93414,2.41,9.12964,750,5,
11947.1,3.5144,5.93109,2.41,9.12964,750,5,
11947.1,3.51898,5.93262,2.41,9.12964,750,5,
11947.1,3.51929,5.92957,2.41,9.12964,750,5,
11947.1,3.5199,5.93109,2.41,9.12964,750,5,
11947.1,3.52295,5.93109,2.41,9.12964,750,5,
11947.1,3.52386,5.93414,2.41,9.12964,750,5,
11947.1,3.52417,5.93262,2.41,9.12964,750,5,
11947.1,3.52753,5.93414,2.41,9.12964,750,5,
11947.1,3.52905,5.93262,2.41,9.12964,750,5,
11947.1,3.52905,5.92957,2.41,9.12964,750,5,
11947.1,3.53241,5.93262,2.41,9.12964,750,5,
11947.1,3.53394,5.93414,2.41,9.12964,750,5,
11947.1,3.53424,5.93414,2.41,9.12964,750,5,
11947.1,3.53729,5.93262,2.41,9.12964,750,5,
11947.1,3.53912,5.93414,2.41,9.12964,750,5,
11947.1,3.53943,5.93262,2.41,9.12964,750,5,
11947.1,3.54279,5.9372,2.41,9.12964,750,5,
11947.1,3.5437,5.93567,2.41,9.12964,750,5,
11947.1,3.5437,5.9372,2.41,9.12964,750,5,
11947.1,3.54828,5.93109,2.41,9.12964,750,5,
11947.1,3.54889,5.93567,2.41,9.12964,750,5,
11947.1,3.54858,5.94177,2.41,9.12964,750,5,
11947.1,3.55377,5.94483,2.41,9.12964,750,5,
11947.1,3.55316,5.94635,2.41,9.12964,750,5,
11947.1,3.55377,5.94788,2.41,9.12964,750,5,
11947.1,3.55896,5.94483,2.41,9.12964,750,5,
11947.1,3.55896,5.9433,2.41,9.12964,750,5,
11947.1,3.55957,5.9433,2.41,9.12964,750,5,
11947.1,3.56354,5.94635,2.41,9.12964,750,5,
11947.1,3.56323,5.94483,2.41,9.12964,750,5,
11947.2,3.56689,5.94483,2.41,9.12964,750,5,
11947.2,3.56812,5.94483,2.41,9.12964,750,5,
11947.2,3.56903,5.94788,2.41,9.12964,750,5,
11947.2,3.5733,5.94483,2.41,9.12964,750,5,
11947.2,3.5733,5.94483,2.41,9.12964,750,5,
11947.2,3.5733,5.94635,2.41,9.12964,750,5,
11947.2,3.57819,5.94635,2.41,9.12964,750,5,
11947.2,3.57819,5.94483,2.41,9.12964,750,5,
11947.2,3.58185,5.94177,2.41,9.12964,750,5,
11947.2,3.58307,5.94635,2.41,9.12964,750,5,
11947.2,3.58276,5.94635,2.41,9.12964,750,5,
11947.2,3.58795,5.94177,2.41,9.12964,750,5,
11947.2,3.58795,5.94025,2.41,9.12964,750,5,
11947.2,3.58765,5.94483,2.41,9.12964,750,5,
11947.2,3.59253,5.94483,2.41,9.12964,750,5,
11947.2,3.59314,5.96008,2.41,9.12964,750,5,
11947.2,3.59741,5.95551,2.41,9.12964,750,5,
11947.2,3.59772,5.95551,2.41,9.12964,750,5,
11947.2,3.59833,5.95856,2.41,9.12964,750,5,
11947.2,3.6026,5.95551,2.41,9.12964,750,5,
11947.2,3.60229,5.95856,2.41,9.12964,750,5,
11947.2,3.60718,5.95703,2.41,9.12964,750,5,
11947.2,3.60748,5.95551,2.41,9.12964,750,5,
11947.2,3.60809,5.95398,2.41,9.12964,750,5,
11947.2,3.61267,5.95551,2.41,9.12964,750,5,
11947.2,3.61176,5.95703,2.41,9.12964,750,5,
11947.2,3.61664,5.95856,2.41,9.12964,750,5,
11947.2,3.61694,5.95856,2.41,9.12964,750,5,
11947.2,3.6203,5.96314,2.41,9.12964,750,5,
11947.2,3.62122,5.95856,2.41,9.12964,750,5,
11947.2,3.62152,5.95398,2.41,9.12964,750,5,
11947.2,3.62701,5.95856,2.41,9.12964,750,5,
11947.2,3.6264,5.95856,2.41,9.12964,750,5,
11947.2,3.63098,5.95551,2.41,9.12964,750,5,
11947.2,3.6322,5.95398,2.41,9.12964,750,5,
11947.2,3.63251,5.95398,2.41,9.12964,750,5,
11947.2,3.63617,5.95856,2.41,9.12964,750,5,
11947.2,3.63647,5.95398,2.41,9.12964,750,5,
11947.2,3.64197,5.97229,2.41,9.12964,750,5,
11947.2,3.64166,5.96771,2.41,9.12964,750,5,
11947.2,3.64594,5.97077,2.41,9.12964,750,5,
11947.2,3.64563,5.97077,2.41,9.12964,750,5,
11947.2,3.64746,5.97077,2.41,9.12964,750,5,
11947.2,3.65112,5.96619,2.41,9.12964,750,5,
11947.2,3.65082,5.97229,2.41,9.12964,750,5,
11947.2,3.65631,5.96771,2.41,9.12964,750,5,
11947.2,3.65631,5.96771,2.41,9.12964,750,5,
11947.2,3.66119,5.96924,2.41,9.12964,750,5,
11947.2,3.66089,5.97077,2.41,9.12964,750,5,
11947.2,3.66516,5.96924,2.41,9.12964,750,5,
11947.3,3.66669,5.97229,2.41,9.12964,750,5,
11947.3,3.66669,5.97077,2.41,9.12964,750,5,
11947.3,3.67065,5.96924,2.41,9.12964,750,5,
11947.3,3.67157,5.96771,2.41,9.12964,750,5,
11947.3,3.67584,5.96771,2.41,9.12964,750,5,
11947.3,3.67615,5.96771,2.41,9.12964,750,5,
11947.3,3.67981,5.97382,2.41,9.12964,750,5,
11947.3,3.68073,5.96466,2.41,9.12964,750,5,
11947.3,3.68591,5.97077,2.41,9.12964,750,5,
11947.3,3.68591,5.97077,2.41,9.12964,750,5,
11947.3,3.68958,5.98297,2.41,9.12964,750,5,
11947.3,3.69049,5.98145,2.41,9.12964,750,5,
11947.3,3.69446,5.98602,2.41,9.12964,750,5,
11947.3,3.69507,5.98145,2.41,9.12964,750,5,
11947.3,3.69659,5.9845,2.41,9.12964,750,5,
11947.3,3.69995,5.98297,2.41,9.12964,750,5,
11947.3,3.70148,5.97992,2.41,9.12964,750,5,
11947.3,3.70544,5.98145,2.41,9.12964,750,5,
11947.3,3.70453,5.98297,2.41,9.12964,750,5,
11947.3,3.71002,5.98297,2.41,9.12964,750,5,
11947.3,3.71033,5.98145,2.41,9.12964,750,5,
11947.3,3.7149,5.98145,2.41,9.12964,750,5,
11947.3,3.7149,5.97992,2.41,9.12964,750,5,
11947.3,3.72009,5.98297,2.41,9.12964,750,5,
11947.3,3.71979,5.97992,2.41,9.12964,750,5,
11947.3,3.72437,5.98297,2.41,9.12964,750,5,
11947.3,3.72528,5.98145,2.41,9.12964,750,5,
11947.3,3.72925,5.9845,2.41,9.12964,750,5,
11947.3,3.72986,5.97992,2.41,9.12964,750,5,
11947.3,3.73535,5.98145,2.41,9.12964,750,5,
11947.3,3.73413,5.99518,2.41,9.12964,750,5,
11947.3,3.74023,5.99671,2.41,9.12964,750,5,
11947.3,3.73932,5.99365,2.41,9.12964,750,5,
11947.3,3.74451,5.99518,2.41,9.12964,750,5,
11947.3,3.74512,5.99671,2.41,9.12964,750,5,
11947.3,3.74878,5.99518,2.41,9.12964,750,5,
11947.3,3.74969,5.99365,2.41,9.12964,750,5,
11947.3,3.75275,5.99213,2.41,9.12964,750,5,
11947.3,3.75397,5.99365,2.41,9.12964,750,5,
11947.3,3.75793,5.99823,2.41,9.12964,750,5,
11947.3,3.75916,5.99518,2.41,9.12964,750,5,
11947.3,3.76251,5.99518,2.41,9.12964,750,5,
11947.3,3.76404,5.99365,2.41,9.12964,750,5,
11947.3,3.76801,5.99365,2.41,9.12964,750,5,
11947.3,3.76892,5.99671,2.41,9.12964,750,5,
11947.3,3.77258,5.99213,2.41,9.12964,750,5,
11947.3,3.7738,5.99671,2.41,9.12964,750,5,
11947.3,3.77716,5.99365,2.41,9.12964,750,5,
11947.3,3.77899,5.99518,2.41,9.12964,750,5,
11947.4,3.78235,5.99213,2.41,9.12964,750,5,
11947.4,3.78418,5.99823,2.41,9.12964,750,5,
11947.4,3.78662,6.00433,2.41,9.12964,750,5,
11947.4,3.78784,6.00586,2.41,9.12964,750,5,
11947.4,3.79272,6.00433,2.41,9.12964,750,5,
11947.4,3.79364,6.00739,2.41,9.12964,750,5,
11947.4,3.797,6.00891,2.41,9.12964,750,5,
11947.4,3.79791,6.01196,2.41,9.12964,750,5,
11947.4,3.8028,6.00739,2.41,9.12964,750,5,
11947.4,3.8031,6.00433,2.41,9.12964,750,5,
11947.4,3.80829,6.00891,2.41,9.12964,750,5,
11947.4,3.8089,6.00586,2.41,9.12964,750,5,
11947.4,3.81195,6.00891,2.41,9.12964,750,5,
11947.4,3.81317,6.00586,2.41,9.12964,750,5,
11947.4,3.81775,6.00433,2.41,9.12964,750,5,
11947.4,3.81805,6.00891,2.41,9.12964,750,5,
11947.4,3.82202,6.00586,2.41,9.12964,750,5,
11947.4,3.82324,6.00586,2.41,9.12964,750,5,
11947.4,3.82721,6.00739,2.41,9.12964,750,5,
11947.4,3.82782,6.00586,2.41,9.12964,750,5,
11947.4,3.83209,6.00586,2.41,9.12964,750,5,
11947.4,3.8327,6.00739,2.41,9.12964,750,5,
11947.4,3.83698,6.00739,2.41,9.12964,750,5,
11947.4,3.8382,6.00739,2.41,9.12964,750,5,
11947.4,3.84216,6.00891,2.41,9.12964,750,5,
11947.4,3.84186,6.00891,2.41,9.12964,750,5,
11947.4,3.84674,6.02112,2.41,9.12964,750,5,
11947.4,3.84735,6.02264,2.41,9.12964,750,5,
11947.4,3.85254,6.02112,2.41,9.12964,750,5,
11947.4,3.85223,6.01807,2.41,9.12964,750,5,
11947.4,3.85773,6.01807,2.41,9.12964,750,5,
11947.4,3.85773,6.01807,2.41,9.12964,750,5,
11947.4,3.862,6.01349,2.41,9.12964,750,5,
11947.4,3.86169,6.01807,2.41,9.12964,750,5,
11947.4,3.86719,6.01349,2.41,9.12964,750,5,
11947.4,3.86688,6.01807,2.41,9.12964,750,5,
11947.4,3.87207,6.01959,2.41,9.12964,750,5,
11947.4,3.87177,6.01959,2.41,9.12964,750,5,
11947.4,3.87604,6.01959,2.41,9.12964,750,5,
11947.4,3.87756,6.02112,2.41,9.12964,750,5,
11947.4,3.88123,6.01654,2.41,9.12964,750,5,
11947.4,3.88306,6.01654,2.41,9.12964,750,5,
11947.4,3.88672,6.01654,2.41,9.12964,750,5,
11947.4,3.88702,6.01959,2.41,9.12964,750,5,
11947.4,3.8916,6.01807,2.41,9.12964,750,5,
11947.4,3.89465,6.01807,2.41,9.12964,750,5,
11947.4,3.89679,6.01654,2.41,9.12964,750,5,
11947.4,3.89954,6.01654,2.41,9.12964,750,5,
11947.4,3.90228,6.02112,2.41,9.12964,750,5,
11947.4,3.90533,6.02875,2.41,9.12964,750,5,
11947.5,3.90686,6.03333,2.41,9.12964,750,5,
11947.5,3.91083,6.0318,2.41,9.12964,750,5,
11947.5,3.91144,6.03333,2.41,9.12964,750,5,
11947.5,3.91602,6.0318,2.41,9.12964,750,5,
11947.5,3.91602,6.03027,2.41,9.12964,750,5,
11947.5,3.9212,6.03027,2.41,9.12964,750,5,
11947.5,3.92151,6.03333,2.41,9.12964,750,5,
11947.5,3.92609,6.03027,2.41,9.12964,750,5,
11947.5,3.92578,6.03027,2.41,9.12964,750,5,
11947.5,3.93097,6.0318,2.41,9.12964,750,5,
11947.5,3.93127,6.03333,2.41,9.12964,750,5,
11947.5,3.93494,6.0318,2.41,9.12964,750,5,
11947.5,3.93707,6.03333,2.41,9.12964,750,5,
11947.5,3.94043,6.02722,2.41,9.12964,750,5,
11947.5,3.94196,6.03027,2.41,9.12964,750,5,
11947.5,3.94562,6.03027,2.41,9.12964,750,5,
11947.5,3.94867,6.03333,2.41,9.12964,750,5,
11947.5,3.95081,6.02722,2.41,9.12964,750,5,
11947.5,3.95416,6.0318,2.41,9.12964,750,5,
11947.5,3.95538,6.03027,2.41,9.12964,750,5,
11947.5,3.95874,6.0318,2.41,9.12964,750,5,
11947.5,3.96027,6.0318,2.41,9.12964,750,5,
11947.5,3.96545,6.03485,2.41,9.12964,750,5,
11947.5,3.96515,6.04401,2.41,9.12964,750,5,
11947.5,3.96912,6.04401,2.41,9.12964,750,5,
11947.5,3.97003,6.04248,2.41,9.12964,750,5,
11947.5,3.97491,6.04248,2.41,9.12964,750,5,
11947.5,3.97369,6.04248,2.41,9.12964,750,5,
11947.5,3.97949,6.04401,2.41,9.12964,750,5,
11947.5,3.9798,6.04248,2.41,9.12964,750,5,
11947.5,3.98468,6.04248,2.41,9.12964,750,5,
11947.5,3.98651,6.04553,2.41,9.12964,750,5,
11947.5,3.98987,6.04401,2.41,9.12964,750,5,
11947.5,3.99017,6.04553,2.41,9.12964,750,5,
11947.5,3.99384,6.04553,2.41,9.12964,750,5,
11947.5,3.99506,6.04248,2.41,9.12964,750,5,
11947.5,3.99933,6.04553,2.41,9.12964,750,5,
11947.5,4.00269,6.04401,2.41,9.12964,750,5,
11947.5,4.00391,6.04248,2.41,9.12964,750,5,
11947.5,4.00757,6.04096,2.41,9.12964,750,5,
11947.5,4.00879,6.04248,2.41,9.12964,750,5,
11947.5,4.01245,6.04096,2.41,9.12964,750,5,
11947.5,4.01398,6.04096,2.41,9.12964,750,5,
11947.5,4.01886,6.03943,2.41,9.12964,750,5,
11947.5,4.01917,6.04401,2.41,9.12964,750,5,
11947.5,4.02374,6.04096,2.41,9.12964,750,5,
11947.5,4.02466,6.05621,2.41,9.12964,750,5,
11947.5,4.02832,6.05927,2.41,9.12964,750,5,
11947.5,4.02924,6.05469,2.41,9.12964,750,5,
11947.5,4.03351,6.05469,2.41,9.12964,750,5,
11947.5,4.03381,6.05621,2.41,9.12964,750,5,
11947.6,4.03839,6.05774,2.41,9.12964,750,5,
11947.6,4.03931,6.05621,2.41,9.12964,750,5,
11947.6,4.04388,6.05774,2.41,9.12964,750,5,
11947.6,4.04327,6.05621,2.41,9.12964,750,5,
11947.6,4.04816,6.05469,2.41,9.12964,750,5,
11947.6,4.04816,6.05621,2.41,9.12964,750,5,
11947.6,4.05334,6.05469,2.41,9.12964,750,5,
11947.6,4.05304,6.05774,2.41,9.12964,750,5,
11947.6,4.05792,6.05469,2.41,9.12964,750,5,
11947.6,4.05823,6.05316,2.41,9.12964,750,5,
11947.6,4.06311,6.05621,2.41,9.12964,750,5,
11947.6,4.06311,6.05774,2.41,9.12964,750,5,
11947.6,4.06799,6.05316,2.41,9.12964,750,5,
11947.6,4.06769,6.05621,2.41,9.12964,750,5,
11947.6,4.07257,6.06995,2.41,9.12964,750,5,
11947.6,4.07257,6.0669,2.41,9.12964,750,5,
11947.6,4.07745,6.06537,2.41,9.12964,750,5,
11947.6,4.07806,6.0669,2.41,9.12964,750,5,
11947.6,4.08234,6.06995,2.41,9.12964,750,5,
11947.6,4.08295,6.0669,2.41,9.12964,750,5,
11947.6,4.08752,6.07147,2.41,9.12964,750,5,
11947.6,4.08752,6.06232,2.41,9.12964,750,5,
11947.6,4.09241,6.06995,2.41,9.12964,750,5,
11947.6,4.0921,6.0669,2.41,9.12964,750,5,
11947.6,4.09637,6.06842,2.41,9.12964,750,5,
11947.6,4.09729,6.06537,2.41,9.12964,750,5,
11947.6,4.10065,6.0669,2.41,9.12964,750,5,
11947.6,4.10248,6.0669,2.41,9.12964,750,5,
11947.6,4.10583,6.06842,2.41,9.12964,750,5,
11947.6,4.10706,6.06995,2.41,9.12964,750,5,
11947.6,4.10767,6.06842,2.41,9.12964,750,5,
11947.6,4.11163,6.07758,2.41,9.12964,750,5,
11947.6,4.11285,6.08063,2.41,9.12964,750,5,
11947.6,4.11713,6.08215,2.41,9.12964,750,5,
11947.6,4.11682,6.0791,2.41,9.12964,750,5,
11947.6,4.1217,6.08063,2.41,9.12964,750,5,
11947.6,4.12201,6.0791,2.41,9.12964,750,5,
11947.6,4.12598,6.08215,2.41,9.12964,750,5,
11947.6,4.12689,6.08063,2.41,9.12964,750,5,
11947.6,4.13116,6.08063,2.41,9.12964,750,5,
11947.6,4.13177,6.07758,2.41,9.12964,750,5,
11947.6,4.13483,6.07758,2.41,9.12964,750,5,
11947.6,4.13696,6.08063,2.41,9.12964,750,5,
11947.6,4.13788,6.08063,2.41,9.12964,750,5,
11947.6,4.14215,6.08063,2.41,9.12964,750,5,
11947.6,4.14246,6.08215,2.41,9.12964,750,5,
11947.6,4.14642,6.0791,2.41,9.12964,750,5,
11947.6,4.14612,6.0791,2.41,9.12964,750,5,
11947.6,4.15039,6.08063,2.41,9.12964,750,5,
11947.6,4.15161,6.08368,2.41,9.12964,750,5,
11947.7,4.15222,6.09284,2.41,9.12964,750,5,
11947.7,4.1568,6.09436,2.41,9.12964,750,5,
11947.7,4.1568,6.09589,2.41,9.12964,750,5,
11947.7,4.16199,6.09284,2.41,9.12964,750,5,
11947.7,4.16107,6.09284,2.41,9.12964,750,5,
11947.7,4.16534,6.09131,2.41,9.12964,750,5,
11947.7,4.16595,6.09131,2.41,9.12964,750,5,
11947.7,4.16565,6.09131,2.41,9.12964,750,5,
11947.7,4.17053,6.09436,2.41,9.12964,750,5,
11947.7,4.17084,6.09131,2.41,9.12964,750,5,
11947.7,4.17542,6.09284,2.41,9.12964,750,5,
11947.7,4.17542,6.09436,2.41,9.12964,750,5,
11947.7,4.17633,6.09284,2.41,9.12964,750,5,
11947.7,4.1806,6.09284,2.41,9.12964,750,5,
11947.7,4.17999,6.09589,2.41,9.12964,750,5,
11947.7,4.18427,6.09284,2.41,9.12964,750,5,
11947.7,4.18549,6.09436,2.41,9.12964,750,5,
11947.7,4.1864,6.08978,2.41,9.12964,750,5,
11947.7,4.19037,6.10199,2.41,9.12964,750,5,
11947.7,4.19098,6.10352,2.41,9.12964,750,5,
11947.7,4.19495,6.10657,2.41,9.12964,750,5,
11947.7,4.19586,6.10504,2.41,9.12964,750,5,
11947.7,4.19525,6.10504,2.41,9.12964,750,5,
11947.7,4.20074,6.10352,2.41,9.12964,750,5,
11947.7,4.19983,6.10657,2.41,9.12964,750,5,
11947.7,4.2041,6.10504,2.41,9.12964,750,5,
11947.7,4.20532,6.10504,2.41,9.12964,750,5,
11947.7,4.20502,6.10504,2.41,9.12964,750,5,
11947.7,4.20929,6.10352,2.41,9.12964,750,5,
11947.7,4.2099,6.10657,2.41,9.12964,750,5,
11947.7,4.21173,6.10504,2.41,9.12964,750,5,
11947.7,4.21478,6.10352,2.41,9.12964,750,5,
11947.7,4.21478,6.10504,2.41,9.12964,750,5,
11947.7,4.21906,6.10504,2.41,9.12964,750,5,
11947.7,4.21936,6.10657,2.41,9.12964,750,5,
11947.7,4.22028,6.10046,2.41,9.12964,750,5,
11947.7,4.22424,6.10199,2.41,9.12964,750,5,
11947.7,4.22455,6.10962,2.41,9.12964,750,5,
11947.7,4.22546,6.11878,2.41,9.12964,750,5,
11947.7,4.22943,6.11725,2.41,9.12964,750,5,
11947.7,4.22974,6.11572,2.41,9.12964,750,5,
11947.7,4.22974,6.11725,2.41,9.12964,750,5,
11947.7,4.23492,6.1203,2.41,9.12964,750,5,
11947.7,4.23431,6.11572,2.41,9.12964,750,5,
11947.7,4.23431,6.11725,2.41,9.12964,750,5,
11947.7,4.2395,6.11572,2.41,9.12964,750,5,
11947.7,4.24011,6.11725,2.41,9.12964,750,5,
11947.7,4.2395,6.11725,2.41,9.12964,750,5,
11947.7,4.2453,6.11725,2.41,9.12964,750,5,
11947.8,4.24438,6.11725,2.41,9.12964,750,5,
11947.8,4.24469,6.11267,2.41,9.12964,750,5,
11947.8,4.24866,6.11878,2.41,9.12964,750,5,
11947.8,4.24835,6.1203,2.41,9.12964,750,5,
11947.8,4.24896,6.11572,2.41,9.12964,750,5,
11947.8,4.25476,6.11725,2.41,9.12964,750,5,
11947.8,4.25476,6.11572,2.41,9.12964,750,5,
11947.8,4.25415,6.12946,2.41,9.12964,750,5,
11947.8,4.25873,6.13251,2.41,9.12964,750,5,
11947.8,4.25934,6.1264,2.41,9.12964,750,5,
11947.8,4.25873,6.13251,2.41,9.12964,750,5,
11947.8,4.26331,6.12946,2.41,9.12964,750,5,
11947.8,4.26392,6.12793,2.41,9.12964,750,5,
11947.8,4.26483,6.12793,2.41,9.12964,750,5,
11947.8,4.26788,6.12946,2.41,9.12964,750,5,
11947.8,4.2691,6.12946,2.41,9.12964,750,5,
11947.8,4.26941,6.1264,2.41,9.12964,750,5,
11947.8,4.27063,6.1264,2.41,9.12964,750,5,
11947.8,4.27368,6.12793,2.41,9.12964,750,5,
11947.8,4.27429,6.12946,2.41,9.12964,750,5,
11947.8,4.27338,6.1264,2.41,9.12964,750,5,
11947.8,4.27795,6.12946,2.41,9.12964,750,5,
11947.8,4.27887,6.12793,2.41,9.12964,750,5,
11947.8,4.27917,6.13098,2.41,9.12964,750,5,
11947.8,4.28223,6.14319,2.41,9.12964,750,5,
11947.8,4.28375,6.14014,2.41,9.12964,750,5,
11947.8,4.28345,6.14319,2.41,9.12964,750,5,
11947.8,4.28345,6.14014,2.41,9.12964,750,5,
11947.8,4.28864,6.14166,2.41,9.12964,750,5,
11947.8,4.28802,6.14166,2.41,9.12964,750,5,
11947.8,4.28833,6.14166,2.41,9.12964,750,5,
11947.8,4.2926,6.14472,2.41,9.12964,750,5,
11947.8,4.29382,6.14166,2.41,9.12964,750,5,
11947.8,4.29352,6.14014,2.41,9.12964,750,5,
11947.8,4.2981,6.14166,2.41,9.12964,750,5,
11947.8,4.29779,6.14166,2.41,9.12964,750,5,
11947.8,4.2984,6.14166,2.41,9.12964,750,5,
11947.8,4.30359,6.13709,2.41,9.12964,750,5,
11947.8,4.30298,6.14166,2.41,9.12964,750,5,
11947.8,4.30328,6.15387,2.41,9.12964,750,5,
11947.8,4.30786,6.15387,2.41,9.12964,750,5,
11947.8,4.30725,6.15387,2.41,9.12964,750,5,
11947.8,4.30817,6.15234,2.41,9.12964,750,5,
11947.8,4.31335,6.15234,2.41,9.12964,750,5,
11947.8,4.31244,6.1554,2.41,9.12964,750,5,
11947.8,4.31702,6.15387,2.41,9.12964,750,5,
11947.8,4.31793,6.15387,2.41,9.12964,750,5,
11947.8,4.31732,6.15082,2.41,9.12964,750,5,
11947.8,4.32251,6.15234,2.41,9.12964,750,5,
11947.8,4.32281,6.15387,2.41,9.12964,750,5,
11947.9,4.32312,6.15234,2.41,9.12964,750,5,
11947.9,4.328,6.1554,2.41,9.12964,750,5,
11947.9,4.32831,6.15387,2.41,9.12964,750,5,
11947.9,4.33197,6.16455,2.41,9.12964,750,5,
11947.9,4.33319,6.16455,2.41,9.12964,750,5,
11947.9,4.33624,6.16608,2.41,9.12964,750,5,
11947.9,4.33746,6.16913,2.41,9.12964,750,5,
11947.9,4.33838,6.16455,2.41,9.12964,750,5,
11947.9,4.34235,6.16608,2.41,9.12964,750,5,
11947.9,4.34235,6.1676,2.41,9.12964,750,5,
11947.9,4.34784,6.16455,2.41,9.12964,750,5,
11947.9,4.34814,6.1676,2.41,9.12964,750,5,
11947.9,4.35211,6.1676,2.41,9.12964,750,5,
11947.9,4.3515,6.16455,2.41,9.12964,750,5,
11947.9,4.35608,6.16303,2.41,9.12964,750,5,
11947.9,4.3576,6.16913,2.41,9.12964,750,5,
11947.9,4.35822,6.16303,2.41,9.12964,750,5,
11947.9,4.36188,6.16455,2.41,9.12964,750,5,
11947.9,4.36188,6.17981,2.41,9.12964,750,5,
11947.9,4.36737,6.17676,2.41,9.12964,750,5,
11947.9,4.36737,6.17981,2.41,9.12964,750,5,
11947.9,4.37225,6.17676,2.41,9.12964,750,5,
11947.9,4.37134,6.17981,2.41,9.12964,750,5,
11947.9,4.37775,6.17828,2.41,9.12964,750,5,
11947.9,4.37683,6.17828,2.41,9.12964,750,5,
11947.9,4.38171,6.17828,2.41,9.12964,750,5,
11947.9,4.38141,6.17523,2.41,9.12964,750,5,
11947.9,4.3866,6.17523,2.41,9.12964,750,5,
11947.9,4.38629,6.17828,2.41,9.12964,750,5,
11947.9,4.39117,6.17981,2.41,9.12964,750,5,
11947.9,4.39148,6.17828,2.41,9.12964,750,5,
11947.9,4.39453,6.17981,2.41,9.12964,750,5,
11947.9,4.39636,6.17981,2.41,9.12964,750,5,
11947.9,4.39941,6.17371,2.41,9.12964,750,5,
11947.9,4.40155,6.17523,2.41,9.12964,750,5,
11947.9,4.40552,6.18591,2.41,9.12964,750,5,
11947.9,4.40613,6.19049,2.41,9.12964,750,5,
11947.9,4.4104,6.18897,2.41,9.12964,750,5,
11947.9,4.41071,6.19049,2.41,9.12964,750,5,
11947.9,4.41467,6.19202,2.41,9.12964,750,5,
11947.9,4.4162,6.18744,2.41,9.12964,750,5,
11947.9,4.41956,6.19049,2.41,9.12964,750,5,
11947.9,4.42078,6.19049,2.41,9.12964,750,5,
11947.9,4.42444,6.19202,2.41,9.12964,750,5,
11947.9,4.42627,6.18897,2.41,9.12964,750,5,
11947.9,4.42963,6.18897,2.41,9.12964,750,5,
11947.9,4.43054,6.19049,2.41,9.12964,750,5,
11947.9,4.4342,6.18897,2.41,9.12964,750,5,
11947.9,4.43481,6.19202,2.41,9.12964,750,5,
11947.9,4.43939,6.19049,2.41,9.12964,750,5,
11948,4.44061,6.18744,2.41,9.12964,750,5,
11948,4.44366,6.19507,2.41,9.12964,750,5,
11948,4.44489,6.19049,2.41,9.12964,750,5,
11948,4.44855,6.19049,2.41,9.12964,750,5,
11948,4.45038,6.19049,2.41,9.12964,750,5,
11948,4.45404,6.19965,2.41,9.12964,750,5,
11948,4.45465,6.20117,2.41,9.12964,750,5,
11948,4.45862,6.20422,2.41,9.12964,750,5,
11948,4.45923,6.2027,2.41,9.12964,750,5,
11948,4.4632,6.2027,2.41,9.12964,750,5,
11948,4.46472,6.19965,2.41,9.12964,750,5,
11948,4.46594,6.2027,2.41,9.12964,750,5,
11948,4.4693,6.2027,2.41,9.12964,750,5,
11948,4.47052,6.2027,2.41,9.12964,750,5,
11948,4.47479,6.2027,2.41,9.12964,750,5,
11948,4.4754,6.2027,2.41,9.12964,750,5,
11948,4.47906,6.20117,2.41,9.12964,750,5,
11948,4.47998,6.20422,2.41,9.12964,750,5,
11948,4.48486,6.20117,2.41,9.12964,750,5,
11948,4.48547,6.2027,2.41,9.12964,750,5,
11948,4.48914,6.2027,2.41,9.12964,750,5,
11948,4.48944,6.19965,2.41,9.12964,750,5,
11948,4.49371,6.20117,2.41,9.12964,750,5,
11948,4.49402,6.20117,2.41,9.12964,750,5,
11948,4.49951,6.2027,2.41,9.12964,750,5,
11948,4.49951,6.20117,2.41,9.12964,750,5,
11948,4.50439,6.20117,2.41,9.12964,750,5,
11948,4.50409,6.20422,2.41,9.12964,750,5,
11948,4.50867,6.21491,2.41,9.12964,750,5,
11948,4.50806,6.21491,2.41,9.12964,750,5,
11948,4.51416,6.21491,2.41,9.12964,750,5,
11948,4.51416,6.21033,2.41,9.12964,750,5,
11948,4.51843,6.21491,2.41,9.12964,750,5,
11948,4.51813,6.21338,2.41,9.12964,750,5,
11948,4.52179,6.21185,2.41,9.12964,750,5,
11948,4.52393,6.21948,2.41,9.12964,750,5,
11948,4.52393,6.21338,2.41,9.12964,750,5,
11948,4.5282,6.21643,2.41,9.12964,750,5,
11948,4.52972,6.21643,2.41,9.12964,750,5,
11948,4.53278,6.21491,2.41,9.12964,750,5,
11948,4.53278,6.21491,2.41,9.12964,750,5,
11948,4.53857,6.21491,2.41,9.12964,750,5,
11948,4.53857,6.21491,2.41,9.12964,750,5,
11948,4.54376,6.21491,2.41,9.12964,750,5,
11948,4.54315,6.21338,2.41,9.12964,750,5,
11948,4.54651,6.21491,2.41,9.12964,750,5,
11948,4.54803,6.21185,2.41,9.12964,750,5,
11948,4.5517,6.21338,2.41,9.12964,750,5,
11948,4.55292,6.21338,2.41,9.12964,750,5,
11948,4.55414,6.21491,2.41,9.12964,750,5,
11948,4.55811,6.21643,2.41,9.12964,750,5,
11948.1,4.55811,6.21491,2.41,9.12964,750,5,
11948.1,4.56299,6.21643,2.41,9.12964,750,5,
11948.1,4.56299,6.21491,2.41,9.12964,750,5,
11948.1,4.56635,6.21338,2.41,9.12964,750,5,
11948.1,4.56757,6.21033,2.41,9.12964,750,5,
11948.1,4.56879,6.22406,2.41,9.12964,750,5,
11948.1,4.57306,6.22711,2.41,9.12964,750,5,
11948.1,4.57214,6.22711,2.41,9.12964,750,5,
11948.1,4.57733,6.22711,2.41,9.12964,750,5,
11948.1,4.57733,6.22711,2.41,9.12964,750,5,
11948.1,4.58069,6.22711,2.41,9.12964,750,5,
11948.1,4.58282,6.22711,2.41,9.12964,750,5,
11948.1,4.58405,6.22406,2.41,9.12964,750,5,
11948.1,4.58771,6.22559,2.41,9.12964,750,5,
11948.1,4.5874,6.22864,2.41,9.12964,750,5,
11948.1,4.59167,6.22559,2.41,9.12964,750,5,
11948.1,4.59198,6.22864,2.41,9.12964,750,5,
11948.1,4.5929,6.22559,2.41,9.12964,750,5,
11948.1,4.59686,6.22711,2.41,9.12964,750,5,
11948.1,4.59656,6.22864,2.41,9.12964,750,5,
11948.1,4.60144,6.22864,2.41,9.12964,750,5,
11948.1,4.60236,6.22711,2.41,9.12964,750,5,
11948.1,4.60297,6.22864,2.41,9.12964,750,5,
11948.1,4.60663,6.22559,2.41,9.12964,750,5,
11948.1,4.60663,6.22101,2.41,9.12964,750,5,
11948.1,4.61212,6.22711,2.41,9.12964,750,5,
11948.1,4.61212,6.22711,2.41,9.12964,750,5,
11948.1,4.61182,6.22711,2.41,9.12964,750,5,
11948.1,4.617,6.22864,2.41,9.12964,750,5,
11948.1,4.6167,6.22711,2.41,9.12964,750,5,
11948.1,4.62067,6.22711,2.41,9.12964,750,5,
11948.1,4.62097,6.22406,2.41,9.12964,750,5,
11948.1,4.62158,6.22406,2.41,9.12964,750,5,
11948.1,4.62585,6.22559,2.41,9.12964,750,5,
11948.1,4.62708,6.23627,2.41,9.12964,750,5,
11948.1,4.62646,6.24085,2.41,9.12964,750,5,
11948.1,4.63104,6.24085,2.41,9.12964,750,5,
11948.1,4.63165,6.23932,2.41,9.12964,750,5,
11948.1,4.63226,6.24085,2.41,9.12964,750,5,
11948.1,4.63684,6.2439,2.41,9.12964,750,5,
11948.1,4.63654,6.23932,2.41,9.12964,750,5,
11948.1,4.63745,6.23932,2.41,9.12964,750,5,
11948.1,4.64172,6.23932,2.41,9.12964,750,5,
11948.1,4.64081,6.23932,2.41,9.12964,750,5,
11948.1,4.64508,6.23932,2.41,9.12964,750,5,
11948.1,4.64539,6.23932,2.41,9.12964,750,5,
11948.1,4.64569,6.23627,2.41,9.12964,750,5,
11948.1,4.64966,6.23627,2.41,9.12964,750,5,
11948.1,4.65118,6.23932,2.41,9.12964,750,5,
11948.1,4.65088,6.23779,2.41,9.12964,750,5,
11948.2,4.65485,6.23779,2.41,9.12964,750,5,
11948.2,4.65668,6.24085,2.41,9.12964,750,5,
11948.2,4.65607,6.24085,2.41,9.12964,750,5,
11948.2,4.65759,6.23779,2.41,9.12964,750,5,
11948.2,4.66064,6.24085,2.41,9.12964,750,5,
11948.2,4.66095,6.23779,2.41,9.12964,750,5,
11948.2,4.66095,6.24085,2.41,9.12964,750,5,
11948.2,4.66522,6.23932,2.41,9.12964,750,5,
11948.2,4.66583,6.2439,2.41,9.12964,750,5,
11948.2,4.66583,6.23779,2.41,9.12964,750,5,
11948.2,4.67041,6.2439,2.41,9.12964,750,5,
11948.2,4.67072,6.25153,2.41,9.12964,750,5,
11948.2,4.67133,6.24848,2.41,9.12964,750,5,
11948.2,4.67133,6.24848,2.41,9.12964,750,5,
11948.2,4.6756,6.25305,2.41,9.12964,750,5,
11948.2,4.67651,6.25,2.41,9.12964,750,5,
11948.2,4.6759,6.25153,2.41,9.12964,750,5,
11948.2,4.68109,6.25153,2.41,9.12964,750,5,
11948.2,4.68079,6.25153,2.41,9.12964,750,5,
11948.2,4.68109,6.25305,2.41,9.12964,750,5,
11948.2,4.68079,6.25153,2.41,9.12964,750,5,
11948.2,4.68536,6.25305,2.41,9.12964,750,5,
11948.2,4.68567,6.25305,2.41,9.12964,750,5,
11948.2,4.68475,6.25,2.41,9.12964,750,5,
11948.2,4.68689,6.25153,2.41,9.12964,750,5,
11948.2,4.68964,6.24848,2.41,9.12964,750,5,
11948.2,4.69025,6.25,2.41,9.12964,750,5,
11948.2,4.68994,6.24848,2.41,9.12964,750,5,
11948.2,4.69421,6.25,2.41,9.12964,750,5,
11948.2,4.69482,6.2561,2.41,9.12964,750,5,
11948.2,4.69482,6.25,2.41,9.12964,750,5,
11948.2,4.69513,6.24848,2.41,9.12964,750,5,
11948.2,4.6991,6.25458,2.41,9.12964,750,5,
11948.2,4.70001,6.24848,2.41,9.12964,750,5,
11948.2,4.70062,6.25153,2.41,9.12964,750,5,
11948.2,4.70032,6.26068,2.41,9.12964,750,5,
11948.2,4.70337,6.26526,2.41,9.12964,750,5,
11948.2,4.70459,6.26526,2.41,9.12964,750,5,
11948.2,4.7052,6.26373,2.41,9.12964,750,5,
11948.2,4.7052,6.26373,2.41,9.12964,750,5,
11948.2,4.70642,6.26373,2.41,9.12964,750,5,
11948.2,4.71008,6.26221,2.41,9.12964,750,5,
11948.2,4.71008,6.26526,2.41,9.12964,750,5,
11948.2,4.70978,6.26221,2.41,9.12964,750,5,
11948.2,4.70978,6.26679,2.41,9.12964,750,5,
11948.2,4.71497,6.26221,2.41,9.12964,750,5,
11948.2,4.71466,6.26679,2.41,9.12964,750,5,
11948.2,4.71497,6.26373,2.41,9.12964,750,5,
11948.2,4.71558,6.26679,2.41,9.12964,750,5,
11948.2,4.71863,6.26526,2.41,9.12964,750,5,
11948.3,4.71954,6.26526,2.41,9.12964,750,5,
11948.3,4.71924,6.26221,2.41,9.12964,750,5,
11948.3,4.71954,6.26373,2.41,9.12964,750,5,
11948.3,4.72015,6.26221,2.41,9.12964,750,5,
11948.3,4.72443,6.26373,2.41,9.12964,750,5,
11948.3,4.72473,6.26373,2.41,9.12964,750,5,
11948.3,4.72443,6.26373,2.41,9.12964,750,5,
11948.3,4.72504,6.26221,2.41,9.12964,750,5,
11948.3,4.72809,6.26679,2.41,9.12964,750,5,
11948.3,4.7287,6.26373,2.41,9.12964,750,5,
11948.3,4.729,6.27289,2.41,9.12964,750,5,
11948.3,4.72992,6.27594,2.41,9.12964,750,5,
11948.3,4.72931,6.27289,2.41,9.12964,750,5,
11948.3,4.73389,6.27747,2.41,9.12964,750,5,
11948.3,4.73419,6.27594,2.41,9.12964,750,5,
11948.3,4.7345,6.27594,2.41,9.12964,750,5,
11948.3,4.73419,6.27441,2.41,9.12964,750,5,
11948.3,4.7345,6.27441,2.41,9.12964,750,5,
11948.3,4.73877,6.27594,2.41,9.12964,750,5,
11948.3,4.73877,6.27441,2.41,9.12964,750,5,
11948.3,4.73969,6.27747,2.41,9.12964,750,5,
11948.3,4.73877,6.27441,2.41,9.12964,750,5,
11948.3,4.74274,6.27747,2.41,9.12964,750,5,
11948.3,4.74457,6.27441,2.41,9.12964,750,5,
11948.3,4.74396,6.27594,2.41,9.12964,750,5,
11948.3,4.74396,6.28052,2.41,9.12964,750,5,
11948.3,4.74426,6.27441,2.41,9.12964,750,5,
11948.3,4.74884,6.27441,2.41,9.12964,750,5,
11948.3,4.74915,6.27747,2.41,9.12964,750,5,
11948.3,4.74854,6.27441,2.41,9.12964,750,5,
11948.3,4.74915,6.27594,2.41,9.12964,750,5,
11948.3,4.75037,6.27899,2.41,9.12964,750,5,
11948.3,4.75464,6.27441,2.41,9.12964,750,5,
11948.3,4.75372,6.27441,2.41,9.12964,750,5,
11948.3,4.75372,6.27441,2.41,9.12964,750,5,
11948.3,4.75403,6.28662,2.41,9.12964,750,5,
11948.3,4.75861,6.28967,2.41,9.12964,750,5,
11948.3,4.75922,6.28967,2.41,9.12964,750,5,
11948.3,4.75861,6.28662,2.41,9.12964,750,5,
11948.3,4.75861,6.28662,2.41,9.12964,750,5,
11948.3,4.76013,6.28815,2.41,9.12964,750,5,
11948.3,4.7644,6.28815,2.41,9.12964,750,5,
11948.3,4.7641,6.28357,2.41,9.12964,750,5,
11948.3,4.76379,6.28357,2.41,9.12964,750,5,
11948.3,4.76349,6.2851,2.41,9.12964,750,5,
11948.3,4.76837,6.28967,2.41,9.12964,750,5,
11948.3,4.76837,6.28967,2.41,9.12964,750,5,
11948.3,4.76898,6.28815,2.41,9.12964,750,5,
11948.3,4.76837,6.28662,2.41,9.12964,750,5,
11948.4,4.7699,6.28662,2.41,9.12964,750,5,
11948.4,4.77386,6.28815,2.41,9.12964,750,5,
11948.4,4.77417,6.28357,2.41,9.12964,750,5,
11948.4,4.77356,6.28662,2.41,9.12964,750,5,
11948.4,4.77325,6.28815,2.41,9.12964,750,5,
11948.4,4.77936,6.28967,2.41,9.12964,750,5,
11948.4,4.77936,6.28662,2.41,9.12964,750,5,
11948.4,4.77936,6.28967,2.41,9.12964,750,5,
11948.4,4.77875,6.28662,2.41,9.12964,750,5,
11948.4,4.78394,6.28662,2.41,9.12964,750,5,
11948.4,4.78394,6.28662,2.41,9.12964,750,5,
11948.4,4.78394,6.30035,2.41,9.12964,750,5,
11948.4,4.78363,6.2973,2.41,9.12964,750,5,
11948.4,4.7876,6.2973,2.41,9.12964,750,5,
11948.4,4.78882,6.2973,2.41,9.12964,750,5,
11948.4,4.78882,6.29883,2.41,9.12964,750,5,
11948.4,4.7879,6.30035,2.41,9.12964,750,5,
11948.4,4.78851,6.30341,2.41,9.12964,750,5,
11948.4,4.7934,6.30035,2.41,9.12964,750,5,
11948.4,4.79309,6.30035,2.41,9.12964,750,5,
11948.4,4.79279,6.30341,2.41,9.12964,750,5,
11948.4,4.7934,6.2973,2.41,9.12964,750,5,
11948.4,4.79797,6.29883,2.41,9.12964,750,5,
11948.4,4.79797,6.29578,2.41,9.12964,750,5,
11948.4,4.79736,6.29883,2.41,9.12964,750,5,
11948.4,4.79828,6.29883,2.41,9.12964,750,5,
11948.4,4.80286,6.30035,2.41,9.12964,750,5,
11948.4,4.80347,6.29883,2.41,9.12964,750,5,
11948.4,4.80286,6.30035,2.41,9.12964,750,5,
11948.4,4.80316,6.30188,2.41,9.12964,750,5,
11948.4,4.80804,6.29883,2.41,9.12964,750,5,
11948.4,4.80804,6.30188,2.41,9.12964,750,5,
11948.4,4.80835,6.29883,2.41,9.12964,750,5,
11948.4,4.80774,6.30188,2.41,9.12964,750,5,
11948.4,4.81171,6.30188,2.41,9.12964,750,5,
11948.4,4.81262,6.31256,2.41,9.12964,750,5,
11948.4,4.81262,6.31409,2.41,9.12964,750,5,
11948.4,4.81323,6.30951,2.41,9.12964,750,5,
11948.4,4.81659,6.31104,2.41,9.12964,750,5,
11948.4,4.81689,6.31104,2.41,9.12964,750,5,
11948.4,4.8175,6.31256,2.41,9.12964,750,5,
11948.4,4.8175,6.31256,2.41,9.12964,750,5,
11948.4,4.82117,6.31256,2.41,9.12964,750,5,
11948.4,4.82269,6.31104,2.41,9.12964,750,5,
11948.4,4.823,6.31256,2.41,9.12964,750,5,
11948.4,4.823,6.31256,2.41,9.12964,750,5,
11948.4,4.82605,6.31104,2.41,9.12964,750,5,
11948.4,4.82727,6.31409,2.41,9.12964,750,5,
11948.4,4.82758,6.31256,2.41,9.12964,750,5,
11948.4,4.82727,6.31104,2.41,9.12964,750,5,
11948.5,4.83154,6.31104,2.41,9.12964,750,5,
11948.5,4.83215,6.31104,2.41,9.12964,750,5,
11948.5,4.83215,6.31256,2.41,9.12964,750,5,
11948.5,4.83185,6.31256,2.41,9.12964,750,5,
11948.5,4.83673,6.31561,2.41,9.12964,750,5,
11948.5,4.83795,6.31561,2.41,9.12964,750,5,
11948.5,4.83734,6.31561,2.41,9.12964,750,5,
11948.5,4.83765,6.31409,2.41,9.12964,750,5,
11948.5,4.84253,6.31714,2.41,9.12964,750,5,
11948.5,4.84314,6.32477,2.41,9.12964,750,5,
11948.5,4.84314,6.32324,2.41,9.12964,750,5,
11948.5,4.84344,6.32477,2.41,9.12964,750,5,
11948.5,4.84711,6.32935,2.41,9.12964,750,5,
11948.5,4.84772,6.32477,2.41,9.12964,750,5,
11948.5,4.84711,6.32477,2.41,9.12964,750,5,
11948.5,4.85077,6.32629,2.41,9.12964,750,5,
11948.5,4.85229,6.32629,2.41,9.12964,750,5,
11948.5,4.85168,6.32172,2.41,9.12964,750,5,
11948.5,4.85229,6.32324,2.41,9.12964,750,5,
11948.5,4.85626,6.32172,2.41,9.12964,750,5,
11948.5,4.85687,6.32477,2.41,9.12964,750,5,
11948.5,4.85718,6.32324,2.41,9.12964,750,5,
11948.5,4.85748,6.32477,2.41,9.12964,750,5,
11948.5,4.86176,6.32324,2.41,9.12964,750,5,
11948.5,4.86176,6.32477,2.41,9.12964,750,5,
11948.5,4.86237,6.32477,2.41,9.12964,750,5,
11948.5,4.86206,6.32782,2.41,9.12964,750,5,
11948.5,4.86694,6.32172,2.41,9.12964,750,5,
11948.5,4.86755,6.32629,2.41,9.12964,750,5,
11948.5,4.86694,6.32477,2.41,9.12964,750,5,
11948.5,4.86755,6.32324,2.41,9.12964,750,5,
11948.5,4.87183,6.33698,2.41,9.12964,750,5,
11948.5,4.87152,6.33545,2.41,9.12964,750,5,
11948.5,4.87183,6.33545,2.41,9.12964,750,5,
11948.5,4.87549,6.33545,2.41,9.12964,750,5,
11948.5,4.87671,6.33545,2.41,9.12964,750,5,
11948.5,4.87671,6.33545,2.41,9.12964,750,5,
11948.5,4.87732,6.33545,2.41,9.12964,750,5,
11948.5,4.88007,6.33545,2.41,9.12964,750,5,
11948.5,4.88159,6.33392,2.41,9.12964,750,5,
11948.5,4.8822,6.33698,2.41,9.12964,750,5,
11948.5,4.88159,6.33545,2.41,9.12964,750,5,
11948.5,4.88434,6.33698,2.41,9.12964,750,5,
11948.5,4.88678,6.33698,2.41,9.12964,750,5,
11948.5,4.88617,6.33392,2.41,9.12964,750,5,
11948.5,4.88678,6.33545,2.41,9.12964,750,5,
11948.5,4.88953,6.33698,2.41,9.12964,750,5,
11948.5,4.89136,6.33698,2.41,9.12964,750,5,
11948.5,4.89258,6.33545,2.41,9.12964,750,5,
11948.5,4.89166,6.33545,2.41,9.12964,750,5,
11948.5,4.89197,6.33392,2.41,9.12964,750,5,
11948.6,4.89624,6.33545,2.41,9.12964,750,5,
11948.6,4.89624,6.33545,2.41,9.12964,750,5,
11948.6,4.89685,6.34766,2.41,9.12964,750,5,
11948.6,4.89655,6.34461,2.41,9.12964,750,5,
11948.6,4.90143,6.34766,2.41,9.12964,750,5,
11948.6,4.90112,6.34918,2.41,9.12964,750,5,
11948.6,4.90143,6.34918,2.41,9.12964,750,5,
11948.6,4.90082,6.34766,2.41,9.12964,750,5,
11948.6,4.90143,6.35376,2.41,9.12964,750,5,
11948.6,4.90631,6.35071,2.41,9.12964,750,5,
11948.6,4.90631,6.34613,2.41,9.12964,750,5,
11948.6,4.90631,6.35071,2.41,9.12964,750,5,
11948.6,4.9057,6.34766,2.41,9.12964,750,5,
11948.6,4.90936,6.35223,2.41,9.12964,750,5,
11948.6,4.91119,6.34918,2.41,9.12964,750,5,
11948.6,4.91089,6.34766,2.41,9.12964,750,5,
11948.6,4.91058,6.34613,2.41,9.12964,750,5,
11948.6,4.9115,6.34918,2.41,9.12964,750,5,
11948.6,4.91425,6.34766,2.41,9.12964,750,5,
11948.6,4.91608,6.34766,2.41,9.12964,750,5,
11948.6,4.91547,6.34766,2.41,9.12964,750,5,
11948.6,4.91638,6.35529,2.41,9.12964,750,5,
11948.6,4.91577,6.35986,2.41,9.12964,750,5,
11948.6,4.91638,6.36139,2.41,9.12964,750,5,
11948.6,4.92096,6.35681,2.41,9.12964,750,5,
11948.6,4.92065,6.36139,2.41,9.12964,750,5,
11948.6,4.92065,6.36139,2.41,9.12964,750,5,
11948.6,4.92096,6.35834,2.41,9.12964,750,5,
11948.6,4.92065,6.36292,2.41,9.12964,750,5,
11948.6,4.92065,6.36139,2.41,9.12964,750,5,
11948.6,4.92584,6.36139,2.41,9.12964,750,5,
11948.6,4.92523,6.36139,2.41,9.12964,750,5,
11948.6,4.92584,6.36597,2.41,9.12964,750,5,
11948.6,4.92615,6.35986,2.41,9.12964,750,5,
11948.6,4.92615,6.35986,2.41,9.12964,750,5,
11948.6,4.92584,6.36139,2.41,9.12964,750,5,
11948.6,4.9292,6.35986,2.41,9.12964,750,5,
11948.6,4.93011,6.3736,2.41,9.12964,750,5,
11948.6,4.93073,6.37512,2.41,9.12964,750,5,
11948.6,4.93011,6.37207,2.41,9.12964,750,5,
11948.6,4.93164,6.37207,2.41,9.12964,750,5,
11948.6,4.93073,6.37055,2.41,9.12964,750,5,
11948.6,4.93103,6.3736,2.41,9.12964,750,5,
11948.6,4.93195,6.37207,2.41,9.12964,750,5,
11948.6,4.9353,6.37512,2.41,9.12964,750,5,
11948.6,4.93591,6.37207,2.41,9.12964,750,5,
11948.6,4.9353,6.3736,2.41,9.12964,750,5,
11948.6,4.93561,6.3736,2.41,9.12964,750,5,
11948.6,4.935,6.37512,2.41,9.12964,750,5,
11948.6,4.93622,6.37512,2.41,9.12964,750,5,
11948.7,4.93591,6.3736,2.41,9.12964,750,5,
11948.7,4.93591,6.3797,2.41,9.12964,750,5,
11948.7,4.94049,6.38275,2.41,9.12964,750,5,
11948.7,4.94049,6.38428,2.41,9.12964,750,5,
11948.7,4.94019,6.38428,2.41,9.12964,750,5,
11948.7,4.94049,6.38123,2.41,9.12964,750,5,
11948.7,4.94049,6.38733,2.41,9.12964,750,5,
11948.7,4.94019,6.38428,2.41,9.12964,750,5,
11948.7,4.93988,6.3858,2.41,9.12964,750,5,
11948.7,4.94019,6.3858,2.41,9.12964,750,5,
11948.7,4.94049,6.38428,2.41,9.12964,750,5,
11948.7,4.94019,6.38275,2.41,9.12964,750,5,
11948.7,4.94049,6.38733,2.41,9.12964,750,5,
11948.7,4.94476,6.38428,2.41,9.12964,750,5,
11948.7,4.94629,6.38428,2.41,9.12964,750,5,
11948.7,4.94476,6.38275,2.41,9.12964,750,5,
11948.7,4.94507,6.38123,2.41,9.12964,750,5,
11948.7,4.94537,6.39496,2.41,9.12964,750,5,
11948.7,4.94507,6.39801,2.41,9.12964,750,5,
11948.7,4.94598,6.39649,2.41,9.12964,750,5,
11948.7,4.94537,6.39801,2.41,9.12964,750,5,
11948.7,4.94507,6.39954,2.41,9.12964,750,5,
11948.7,4.94537,6.39496,2.41,9.12964,750,5,
11948.7,4.94537,6.39496,2.41,9.12964,750,5,
11948.7,4.94507,6.39496,2.41,9.12964,750,5,
11948.7,4.94507,6.39496,2.41,9.12964,750,5,
11948.7,4.94568,6.39649,2.41,9.12964,750,5,
11948.7,4.94568,6.39649,2.41,9.12964,750,5,
11948.7,4.94537,6.39801,2.41,9.12964,750,5,
11948.7,4.94446,6.39649,2.41,9.12964,750,5,
11948.7,4.94934,6.39801,2.41,9.12964,750,5,
11948.7,4.95056,6.39801,2.41,9.12964,750,5,
11948.7,4.94934,6.39954,2.41,9.12964,750,5,
11948.7,4.94995,6.40564,2.41,9.12964,750,5,
11948.7,4.94965,6.41022,2.41,9.12964,750,5,
11948.7,4.94995,6.41022,2.41,9.12964,750,5,
11948.7,4.95026,6.40869,2.41,9.12964,750,5,
11948.7,4.94965,6.40869,2.41,9.12964,750,5,
11948.7,4.95026,6.40869,2.41,9.12964,750,5,
11948.7,4.95026,6.41022,2.41,9.12964,750,5,
11948.7,4.95117,6.41174,2.41,9.12964,750,5,
11948.7,4.95026,6.41022,2.41,9.12964,750,5,
11948.7,4.95087,6.40564,2.41,9.12964,750,5,
11948.7,4.95026,6.40869,2.41,9.12964,750,5,
11948.7,4.94995,6.40869,2.41,9.12964,750,5,
11948.7,4.95056,6.41022,2.41,9.12964,750,5,
11948.7,4.94965,6.41174,2.41,9.12964,750,5,
11948.7,4.95026,6.40717,2.41,9.12964,750,5,
11948.7,4.94904,6.41022,2.41,9.12964,750,5,
11948.8,4.95117,6.41022,2.41,9.12964,750,5,
11948.8,4.94995,6.40869,2.41,9.12964,750,5,
11948.8,4.94965,6.41785,2.41,9.12964,750,5,
11948.8,4.95026,6.4209,2.41,9.12964,750,5,
11948.8,4.95026,6.4209,2.41,9.12964,750,5,
11948.8,4.95087,6.4209,2.41,9.12964,750,5,
11948.8,4.95056,6.42243,2.41,9.12964,750,5,
11948.8,4.95056,6.42243,2.41,9.12964,750,5,
11948.8,4.95056,6.4209,2.41,9.12964,750,5,
11948.8,4.94965,6.42243,2.41,9.12964,750,5,
11948.8,4.94995,6.41937,2.41,9.12964,750,5,
11948.8,4.94965,6.42243,2.41,9.12964,750,5,
11948.8,4.94995,6.4209,2.41,9.12964,750,5,
11948.8,4.94995,6.42395,2.41,9.12964,750,5,
11948.8,4.94995,6.42395,2.41,9.12964,750,5,
11948.8,4.95026,6.42395,2.41,9.12964,750,5,
11948.8,4.95026,6.4209,2.41,9.12964,750,5,
11948.8,4.95026,6.4209,2.41,9.12964,750,5,
11948.8,4.95117,6.42243,2.41,9.12964,750,5,
11948.8,4.94995,6.41937,2.41,9.12964,750,5,
11948.8,4.95026,6.41632,2.41,9.12964,750,5,
11948.8,4.94934,6.41937,2.41,9.12964,750,5,
11948.8,4.94537,6.42548,0.484,9.12964,750,5,
11948.8,4.94568,6.43463,0.484,9.12964,750,5,
11948.8,4.94507,6.43463,0.484,9.12964,750,5,
11948.8,4.94446,6.43463,0.484,9.12964,750,5,
11948.8,4.94537,6.43463,0.484,9.12964,750,5,
11948.8,4.94568,6.43311,0.484,9.12964,750,5,
11948.8,4.94537,6.43463,0.484,9.12964,750,5,
11948.8,4.94568,6.43158,0.484,9.12964,750,5,
11948.8,4.94598,6.43311,0.484,9.12964,750,5,
11948.8,4.94507,6.43158,0.484,9.12964,750,5,
11948.8,4.94568,6.43463,0.484,9.12964,750,5,
11948.8,4.94537,6.43311,0.484,9.12964,750,5,
11948.8,4.94568,6.43005,0.484,9.12964,750,5,
11948.8,4.94537,6.43463,0.484,9.12964,750,5,
11948.8,4.94537,6.43463,0.484,9.12964,750,5,
11948.8,4.94507,6.43311,0.484,9.12964,750,5,
11948.8,4.94507,6.43463,0.484,9.12964,750,5,
11948.8,4.94049,6.43311,0.484,9.12964,750,5,
11948.8,4.93988,6.43311,0.484,9.12964,750,5,
11948.8,4.93958,6.43463,0.484,9.12964,750,5,
11948.8,4.9408,6.43311,0.484,9.12964,750,5,
11948.8,4.94049,6.43616,0.484,9.12964,750,5,
11948.8,4.94019,6.44531,0.484,9.12964,750,5,
11948.8,4.94049,6.44379,0.484,9.12964,750,5,
11948.8,4.94049,6.44379,0.484,9.12964,750,5,
11948.8,4.94019,6.44684,0.484,9.12964,750,5,
11948.8,4.93927,6.44379,0.484,9.12964,750,5,
11948.8,4.94019,6.44531,0.484,9.12964,750,5,
11948.9,4.93958,6.44531,0.484,9.12964,750,5,
11948.9,4.93652,6.44379,0.484,9.12964,750,5,
11948.9,4.93561,6.44531,0.484,9.12964,750,5,
11948.9,4.935,6.44531,0.484,9.12964,750,5,
11948.9,4.93561,6.44379,0.484,9.12964,750,5,
11948.9,4.9353,6.44531,0.484,9.12964,750,5,
11948.9,4.93561,6.44684,0.484,9.12964,750,5,
11948.9,4.93561,6.44684,0.484,9.12964,750,5,
11948.9,4.9353,6.44379,0.484,9.12964,750,5,
11948.9,4.93561,6.44684,0.484,9.12964,750,5,
11948.9,4.9353,6.44226,0.484,9.12964,750,5,
11948.9,4.93073,6.44684,0.484,9.12964,750,5,
11948.9,4.93011,6.44684,0.484,9.12964,750,5,
11948.9,4.93011,6.44684,0.484,9.12964,750,5,
11948.9,4.93073,6.45905,0.484,9.12964,750,5,
11948.9,4.93073,6.45905,0.484,9.12964,750,5,
11948.9,4.93073,6.45752,0.484,9.12964,750,5,
11948.9,4.93103,6.45905,0.484,9.12964,750,5,
11948.9,4.93103,6.45752,0.484,9.12964,750,5,
11948.9,4.92584,6.46057,0.484,9.12964,750,5,
11948.9,4.92554,6.45752,0.484,9.12964,750,5,
11948.9,4.92493,6.45752,0.484,9.12964,750,5,
11948.9,4.92615,6.45752,0.484,9.12964,750,5,
11948.9,4.92615,6.45752,0.484,9.12964,750,5,
11948.9,4.92554,6.45752,0.484,9.12964,750,5,
11948.9,4.92523,6.45905,0.484,9.12964,750,5,
11948.9,4.92126,6.45905,0.484,9.12964,750,5,
11948.9,4.92096,6.45294,0.484,9.12964,750,5,
11948.9,4.92126,6.4621,0.484,9.12964,750,5,
11948.9,4.91974,6.45905,0.484,9.12964,750,5,
11948.9,4.92126,6.45905,0.484,9.12964,750,5,
11948.9,4.92126,6.45447,0.484,9.12964,750,5,
11948.9,4.91669,6.45905,0.484,9.12964,750,5,
11948.9,4.91577,6.4621,0.484,9.12964,750,5,
11948.9,4.91577,6.47278,0.484,9.12964,750,5,
11948.9,4.91577,6.4682,0.484,9.12964,750,5,
11948.9,4.91577,6.46973,0.484,9.12964,750,5,
11948.9,4.91638,6.4682,0.484,9.12964,750,5,
11948.9,4.91089,6.46973,0.484,9.12964,750,5,
11948.9,4.91119,6.47431,0.484,9.12964,750,5,
11948.9,4.91119,6.47278,0.484,9.12964,750,5,
11948.9,4.91058,6.46973,0.484,9.12964,750,5,
11948.9,4.91089,6.46973,0.484,9.12964,750,5,
11948.9,4.9057,6.47125,0.484,9.12964,750,5,
11948.9,4.90601,6.46973,0.484,9.12964,750,5,
11948.9,4.9057,6.47125,0.484,9.12964,750,5,
11948.9,4.90601,6.4682,0.484,9.12964,750,5,
11948.9,4.90601,6.46668,0.484,9.12964,750,5,
11948.9,4.90112,6.46973,0.484,9.12964,750,5,
11948.9,4.90082,6.46973,0.484,9.12964,750,5,
11949,4.90082,6.46515,0.484,9.12964,750,5,
11949,4.90143,6.4682,0.484,9.12964,750,5,
11949,4.8999,6.47278,0.484,9.12964,750,5,
11949,4.89655,6.46973,0.484,9.12964,750,5,
11949,4.89685,6.48346,0.484,9.12964,750,5,
11949,4.89624,6.48346,0.484,9.12964,750,5,
11949,4.89624,6.48193,0.484,9.12964,750,5,
11949,4.89166,6.48346,0.484,9.12964,750,5,
11949,4.89044,6.48041,0.484,9.12964,750,5,
11949,4.89105,6.48041,0.484,9.12964,750,5,
11949,4.89105,6.48346,0.484,9.12964,750,5,
11949,4.89014,6.48346,0.484,9.12964,750,5,
11949,4.88678,6.48193,0.484,9.12964,750,5,
11949,4.88617,6.48346,0.484,9.12964,750,5,
11949,4.88617,6.48193,0.484,9.12964,750,5,
11949,4.88647,6.48499,0.484,9.12964,750,5,
11949,4.8819,6.48346,0.484,9.12964,750,5,
11949,4.88098,6.48193,0.484,9.12964,750,5,
11949,4.88129,6.48193,0.484,9.12964,750,5,
11949,4.88068,6.48346,0.484,9.12964,750,5,
11949,4.87671,6.48193,0.484,9.12964,750,5,
11949,4.87671,6.48193,0.484,9.12964,750,5,
11949,4.87671,6.48651,0.484,9.12964,750,5,
11949,4.87732,6.49414,0.484,9.12964,750,5,
11949,4.87305,6.49567,0.484,9.12964,750,5,
11949,4.87183,6.49872,0.484,9.12964,750,5,
11949,4.87183,6.49567,0.484,9.12964,750,5,
11949,4.87183,6.49109,0.484,9.12964,750,5,
11949,4.86877,6.49567,0.484,9.12964,750,5,
11949,4.86664,6.49719,0.484,9.12964,750,5,
11949,4.86664,6.49414,0.484,9.12964,750,5,
11949,4.86694,6.49414,0.484,9.12964,750,5,
11949,4.86267,6.49262,0.484,9.12964,750,5,
11949,4.86206,6.49414,0.484,9.12964,750,5,
11949,4.86206,6.49719,0.484,9.12964,750,5,
11949,4.86206,6.49719,0.484,9.12964,750,5,
11949,4.8584,6.49719,0.484,9.12964,750,5,
11949,4.85687,6.49414,0.484,9.12964,750,5,
11949,4.85718,6.50177,0.484,9.12964,750,5,
11949,4.85748,6.50635,0.484,9.12964,750,5,
11949,4.85565,6.50482,0.484,9.12964,750,5,
11949,4.85199,6.51093,0.484,9.12964,750,5,
11949,4.85138,6.50787,0.484,9.12964,750,5,
11949,4.85229,6.50787,0.484,9.12964,750,5,
11949,4.85077,6.5094,0.484,9.12964,750,5,
11949,4.8468,6.50787,0.484,9.12964,750,5,
11949,4.8468,6.5094,0.484,9.12964,750,5,
11949,4.84741,6.5094,0.484,9.12964,750,5,
11949,4.84619,6.50787,0.484,9.12964,750,5,
11949,4.84283,6.50787,0.484,9.12964,750,5,
11949,4.84253,6.50787,0.484,9.12964,750,5,
11949.1,4.84283,6.50635,0.484,9.12964,750,5,
11949.1,4.84131,6.5094,0.484,9.12964,750,5,
11949.1,4.83826,6.52161,0.484,9.12964,750,5,
11949.1,4.83795,6.52008,0.484,9.12964,750,5,
11949.1,4.83795,6.51703,0.484,9.12964,750,5,
11949.1,4.83673,6.52161,0.484,9.12964,750,5,
11949.1,4.83307,6.52161,0.484,9.12964,750,5,
11949.1,4.83276,6.52008,0.484,9.12964,750,5,
11949.1,4.83307,6.52161,0.484,9.12964,750,5,
11949.1,4.83215,6.52008,0.484,9.12964,750,5,
11949.1,4.8291,6.52008,0.484,9.12964,750,5,
11949.1,4.82849,6.52008,0.484,9.12964,750,5,
11949.1,4.82819,6.51703,0.484,9.12964,750,5,
11949.1,4.82727,6.51703,0.484,9.12964,750,5,
11949.1,4.8233,6.51856,0.484,9.12964,750,5,
11949.1,4.82239,6.52466,0.484,9.12964,750,5,
11949.1,4.82239,6.53229,0.484,9.12964,750,5,
11949.1,4.823,6.53076,0.484,9.12964,750,5,
11949.1,4.81781,6.53229,0.484,9.12964,750,5,
11949.1,4.8175,6.53229,0.484,9.12964,750,5,
11949.1,4.8175,6.53076,0.484,9.12964,750,5,
11949.1,4.81781,6.53534,0.484,9.12964,750,5,
11949.1,4.81262,6.53381,0.484,9.12964,750,5,
11949.1,4.81323,6.53381,0.484,9.12964,750,5,
11949.1,4.81293,6.52924,0.484,9.12964,750,5,
11949.1,4.81232,6.53381,0.484,9.12964,750,5,
11949.1,4.80835,6.53381,0.484,9.12964,750,5,
11949.1,4.80743,6.53076,0.484,9.12964,750,5,
11949.1,4.80774,6.53229,0.484,9.12964,750,5,
11949.1,4.80774,6.5445,0.484,9.12964,750,5,
11949.1,4.80408,6.5445,0.484,9.12964,750,5,
11949.1,4.80286,6.54602,0.484,9.12964,750,5,
11949.1,4.80316,6.54297,0.484,9.12964,750,5,
11949.1,4.80255,6.5445,0.484,9.12964,750,5,
11949.1,4.80194,6.54297,0.484,9.12964,750,5,
11949.1,4.79767,6.5445,0.484,9.12964,750,5,
11949.1,4.79889,6.54602,0.484,9.12964,750,5,
11949.1,4.79797,6.54144,0.484,9.12964,750,5,
11949.1,4.79858,6.54602,0.484,9.12964,750,5,
11949.1,4.7937,6.54144,0.484,9.12964,750,5,
11949.1,4.79279,6.54297,0.484,9.12964,750,5,
11949.1,4.7934,6.5445,0.484,9.12964,750,5,
11949.1,4.7937,6.55212,0.484,9.12964,750,5,
11949.1,4.78943,6.55823,0.484,9.12964,750,5,
11949.1,4.78851,6.55518,0.484,9.12964,750,5,
11949.1,4.7876,6.55518,0.484,9.12964,750,5,
11949.1,4.78851,6.5567,0.484,9.12964,750,5,
11949.1,4.78729,6.55823,0.484,9.12964,750,5,
11949.1,4.78333,6.5567,0.484,9.12964,750,5,
11949.1,4.78333,6.5567,0.484,9.12964,750,5,
11949.2,4.78302,6.55823,0.484,9.12964,750,5,
11949.2,4.78333,6.55823,0.484,9.12964,750,5,
11949.2,4.77905,6.55518,0.484,9.12964,750,5,
11949.2,4.77875,6.55823,0.484,9.12964,750,5,
11949.2,4.77875,6.55518,0.484,9.12964,750,5,
11949.2,4.77783,6.56891,0.484,9.12964,750,5,
11949.2,4.77783,6.57044,0.484,9.12964,750,5,
11949.2,4.77386,6.57044,0.484,9.12964,750,5,
11949.2,4.77325,6.56738,0.484,9.12964,750,5,
11949.2,4.77386,6.56738,0.484,9.12964,750,5,
11949.2,4.77325,6.57044,0.484,9.12964,750,5,
11949.2,4.7699,6.56738,0.484,9.12964,750,5,
11949.2,4.76868,6.56891,0.484,9.12964,750,5,
11949.2,4.76898,6.56891,0.484,9.12964,750,5,
11949.2,4.76898,6.56738,0.484,9.12964,750,5,
11949.2,4.76898,6.56891,0.484,9.12964,750,5,
11949.2,4.76471,6.56586,0.484,9.12964,750,5,
11949.2,4.76379,6.58112,0.484,9.12964,750,5,
11949.2,4.76379,6.58112,0.484,9.12964,750,5,
11949.2,4.76379,6.58264,0.484,9.12964,750,5,
11949.2,4.76471,6.58112,0.484,9.12964,750,5,
11949.2,4.75952,6.57959,0.484,9.12964,750,5,
11949.2,4.75922,6.57806,0.484,9.12964,750,5,
11949.2,4.75922,6.58112,0.484,9.12964,750,5,
11949.2,4.75922,6.58264,0.484,9.12964,750,5,
11949.2,4.75952,6.58264,0.484,9.12964,750,5,
11949.2,4.75403,6.58264,0.484,9.12964,750,5,
11949.2,4.75433,6.57959,0.484,9.12964,750,5,
11949.2,4.75433,6.58264,0.484,9.12964,750,5,
11949.2,4.75464,6.58264,0.484,9.12964,750,5,
11949.2,4.75433,6.59485,0.484,9.12964,750,5,
11949.2,4.74915,6.59943,0.484,9.12964,750,5,
11949.2,4.74854,6.59485,0.484,9.12964,750,5,
11949.2,4.74884,6.59332,0.484,9.12964,750,5,
11949.2,4.74976,6.59332,0.484,9.12964,750,5,
11949.2,4.74915,6.5918,0.484,9.12964,750,5,
11949.2,4.74457,6.59027,0.484,9.12964,750,5,
11949.2,4.74457,6.59332,0.484,9.12964,750,5,
11949.2,4.74396,6.59485,0.484,9.12964,750,5,
11949.2,4.74396,6.59332,0.484,9.12964,750,5,
11949.2,4.74518,6.5918,0.484,9.12964,750,5,
11949.2,4.74274,6.60095,0.484,9.12964,750,5,
11949.2,4.73969,6.60553,0.484,9.12964,750,5,
11949.2,4.73938,6.60706,0.484,9.12964,750,5,
11949.2,4.73877,6.60553,0.484,9.12964,750,5,
11949.2,4.73907,6.60553,0.484,9.12964,750,5,
11949.2,4.73969,6.60706,0.484,9.12964,750,5,
11949.2,4.7345,6.604,0.484,9.12964,750,5,
11949.2,4.73419,6.60553,0.484,9.12964,750,5,
11949.2,4.7348,6.604,0.484,9.12964,750,5,
11949.3,4.7345,6.60553,0.484,9.12964,750,5,
11949.3,4.73511,6.60553,0.484,9.12964,750,5,
11949.3,4.7345,6.60706,0.484,9.12964,750,5,
11949.3,4.72931,6.61774,0.484,9.12964,750,5,
11949.3,4.72931,6.61926,0.484,9.12964,750,5,
11949.3,4.72931,6.61621,0.484,9.12964,750,5,
11949.3,4.72931,6.61316,0.484,9.12964,750,5,
11949.3,4.73022,6.62079,0.484,9.12964,750,5,
11949.3,4.72809,6.61774,0.484,9.12964,750,5,
11949.3,4.72473,6.61926,0.484,9.12964,750,5,
11949.3,4.72504,6.62232,0.484,9.12964,750,5,
11949.3,4.72473,6.62079,0.484,9.12964,750,5,
11949.3,4.72473,6.62079,0.484,9.12964,750,5,
11949.3,4.72504,6.62079,0.484,9.12964,750,5,
11949.3,4.72473,6.63147,0.484,9.12964,750,5,
11949.3,4.71985,6.63147,0.484,9.12964,750,5,
11949.3,4.72015,6.62842,0.484,9.12964,750,5,
11949.3,4.72015,6.62537,0.484,9.12964,750,5,
11949.3,4.72046,6.62994,0.484,9.12964,750,5,
11949.3,4.71985,6.62842,0.484,9.12964,750,5,
11949.3,4.72015,6.62994,0.484,9.12964,750,5,
11949.3,4.71527,6.62994,0.484,9.12964,750,5,
11949.3,4.71558,6.62994,0.484,9.12964,750,5,
11949.3,4.71558,6.633,0.484,9.12964,750,5,
11949.3,4.71527,6.64063,0.484,9.12964,750,5,
11949.3,4.71527,6.64063,0.484,9.12964,750,5,
11949.3,4.71466,6.6452,0.484,9.12964,750,5,
11949.3,4.71497,6.64063,0.484,9.12964,750,5,
11949.3,4.71069,6.64215,0.484,9.12964,750,5,
11949.3,4.70978,6.6391,0.484,9.12964,750,5,
11949.3,4.71069,6.6452,0.484,9.12964,750,5,
11949.3,4.70978,6.64215,0.484,9.12964,750,5,
11949.3,4.71008,6.64368,0.484,9.12964,750,5,
11949.3,4.71008,6.64215,0.484,9.12964,750,5,
11949.3,4.70978,6.65741,0.484,9.12964,750,5,
11949.3,4.7052,6.65741,0.484,9.12964,750,5,
11949.3,4.7052,6.65436,0.484,9.12964,750,5,
11949.3,4.70551,6.65588,0.484,9.12964,750,5,
11949.3,4.70581,6.65436,0.484,9.12964,750,5,
11949.3,4.7052,6.65283,0.484,9.12964,750,5,
11949.3,4.7052,6.65436,0.484,9.12964,750,5,
11949.3,4.7052,6.65741,0.484,9.12964,750,5,
11949.3,4.70093,6.65741,0.484,9.12964,750,5,
11949.3,4.70032,6.66351,0.484,9.12964,750,5,
11949.3,4.70093,6.66504,0.484,9.12964,750,5,
11949.3,4.70093,6.66657,0.484,9.12964,750,5,
11949.3,4.70062,6.67114,0.484,9.12964,750,5,
11949.3,4.70032,6.66809,0.484,9.12964,750,5,
11949.3,4.70062,6.66809,0.484,9.12964,750,5,
11949.4,4.70001,6.66809,0.484,9.12964,750,5,
11949.4,4.69574,6.66809,0.484,9.12964,750,5,
11949.4,4.69482,6.6803,0.484,9.12964,750,5,
11949.4,4.69574,6.67725,0.484,9.12964,750,5,
11949.4,4.69513,6.67725,0.484,9.12964,750,5,
11949.4,4.69482,6.68182,0.484,9.12964,750,5,
11949.4,4.69482,6.67572,0.484,9.12964,750,5,
11949.4,4.69513,6.6803,0.484,9.12964,750,5,
11949.4,4.69482,6.67877,0.484,9.12964,750,5,
11949.4,4.69116,6.68182,0.484,9.12964,750,5,
11949.4,4.69086,6.69251,0.484,9.12964,750,5,
11949.4,4.69025,6.68945,0.484,9.12964,750,5,
11949.4,4.68994,6.69098,0.484,9.12964,750,5,
11949.4,4.69055,6.69098,0.484,9.12964,750,5,
11949.4,4.69025,6.69098,0.484,9.12964,750,5,
11949.4,4.69055,6.69098,0.484,9.12964,750,5,
11949.4,4.69025,6.69403,0.484,9.12964,750,5,
11949.4,4.69025,6.69098,0.484,9.12964,750,5,
11949.4,4.68597,6.70471,0.484,9.12964,750,5,
11949.4,4.68536,6.70776,0.484,9.12964,750,5,
11949.4,4.68536,6.70471,0.484,9.12964,750,5,
11949.4,4.68567,6.70319,0.484,9.12964,750,5,
11949.4,4.68567,6.70319,0.484,9.12964,750,5,
11949.4,4.68536,6.70471,0.484,9.12964,750,5,
11949.4,4.68567,6.70319,0.484,9.12964,750,5,
11949.4,4.68597,6.70624,0.484,9.12964,750,5,
11949.4,4.68567,6.71387,0.484,9.12964,750,5,
11949.4,4.68445,6.71539,0.484,9.12964,750,5,
11949.4,4.68048,6.71387,0.484,9.12964,750,5,
11949.4,4.68048,6.71539,0.484,9.12964,750,5,
11949.4,4.68079,6.71692,0.484,9.12964,750,5,
11949.4,4.68018,6.71845,0.484,9.12964,750,5,
11949.4,4.68018,6.71387,0.484,9.12964,750,5,
11949.4,4.68048,6.72913,0.484,9.12964,750,5,
11949.4,4.68018,6.72608,0.484,9.12964,750,5,
11949.4,4.67987,6.72608,0.484,9.12964,750,5,
11949.4,4.67987,6.73218,0.484,9.12964,750,5,
11949.4,4.68079,6.72913,0.484,9.12964,750,5,
11949.4,4.6756,6.72608,0.484,9.12964,750,5,
11949.4,4.67529,6.72913,0.484,9.12964,750,5,
11949.4,4.67499,6.73981,0.484,9.12964,750,5,
11949.4,4.6756,6.73981,0.484,9.12964,750,5,
11949.4,4.6759,6.74286,0.484,9.12964,750,5,
11949.4,4.6759,6.73676,0.484,9.12964,750,5,
11949.4,4.6759,6.74133,0.484,9.12964,750,5,
11949.4,4.67499,6.74286,0.484,9.12964,750,5,
11949.4,4.67529,6.74133,0.484,9.12964,750,5,
11949.4,4.67499,6.74591,0.484,9.12964,750,5,
11949.4,4.6759,6.75202,0.484,9.12964,750,5,
11949.4,4.6756,6.75202,0.484,9.12964,750,5,
11949.5,4.67133,6.75202,0.484,9.12964,750,5,
11949.5,4.67041,6.75354,0.484,9.12964,750,5,
11949.5,4.67041,6.75202,0.484,9.12964,750,5,
11949.5,4.67041,6.75507,0.484,9.12964,750,5,
11949.5,4.67041,6.75354,0.484,9.12964,750,5,
11949.5,4.67133,6.76422,0.484,9.12964,750,5,
11949.5,4.6701,6.76575,0.484,9.12964,750,5,
11949.5,4.67041,6.76422,0.484,9.12964,750,5,
11949.5,4.67041,6.76727,0.484,9.12964,750,5,
11949.5,4.67072,6.76575,0.484,9.12964,750,5,
11949.5,4.67102,6.76422,0.484,9.12964,750,5,
11949.5,4.67041,6.76117,0.484,9.12964,750,5,
11949.5,4.67072,6.7688,0.484,9.12964,750,5,
11949.5,4.66583,6.77796,0.484,9.12964,750,5,
11949.5,4.66614,6.77643,0.484,9.12964,750,5,
11949.5,4.66675,6.7749,0.484,9.12964,750,5,
11949.5,4.66553,6.77643,0.484,9.12964,750,5,
11949.5,4.66583,6.77796,0.484,9.12964,750,5,
11949.5,4.66583,6.77643,0.484,9.12964,750,5,
11949.5,4.66553,6.77643,0.484,9.12964,750,5,
11949.5,4.66583,6.7749,0.484,9.12964,750,5,
11949.5,4.66614,6.78558,0.484,9.12964,750,5,
11949.5,4.66583,6.79016,0.484,9.12964,750,5,
11949.5,4.66583,6.78711,0.484,9.12964,750,5,
11949.5,4.66614,6.78864,0.484,9.12964,750,5,
11949.5,4.66553,6.78864,0.484,9.12964,750,5,
11949.5,4.66644,6.78864,0.484,9.12964,750,5,
11949.5,4.66248,6.78864,0.484,9.12964,750,5,
11949.5,4.66034,6.79016,0.484,9.12964,750,5,
11949.5,4.66064,6.79779,0.484,9.12964,750,5,
11949.5,4.66095,6.80084,0.484,9.12964,750,5,
11949.5,4.66095,6.80237,0.484,9.12964,750,5,
11949.5,4.66125,6.80084,0.484,9.12964,750,5,
11949.5,4.66064,6.80542,0.484,9.12964,750,5,
11949.5,4.65973,6.80237,0.484,9.12964,750,5,
11949.5,4.66064,6.79932,0.484,9.12964,750,5,
11949.5,4.66095,6.80389,0.484,9.12964,750,5,
11949.5,4.66095,6.80084,0.484,9.12964,750,5,
11949.5,4.66095,6.81305,0.484,9.12964,750,5,
11949.5,4.66095,6.81305,0.484,9.12964,750,5,
11949.5,4.66064,6.81305,0.484,9.12964,750,5,
11949.5,4.65973,6.81305,0.484,9.12964,750,5,
11949.5,4.66034,6.81458,0.484,9.12964,750,5,
11949.5,4.65729,6.81152,0.484,9.12964,750,5,
11949.5,4.65607,6.81305,0.484,9.12964,750,5,
11949.5,4.65607,6.8161,0.484,9.12964,750,5,
11949.5,4.65607,6.81305,0.484,9.12964,750,5,
11949.5,4.65576,6.82831,0.484,9.12964,750,5,
11949.5,4.65515,6.82678,0.484,9.12964,750,5,
11949.5,4.65576,6.82526,0.484,9.12964,750,5,
11949.5,4.65576,6.82678,0.484,9.12964,750,5,
11949.6,4.65546,6.82678,0.484,9.12964,750,5,
11949.6,4.65546,6.82526,0.484,9.12964,750,5,
11949.6,4.65515,6.82526,0.484,9.12964,750,5,
11949.6,4.65576,6.82678,0.484,9.12964,750,5,
11949.6,4.65607,6.82678,0.484,9.12964,750,5,
11949.6,4.65515,6.83289,0.484,9.12964,750,5,
11949.6,4.65576,6.83746,0.484,9.12964,750,5,
11949.6,4.65607,6.83746,0.484,9.12964,750,5,
11949.6,4.65637,6.83746,0.484,9.12964,750,5,
11949.6,4.65546,6.83899,0.484,9.12964,750,5,
11949.6,4.65607,6.83899,0.484,9.12964,750,5,
11949.6,4.65149,6.83899,0.484,9.12964,750,5,
11949.6,4.65149,6.84052,0.484,9.12964,750,5,
11949.6,4.65057,6.83594,0.484,9.12964,750,5,
11949.6,4.65149,6.84204,0.484,9.12964,750,5,
11949.6,4.65149,6.85272,0.484,9.12964,750,5,
11949.6,4.65118,6.8512,0.484,9.12964,750,5,
11949.6,4.65179,6.85425,0.484,9.12964,750,5,
11949.6,4.65118,6.85272,0.484,9.12964,750,5,
11949.6,4.65057,6.84967,0.484,9.12964,750,5,
11949.6,4.65088,6.84815,0.484,9.12964,750,5,
11949.6,4.65088,6.8512,0.484,9.12964,750,5,
11949.6,4.65088,6.84967,0.484,9.12964,750,5,
11949.6,4.65179,6.84967,0.484,9.12964,750,5,
11949.6,4.6521,6.85577,0.484,9.12964,750,5,
11949.6,4.65057,6.86188,0.484,9.12964,750,5,
11949.6,4.65149,6.8634,0.484,9.12964,750,5,
11949.6,4.65057,6.8634,0.484,9.12964,750,5,
11949.6,4.65149,6.86035,0.484,9.12964,750,5,
11949.6,4.65118,6.86188,0.484,9.12964,750,5,
11949.6,4.65057,6.8634,0.484,9.12964,750,5,
11949.6,4.65118,6.8634,0.484,9.12964,750,5,
11949.6,4.65118,6.86035,0.484,9.12964,750,5,
11949.6,4.65149,6.86188,0.484,9.12964,750,5,
11949.6,4.64661,6.87561,0.484,9.12964,750,5,
11949.6,4.64661,6.87714,0.484,9.12964,750,5,
11949.6,4.64691,6.87409,0.484,9.12964,750,5,
11949.6,4.64661,6.87561,0.484,9.12964,750,5,
11949.6,4.64691,6.87103,0.484,9.12964,750,5,
11949.6,4.64722,6.87714,0.484,9.12964,750,5,
11949.6,4.64661,6.87103,0.484,9.12964,750,5,
11949.6,4.646,6.87714,0.484,9.12964,750,5,
11949.6,4.64661,6.87409,0.484,9.12964,750,5,
11949.6,4.6463,6.88019,0.484,9.12964,750,5,
11949.6,4.6463,6.88477,0.484,9.12964,750,5,
11949.6,4.64661,6.88477,0.484,9.12964,750,5,
11949.6,4.646,6.88477,0.484,9.12964,750,5,
11949.6,4.6463,6.88629,0.484,9.12964,750,5,
11949.6,4.646,6.88477,0.484,9.12964,750,5,
11949.6,4.6463,6.88477,0.484,9.12964,750,5,
11949.7,4.6463,6.88782,0.484,9.12964,750,5,
11949.7,4.64661,6.88782,0.484,9.12964,750,5,
11949.7,4.646,6.88629,0.484,9.12964,750,5,
11949.7,4.646,6.90003,0.484,9.12964,750,5,
11949.7,4.646,6.90003,0.484,9.12964,750,5,
11949.7,4.64569,6.90003,0.484,9.12964,750,5,
11949.7,4.64569,6.8985,0.484,9.12964,750,5,
11949.7,4.646,6.8985,0.484,9.12964,750,5,
11949.7,4.64661,6.8985,0.484,9.12964,750,5,
11949.7,4.64661,6.8985,0.484,9.12964,750,5,
11949.7,4.6463,6.90003,0.484,9.12964,750,5,
11949.7,4.64569,6.89545,0.484,9.12964,750,5,
11949.7,4.6463,6.89697,0.484,9.12964,750,5,
11949.7,4.6463,6.90003,0.484,9.12964,750,5,
11949.7,4.6463,6.8985,0.484,9.12964,750,5,
11949.7,4.646,6.90003,0.484,9.12964,750,5,
11949.7,4.64569,6.90003,0.484,9.12964,750,5,
11949.7,4.6463,6.8985,0.484,9.12964,750,5,
11949.7,4.64233,6.89697,0.484,9.12964,750,5,
11949.7,4.64142,6.8985,0.484,9.12964,750,5,
11949.7,4.64203,6.89697,0.484,9.12964,750,5,
11949.7,4.64142,6.8985,0.484,9.12964,750,5,
11949.7,4.64142,6.89697,0.484,9.12964,750,5,
11949.7,4.64172,6.89697,0.484,9.12964,750,5,
11949.7,4.64111,6.90155,0.484,9.12964,750,5,
11949.7,4.64142,6.92444,0.484,9.12964,750,5,
11949.7,4.64111,6.92597,0.484,9.12964,750,5,
11949.7,4.64081,6.92291,0.484,9.12964,750,5,
11949.7,4.64111,6.92597,0.484,9.12964,750,5,
11949.7,4.64142,6.92444,0,9.12964,750,5,
11949.7,4.6405,6.92291,0,9.12964,750,5,
11949.7,4.6405,6.93817,0,9.12964,750,5,
11949.7,4.64142,6.93665,0,9.12964,750,5,
11949.7,4.64172,6.93665,0,9.12964,750,5,
11949.7,4.64081,6.93512,0,9.12964,750,5,
11949.7,4.64081,6.93512,0,9.12964,750,5,
11949.7,4.64111,6.93359,0,9.12964,750,5,
11949.7,4.64142,6.93512,0,9.12964,750,5,
11949.7,4.64111,6.9397,0,9.12964,750,5,
11949.7,4.64172,6.94885,0,9.12964,750,5,
11949.7,4.64142,6.94885,0,9.12964,750,5,
11949.7,4.64081,6.94885,0,9.12964,750,5,
11949.7,4.64111,6.94885,0,9.12964,750,5,
11949.7,4.64172,6.9458,0,9.12964,750,5,
11949.7,4.64142,6.94885,0,9.12964,750,5,
11949.7,4.64172,6.94885,0,9.12964,750,5,
11949.7,4.64142,6.94885,0,9.12964,750,5,
11949.7,4.64172,6.9458,0,9.12964,750,5,
11949.7,4.64111,6.96106,0,9.12964,750,5,
11949.8,4.64111,6.95801,0,9.12964,750,5,
11949.8,4.64111,6.96259,0,9.12964,750,5,
11949.8,4.64081,6.96106,0,9.12964,750,5,
11949.8,4.64111,6.95801,0,9.12964,750,5,
11949.8,4.64111,6.96259,0,9.12964,750,5,
11949.8,4.64111,6.95953,0,9.12964,750,5,
11949.8,4.64111,6.95953,0,9.12964,750,5,
11949.8,4.64142,6.96869,0,9.12964,750,5,
11949.8,4.64142,6.97022,0,9.12964,750,5,
11949.8,4.64203,6.97479,0,9.12964,750,5,
11949.8,4.64111,6.96716,0,9.12964,750,5,
11949.8,4.64142,6.97022,0,9.12964,750,5,
11949.8,4.64111,6.97327,0,9.12964,750,5,
11949.8,4.64142,6.97632,0,9.12964,750,5,
11949.8,4.64111,6.97174,0,9.12964,750,5,
11949.8,4.64111,6.97327,0,9.12964,750,5,
11949.8,4.64142,6.987,0,9.12964,750,5,
11949.8,4.64081,6.98395,0,9.12964,750,5,
11949.8,4.64142,6.98242,0,9.12964,750,5,
11949.8,4.64081,6.98242,0,9.12964,750,5,
11949.8,4.64142,6.98547,0,9.12964,750,5,
11949.8,4.64111,6.98395,0,9.12964,750,5,
11949.8,4.64203,6.98395,0,9.12964,750,5,
11949.8,4.64111,6.98395,0,9.12964,750,5,
11949.8,4.64203,6.99768,0,9.12964,750,5,
11949.8,4.64142,6.99616,0,9.12964,750,5,
11949.8,4.64203,6.99616,0,9.12964,750,5,
11949.8,4.64203,6.99768,0,9.12964,750,5,
11949.8,4.64172,6.99616,0,9.12964,750,5,
11949.8,4.64203,6.99616,0,9.12964,750,5,
11949.8,4.64172,6.99616,0,9.12964,750,5,
11949.8,4.64233,7.00684,0,9.12964,750,5,
11949.8,4.64203,7.00989,0,9.12964,750,5,
11949.8,4.64203,7.00836,0,9.12964,750,5,
11949.8,4.64172,7.00684,0,9.12964,750,5,
11949.8,4.64172,7.00989,0,9.12964,750,5,
11949.8,4.64142,7.00836,0,9.12964,750,5,
11949.8,4.64111,7.00836,0,9.12964,750,5,
11949.8,4.64172,7.01599,0,9.12964,750,5,
11949.8,4.64142,7.0221,0,9.12964,750,5,
11949.8,4.6405,7.0221,0,9.12964,750,5,
11949.8,4.64172,7.02362,0,9.12964,750,5,
11949.8,4.64081,7.02057,0,9.12964,750,5,
11949.8,4.64111,7.0221,0,9.12964,750,5,
11949.8,4.6405,7.02057,0,9.12964,750,5,
11949.8,4.64142,7.0221,0,9.12964,750,5,
11949.8,4.64111,7.03583,0,9.12964,750,5,
11949.8,4.64081,7.03278,0,9.12964,750,5,
11949.8,4.64142,7.03278,0,9.12964,750,5,
11949.8,4.64081,7.03278,0,9.12964,750,5,
11949.9,4.64111,7.03125,0,9.12964,750,5,
11949.9,4.64111,7.0343,0,9.12964,750,5,
11949.9,4.64142,7.03125,0,9.12964,750,5,
11949.9,4.64142,7.04651,0,9.12964,750,5,
11949.9,4.64111,7.04498,0,9.12964,750,5,
11949.9,4.64172,7.04498,0,9.12964,750,5,
11949.9,4.64172,7.04804,0,9.12964,750,5,
11949.9,4.64142,7.04651,0,9.12964,750,5,
11949.9,4.64142,7.04651,0,9.12964,750,5,
11949.9,4.64111,7.04804,0,9.12964,750,5,
11949.9,4.64203,7.04804,0,9.12964,750,5,
11949.9,4.64111,7.06024,0,9.12964,750,5,
11949.9,4.64111,7.05872,0,9.12964,750,5,
11949.9,4.64142,7.05719,0,9.12964,750,5,
11949.9,4.64111,7.05719,0,9.12964,750,5,
11949.9,4.64172,7.05719,0,9.12964,750,5,
11949.9,4.64142,7.05414,0,9.12964,750,5,
11949.9,4.64203,7.05566,0,9.12964,750,5,
11949.9,4.64142,7.06635,0,9.12964,750,5,
11949.9,4.64172,7.0694,0,9.12964,750,5,
11949.9,4.64172,7.07092,0,9.12964,750,5,
11949.9,4.64111,7.0694,0,9.12964,750,5,
11949.9,4.64111,7.0694,0,9.12964,750,5,
11949.9,4.64081,7.07398,0,9.12964,750,5,
11949.9,4.64111,7.07092,0,9.12964,750,5,
11949.9,4.64172,7.07092,0,9.12964,750,5,
11949.9,4.64142,7.07092,0,9.12964,750,5,
11949.9,4.6405,7.08313,0,9.12964,750,5,
11949.9,4.64142,7.08313,0,9.12964,750,5,
11949.9,4.64142,7.08008,0,9.12964,750,5,
11949.9,4.64142,7.08466,0,9.12964,750,5,
11949.9,4.64142,7.08313,0,9.12964,750,5,
11949.9,4.64142,7.07855,0,9.12964,750,5,
11949.9,4.6405,7.0816,0,9.12964,750,5,
11949.9,4.64172,7.0816,0,9.12964,750,5,
11949.9,4.64203,7.09381,0,9.12964,750,5,
11949.9,4.64111,7.09229,0,9.12964,750,5,
11949.9,4.64172,7.09381,0,9.12964,750,5,
11949.9,4.64233,7.09381,0,9.12964,750,5,
11949.9,4.64111,7.09381,0,9.12964,750,5,
11949.9,4.64233,7.09381,0,9.12964,750,5,
11949.9,4.64172,7.09229,0,9.12964,750,5,
11949.9,4.64172,7.09686,0,9.12964,750,5,
11949.9,4.64172,7.09381,0,9.12964,750,5,
11949.9,4.64142,7.10754,0,9.12964,750,5,
11949.9,4.64142,7.10754,0,9.12964,750,5,
11949.9,4.64142,7.10602,0,9.12964,750,5,
11949.9,4.64142,7.10754,0,9.12964,750,5,
11949.9,4.64172,7.10602,0,9.12964,750,5,
11949.9,4.64111,7.10602,0,9.12964,750,5,
11950,4.64111,7.10602,0,9.12964,750,5,
11950,4.64172,7.10449,0,9.12964,750,5,
11950,4.64203,7.10602,0,9.12964,750,5,
11950,4.64142,7.1167,0,9.12964,750,5,
11950,4.64142,7.11823,0,9.12964,750,5,
11950,4.64172,7.11823,0,9.12964,750,5,
11950,4.64172,7.12128,0,9.12964,750,5,
11950,4.64111,7.11975,0,9.12964,750,5,
11950,4.64172,7.11975,0,9.12964,750,5,
11950,4.64172,7.1228,0,9.12964,750,5,
11950,4.64081,7.11823,0,9.12964,750,5,
11950,4.64203,7.12128,0,9.12964,750,5,
11950,4.64203,7.11975,0,9.12964,750,5,
11950,4.64081,7.13043,0,9.12964,750,5,
11950,4.64081,7.13043,0,9.12964,750,5,
11950,4.64172,7.13196,0,9.12964,750,5,
11950,4.64172,7.13196,0,9.12964,750,5,
11950,4.64142,7.12738,0,9.12964,750,5,
11950,4.64691,7.12891,0,9.12964,750,5,
11950,4.6463,7.13043,0,9.12964,750,5,
11950,4.6463,7.13043,0,9.12964,750,5,
11950,4.6463,7.13348,0,9.12964,750,5,
11950,4.64539,7.13196,0,9.12964,750,5,
11950,4.646,7.14874,2.526,9.12964,750,5,
11950,4.64661,7.14264,2.526,9.12964,750,5,
11950,4.646,7.14417,2.526,9.12964,750,5,
11950,4.646,7.14111,2.526,9.12964,750,5,
11950,4.6463,7.14417,2.526,9.12964,750,5,
11950,4.64661,7.14111,2.526,9.12964,750,5,
11950,4.64661,7.14264,2.526,9.12964,750,5,
11950,4.6463,7.14417,2.526,9.12964,750,5,
11950,4.646,7.14111,2.526,9.12964,750,5,
11950,4.6463,7.14264,2.526,9.12964,750,5,
11950,4.64661,7.15485,2.526,9.12964,750,5,
11950,4.64569,7.15485,2.526,9.12964,750,5,
11950,4.6463,7.15942,2.526,9.12964,750,5,
11950,4.6463,7.15637,2.526,9.12964,750,5,
11950,4.64569,7.15485,2.526,9.12964,750,5,
11950,4.646,7.15485,2.526,9.12964,750,5,
11950,4.64661,7.15637,2.526,9.12964,750,5,
11950,4.65057,7.15485,2.526,9.12964,750,5,
11950,4.65179,7.15485,2.526,9.12964,750,5,
11950,4.65149,7.15332,2.526,9.12964,750,5,
11950,4.65179,7.164,2.526,9.12964,750,5,
11950,4.65149,7.17011,2.526,9.12964,750,5,
11950,4.65118,7.17011,2.526,9.12964,750,5,
11950,4.65179,7.16705,2.526,9.12964,750,5,
11950,4.65118,7.16858,2.526,9.12964,750,5,
11950,4.65149,7.16858,2.526,9.12964,750,5,
11950,4.65118,7.16553,2.526,9.12964,750,5,
11950,4.65118,7.16705,2.526,9.12964,750,5,
11950.1,4.65179,7.16705,2.526,9.12964,750,5,
11950.1,4.65149,7.16705,2.526,9.12964,750,5,
11950.1,4.65118,7.16858,2.526,9.12964,750,5,
11950.1,4.65485,7.17621,2.526,9.12964,750,5,
11950.1,4.65607,7.17926,2.526,9.12964,750,5,
11950.1,4.65637,7.17926,2.526,9.12964,750,5,
11950.1,4.65637,7.17926,2.526,9.12964,750,5,
11950.1,4.65576,7.18079,2.526,9.12964,750,5,
11950.1,4.65607,7.18079,2.526,9.12964,750,5,
11950.1,4.65607,7.17926,2.526,9.12964,750,5,
11950.1,4.65637,7.17926,2.526,9.12964,750,5,
11950.1,4.65607,7.17774,2.526,9.12964,750,5,
11950.1,4.65637,7.18079,2.526,9.12964,750,5,
11950.1,4.65637,7.17926,2.526,9.12964,750,5,
11950.1,4.65607,7.18994,2.526,9.12964,750,5,
11950.1,4.66064,7.19147,2.526,9.12964,750,5,
11950.1,4.66095,7.19147,2.526,9.12964,750,5,
11950.1,4.66095,7.18994,2.526,9.12964,750,5,
11950.1,4.66095,7.18994,2.526,9.12964,750,5,
11950.1,4.66064,7.18994,2.526,9.12964,750,5,
11950.1,4.66095,7.18994,2.526,9.12964,750,5,
11950.1,4.66095,7.19147,2.526,9.12964,750,5,
11950.1,4.66095,7.19299,2.526,9.12964,750,5,
11950.1,4.66095,7.19299,2.526,9.12964,750,5,
11950.1,4.66095,7.18994,2.526,9.12964,750,5,
11950.1,4.66614,7.19299,2.526,9.12964,750,5,
11950.1,4.66644,7.20368,2.526,9.12964,750,5,
11950.1,4.66614,7.20062,2.526,9.12964,750,5,
11950.1,4.66583,7.2052,2.526,9.12964,750,5,
11950.1,4.66614,7.20368,2.526,9.12964,750,5,
11950.1,4.66675,7.20673,2.526,9.12964,750,5,
11950.1,4.66553,7.20368,2.526,9.12964,750,5,
11950.1,4.66553,7.20215,2.526,9.12964,750,5,
11950.1,4.66644,7.20673,2.526,9.12964,750,5,
11950.1,4.6701,7.20215,2.526,9.12964,750,5,
11950.1,4.67072,7.2052,2.526,9.12964,750,5,
11950.1,4.67072,7.2052,2.526,9.12964,750,5,
11950.1,4.67072,7.21588,2.526,9.12964,750,5,
11950.1,4.67072,7.21436,2.526,9.12964,750,5,
11950.1,4.67041,7.21588,2.526,9.12964,750,5,
11950.1,4.67102,7.21893,2.526,9.12964,750,5,
11950.1,4.67224,7.21588,2.526,9.12964,750,5,
11950.1,4.6756,7.21588,2.526,9.12964,750,5,
11950.1,4.67499,7.21741,2.526,9.12964,750,5,
11950.1,4.6756,7.21741,2.526,9.12964,750,5,
11950.1,4.6756,7.21588,2.526,9.12964,750,5,
11950.1,4.6759,7.21741,2.526,9.12964,750,5,
11950.1,4.67529,7.21741,2.526,9.12964,750,5,
11950.1,4.67621,7.22962,2.526,9.12964,750,5,
11950.1,4.68048,7.22809,2.526,9.12964,750,5,
11950.2,4.68048,7.22962,2.526,9.12964,750,5,
11950.2,4.68109,7.22809,2.526,9.12964,750,5,
11950.2,4.68079,7.23114,2.526,9.12964,750,5,
11950.2,4.68079,7.22809,2.526,9.12964,750,5,
11950.2,4.68079,7.23267,2.526,9.12964,750,5,
11950.2,4.68445,7.22809,2.526,9.12964,750,5,
11950.2,4.68567,7.22809,2.526,9.12964,750,5,
11950.2,4.68506,7.22809,2.526,9.12964,750,5,
11950.2,4.68567,7.22962,2.526,9.12964,750,5,
11950.2,4.68506,7.2403,2.526,9.12964,750,5,
11950.2,4.68567,7.2403,2.526,9.12964,750,5,
11950.2,4.68903,7.24182,2.526,9.12964,750,5,
11950.2,4.69025,7.24182,2.526,9.12964,750,5,
11950.2,4.69025,7.23724,2.526,9.12964,750,5,
11950.2,4.69025,7.24182,2.526,9.12964,750,5,
11950.2,4.68994,7.2403,2.526,9.12964,750,5,
11950.2,4.69086,7.2403,2.526,9.12964,750,5,
11950.2,4.69543,7.23877,2.526,9.12964,750,5,
11950.2,4.69543,7.2403,2.526,9.12964,750,5,
11950.2,4.69543,7.24182,2.526,9.12964,750,5,
11950.2,4.69452,7.2525,2.526,9.12964,750,5,
11950.2,4.69513,7.25098,2.526,9.12964,750,5,
11950.2,4.6994,7.2525,2.526,9.12964,750,5,
11950.2,4.70001,7.2525,2.526,9.12964,750,5,
11950.2,4.70032,7.2525,2.526,9.12964,750,5,
11950.2,4.69971,7.25098,2.526,9.12964,750,5,
11950.2,4.70093,7.2525,2.526,9.12964,750,5,
11950.2,4.7052,7.2525,2.526,9.12964,750,5,
11950.2,4.7052,7.2525,2.526,9.12964,750,5,
11950.2,4.7049,7.2525,2.526,9.12964,750,5,
11950.2,4.7052,7.25403,2.526,9.12964,750,5,
11950.2,4.70642,7.26318,2.526,9.12964,750,5,
11950.2,4.71008,7.26471,2.526,9.12964,750,5,
11950.2,4.70978,7.26471,2.526,9.12964,750,5,
11950.2,4.71008,7.26624,2.526,9.12964,750,5,
11950.2,4.71069,7.26471,2.526,9.12964,750,5,
11950.2,4.71466,7.26471,2.526,9.12964,750,5,
11950.2,4.71466,7.26624,2.526,9.12964,750,5,
11950.2,4.71497,7.26624,2.526,9.12964,750,5,
11950.2,4.71405,7.26624,2.526,9.12964,750,5,
11950.2,4.71893,7.27844,2.526,9.12964,750,5,
11950.2,4.71924,7.27844,2.526,9.12964,750,5,
11950.2,4.72015,7.27539,2.526,9.12964,750,5,
11950.2,4.71924,7.27844,2.526,9.12964,750,5,
11950.2,4.72046,7.27844,2.526,9.12964,750,5,
11950.2,4.72443,7.27844,2.526,9.12964,750,5,
11950.2,4.72473,7.27997,2.526,9.12964,750,5,
11950.2,4.72443,7.27844,2.526,9.12964,750,5,
11950.2,4.72626,7.27844,2.526,9.12964,750,5,
11950.2,4.729,7.29065,2.526,9.12964,750,5,
11950.3,4.72961,7.2876,2.526,9.12964,750,5,
11950.3,4.7287,7.29065,2.526,9.12964,750,5,
11950.3,4.73114,7.28912,2.526,9.12964,750,5,
11950.3,4.73389,7.29218,2.526,9.12964,750,5,
11950.3,4.7345,7.29218,2.526,9.12964,750,5,
11950.3,4.7348,7.29065,2.526,9.12964,750,5,
11950.3,4.73785,7.28912,2.526,9.12964,750,5,
11950.3,4.73907,7.29065,2.526,9.12964,750,5,
11950.3,4.73969,7.29523,2.526,9.12964,750,5,
11950.3,4.73907,7.30286,2.526,9.12964,750,5,
11950.3,4.74426,7.30438,2.526,9.12964,750,5,
11950.3,4.74487,7.29828,2.526,9.12964,750,5,
11950.3,4.74426,7.30286,2.526,9.12964,750,5,
11950.3,4.74396,7.30438,2.526,9.12964,750,5,
11950.3,4.74915,7.30591,2.526,9.12964,750,5,
11950.3,4.74854,7.30438,2.526,9.12964,750,5,
11950.3,4.74854,7.30591,2.526,9.12964,750,5,
11950.3,4.75281,7.30744,2.526,9.12964,750,5,
11950.3,4.75403,7.31354,2.526,9.12964,750,5,
11950.3,4.75403,7.31506,2.526,9.12964,750,5,
11950.3,4.75403,7.31812,2.526,9.12964,750,5,
11950.3,4.75891,7.31506,2.526,9.12964,750,5,
11950.3,4.75891,7.31506,2.526,9.12964,750,5,
11950.3,4.75922,7.31354,2.526,9.12964,750,5,
11950.3,4.76257,7.31812,2.526,9.12964,750,5,
11950.3,4.7641,7.31354,2.526,9.12964,750,5,
11950.3,4.76318,7.31659,2.526,9.12964,750,5,
11950.3,4.76379,7.32727,2.526,9.12964,750,5,
11950.3,4.76868,7.33032,2.526,9.12964,750,5,
11950.3,4.76929,7.32575,2.526,9.12964,750,5,
11950.3,4.76898,7.32727,2.526,9.12964,750,5,
11950.3,4.77417,7.32727,2.526,9.12964,750,5,
11950.3,4.77356,7.32727,2.526,9.12964,750,5,
11950.3,4.77386,7.32727,2.526,9.12964,750,5,
11950.3,4.77478,7.32422,2.526,9.12964,750,5,
11950.3,4.77814,7.32727,2.526,9.12964,750,5,
11950.3,4.77905,7.33643,2.526,9.12964,750,5,
11950.3,4.77875,7.33948,2.526,9.12964,750,5,
11950.3,4.78363,7.33948,2.526,9.12964,750,5,
11950.3,4.78302,7.341,2.526,9.12964,750,5,
11950.3,4.78302,7.341,2.526,9.12964,750,5,
11950.3,4.7876,7.341,2.526,9.12964,750,5,
11950.3,4.78851,7.341,2.526,9.12964,750,5,
11950.3,4.78882,7.341,2.526,9.12964,750,5,
11950.3,4.79218,7.341,2.526,9.12964,750,5,
11950.3,4.7934,7.35016,2.526,9.12964,750,5,
11950.3,4.7934,7.35321,2.526,9.12964,750,5,
11950.3,4.79492,7.35169,2.526,9.12964,750,5,
11950.3,4.79828,7.35626,2.526,9.12964,750,5,
11950.4,4.79797,7.35016,2.526,9.12964,750,5,
11950.4,4.7995,7.34863,2.526,9.12964,750,5,
11950.4,4.80286,7.35321,2.526,9.12964,750,5,
11950.4,4.80316,7.35321,2.526,9.12964,750,5,
11950.4,4.80316,7.35169,2.526,9.12964,750,5,
11950.4,4.80804,7.36084,2.526,9.12964,750,5,
11950.4,4.80835,7.36389,2.526,9.12964,750,5,
11950.4,4.80865,7.36389,2.526,9.12964,750,5,
11950.4,4.81354,7.36389,2.526,9.12964,750,5,
11950.4,4.81262,7.36237,2.526,9.12964,750,5,
11950.4,4.81323,7.36694,2.526,9.12964,750,5,
11950.4,4.81812,7.36389,2.526,9.12964,750,5,
11950.4,4.81812,7.36542,2.526,9.12964,750,5,
11950.4,4.81812,7.36389,2.526,9.12964,750,5,
11950.4,4.82269,7.37763,2.526,9.12964,750,5,
11950.4,4.823,7.37457,2.526,9.12964,750,5,
11950.4,4.82269,7.37763,2.526,9.12964,750,5,
11950.4,4.82574,7.37915,2.526,9.12964,750,5,
11950.4,4.82758,7.37457,2.526,9.12964,750,5,
11950.4,4.82788,7.3761,2.526,9.12964,750,5,
11950.4,4.83093,7.3761,2.526,9.12964,750,5,
11950.4,4.83246,7.3761,2.526,9.12964,750,5,
11950.4,4.83276,7.37457,2.526,9.12964,750,5,
11950.4,4.83643,7.38831,2.526,9.12964,750,5,
11950.4,4.83704,7.38678,2.526,9.12964,750,5,
11950.4,4.83734,7.38983,2.526,9.12964,750,5,
11950.4,4.841,7.38678,2.526,9.12964,750,5,
11950.4,4.84253,7.38831,2.526,9.12964,750,5,
11950.4,4.84283,7.38831,2.526,9.12964,750,5,
11950.4,4.84589,7.38525,2.526,9.12964,750,5,
11950.4,4.84741,7.39136,2.526,9.12964,750,5,
11950.4,4.84741,7.39746,2.526,9.12964,750,5,
11950.4,4.85077,7.40051,2.526,9.12964,750,5,
11950.4,4.85291,7.40051,2.526,9.12964,750,5,
11950.4,4.85168,7.40204,2.526,9.12964,750,5,
11950.4,4.85596,7.40051,2.526,9.12964,750,5,
11950.4,4.85779,7.40204,2.526,9.12964,750,5,
11950.4,4.85626,7.40509,2.526,9.12964,750,5,
11950.4,4.85718,7.40509,2.526,9.12964,750,5,
11950.4,4.86176,7.39899,2.526,9.12964,750,5,
11950.4,4.86237,7.41119,2.526,9.12964,750,5,
11950.4,4.86267,7.41272,2.526,9.12964,750,5,
11950.4,4.86755,7.41577,2.526,9.12964,750,5,
11950.4,4.86694,7.41577,2.526,9.12964,750,5,
11950.4,4.86877,7.41119,2.526,9.12964,750,5,
11950.4,4.87183,7.41425,2.526,9.12964,750,5,
11950.4,4.87213,7.41272,2.526,9.12964,750,5,
11950.4,4.87305,7.41119,2.526,9.12964,750,5,
11950.4,4.8764,7.41425,2.526,9.12964,750,5,
11950.4,4.8764,7.4234,2.526,9.12964,750,5,
11950.5,4.87671,7.42493,2.526,9.12964,750,5,
11950.5,4.88098,7.42493,2.526,9.12964,750,5,
11950.5,4.88159,7.4234,2.526,9.12964,750,5,
11950.5,4.8822,7.42188,2.526,9.12964,750,5,
11950.5,4.88617,7.42188,2.526,9.12964,750,5,
11950.5,4.88647,7.42493,2.526,9.12964,750,5,
11950.5,4.8877,7.42645,2.526,9.12964,750,5,
11950.5,4.89166,7.42493,2.526,9.12964,750,5,
11950.5,4.89166,7.43408,2.526,9.12964,750,5,
11950.5,4.89319,7.44019,2.526,9.12964,750,5,
11950.5,4.89655,7.44171,2.526,9.12964,750,5,
11950.5,4.89655,7.43866,2.526,9.12964,750,5,
11950.5,4.89716,7.44019,2.526,9.12964,750,5,
11950.5,4.90112,7.43713,2.526,9.12964,750,5,
11950.5,4.90234,7.43713,2.526,9.12964,750,5,
11950.5,4.90234,7.43713,2.526,9.12964,750,5,
11950.5,4.90631,7.43866,2.526,9.12964,750,5,
11950.5,4.90662,7.43866,2.526,9.12964,750,5,
11950.5,4.90692,7.43713,2.526,9.12964,750,5,
11950.5,4.91119,7.45087,2.526,9.12964,750,5,
11950.5,4.91089,7.45239,2.526,9.12964,750,5,
11950.5,4.9115,7.44782,2.526,9.12964,750,5,
11950.5,4.91547,7.45087,2.526,9.12964,750,5,
11950.5,4.91577,7.45087,2.526,9.12964,750,5,
11950.5,4.91699,7.44934,2.526,9.12964,750,5,
11950.5,4.92096,7.45087,2.526,9.12964,750,5,
11950.5,4.92096,7.44934,2.526,9.12964,750,5,
11950.5,4.92157,7.45239,2.526,9.12964,750,5,
11950.5,4.92523,7.45087,2.526,9.12964,750,5,
11950.5,4.92615,7.46307,2.526,9.12964,750,5,
11950.5,4.92737,7.46307,2.526,9.12964,750,5,
11950.5,4.93103,7.46002,2.526,9.12964,750,5,
11950.5,4.93042,7.46155,2.526,9.12964,750,5,
11950.5,4.93103,7.46002,2.526,9.12964,750,5,
11950.5,4.9353,7.46155,2.526,9.12964,750,5,
11950.5,4.93591,7.4646,2.526,9.12964,750,5,
11950.5,4.93652,7.46155,2.526,9.12964,750,5,
11950.5,4.9411,7.46307,2.526,9.12964,750,5,
11950.5,4.94019,7.46307,2.526,9.12964,750,5,
11950.5,4.94141,7.46155,2.526,9.12964,750,5,
11950.5,4.94568,7.4707,2.526,9.12964,750,5,
11950.5,4.94598,7.47376,2.526,9.12964,750,5,
11950.5,4.94568,7.47376,2.526,9.12964,750,5,
11950.5,4.94995,7.47376,2.526,9.12964,750,5,
11950.5,4.95026,7.47986,2.526,9.12964,750,5,
11950.5,4.95056,7.47223,2.526,9.12964,750,5,
11950.5,4.95544,7.47681,2.526,9.12964,750,5,
11950.5,4.95575,7.47223,2.526,9.12964,750,5,
11950.5,4.95605,7.47223,2.526,9.12964,750,5,
11950.5,4.96063,7.47681,2.526,9.12964,750,5,
11950.5,4.96094,7.47528,2.526,9.12964,750,5,
11950.6,4.96033,7.47681,2.526,9.12964,750,5,
11950.6,4.96521,7.48749,2.526,9.12964,750,5,
11950.6,4.96521,7.49054,2.526,9.12964,750,5,
11950.6,4.96582,7.48901,2.526,9.12964,750,5,
11950.6,4.96918,7.48749,2.526,9.12964,750,5,
11950.6,4.96979,7.48749,2.526,9.12964,750,5,
11950.6,4.97009,7.48444,2.526,9.12964,750,5,
11950.6,4.97345,7.48749,2.526,9.12964,750,5,
11950.6,4.97467,7.48749,2.526,9.12964,750,5,
11950.6,4.97467,7.48749,2.526,9.12964,750,5,
11950.6,4.97498,7.48901,2.526,9.12964,750,5,
11950.6,4.97925,7.48291,2.526,9.12964,750,5,
11950.6,4.97955,7.50122,2.526,9.12964,750,5,
11950.6,4.98138,7.50122,2.526,9.12964,750,5,
11950.6,4.98444,7.4997,2.526,9.12964,750,5,
11950.6,4.98474,7.4997,2.526,9.12964,750,5,
11950.6,4.98383,7.49817,2.526,9.12964,750,5,
11950.6,4.98932,7.4997,2.526,9.12964,750,5,
11950.6,4.98901,7.4997,2.526,9.12964,750,5,
11950.6,4.98962,7.50122,2.526,9.12964,750,5,
11950.6,4.99359,7.50122,2.526,9.12964,750,5,
11950.6,4.99481,7.49817,2.526,9.12964,750,5,
11950.6,4.9939,7.4997,2.526,9.12964,750,5,
11950.6,4.99542,7.50885,2.526,9.12964,750,5,
11950.6,4.99939,7.5119,2.526,9.12964,750,5,
11950.6,4.99939,7.50885,2.526,9.12964,750,5,
11950.6,4.99908,7.5119,2.526,9.12964,750,5,
11950.6,5.00397,7.51038,2.526,9.12964,750,5,
11950.6,5.00397,7.5119,2.526,9.12964,750,5,
11950.6,5.00397,7.5119,2.526,9.12964,750,5,
11950.6,5.00732,7.51038,2.526,9.12964,750,5,
11950.6,5.00885,7.5119,2.526,9.12964,750,5,
11950.6,5.00885,7.5119,2.526,9.12964,750,5,
11950.6,5.01007,7.51038,2.526,9.12964,750,5,
11950.6,5.01343,7.52106,2.526,9.12964,750,5,
11950.6,5.01373,7.52258,2.526,9.12964,750,5,
11950.6,5.01465,7.52411,2.526,9.12964,750,5,
11950.6,5.01862,7.52411,2.526,9.12964,750,5,
11950.6,5.01862,7.52564,2.526,9.12964,750,5,
11950.6,5.0177,7.52411,2.526,9.12964,750,5,
11950.6,5.01984,7.52564,2.526,9.12964,750,5,
11950.6,5.0235,7.52258,2.526,9.12964,750,5,
11950.6,5.0235,7.52258,2.526,9.12964,750,5,
11950.6,5.0235,7.52106,2.526,9.12964,750,5,
11950.6,5.02808,7.52411,2.526,9.12964,750,5,
11950.6,5.0293,7.53784,2.526,9.12964,750,5,
11950.6,5.02991,7.53479,2.526,9.12964,750,5,
11950.6,5.02869,7.53784,2.526,9.12964,750,5,
11950.6,5.03418,7.53327,2.526,9.12964,750,5,
11950.6,5.03357,7.53479,2.526,9.12964,750,5,
11950.7,5.03326,7.53327,2.526,9.12964,750,5,
11950.7,5.03662,7.53632,2.526,9.12964,750,5,
11950.7,5.03815,7.53632,2.526,9.12964,750,5,
11950.7,5.03815,7.53784,2.526,9.12964,750,5,
11950.7,5.03906,7.53327,2.526,9.12964,750,5,
11950.7,5.04272,7.53479,2.526,9.12964,750,5,
11950.7,5.04272,7.547,2.526,9.12964,750,5,
11950.7,5.04364,7.54852,2.526,9.12964,750,5,
11950.7,5.04303,7.55005,2.526,9.12964,750,5,
11950.7,5.04852,7.547,2.526,9.12964,750,5,
11950.7,5.04791,7.54852,2.526,9.12964,750,5,
11950.7,5.04883,7.547,2.526,9.12964,750,5,
11950.7,5.04944,7.54852,2.526,9.12964,750,5,
11950.7,5.0528,7.54852,2.526,9.12964,750,5,
11950.7,5.05371,7.547,2.526,9.12964,750,5,
11950.7,5.05341,7.55005,2.526,9.12964,750,5,
11950.7,5.05676,7.55158,2.526,9.12964,750,5,
11950.7,5.05768,7.55921,2.526,9.12964,750,5,
11950.7,5.05768,7.56226,2.526,9.12964,750,5,
11950.7,5.05859,7.55768,2.526,9.12964,750,5,
11950.7,5.06256,7.55768,2.526,9.12964,750,5,
11950.7,5.06317,7.55921,2.526,9.12964,750,5,
11950.7,5.06287,7.55768,2.526,9.12964,750,5,
11950.7,5.06226,7.56378,2.526,9.12964,750,5,
11950.7,5.06836,7.56226,2.526,9.12964,750,5,
11950.7,5.06805,7.56073,2.526,9.12964,750,5,
11950.7,5.06805,7.56989,2.526,9.12964,750,5,
11950.7,5.06866,7.57446,2.526,9.12964,750,5,
11950.7,5.07263,7.57446,2.526,9.12964,750,5,
11950.7,5.07233,7.57141,2.526,9.12964,750,5,
11950.7,5.07233,7.57294,2.526,9.12964,750,5,
11950.7,5.07416,7.57141,2.526,9.12964,750,5,
11950.7,5.07751,7.57599,2.526,9.12964,750,5,
11950.7,5.07721,7.57294,2.526,9.12964,750,5,
11950.7,5.07812,7.56989,2.526,9.12964,750,5,
11950.7,5.08179,7.57446,2.526,9.12964,750,5,
11950.7,5.0824,7.58514,2.526,9.12964,750,5,
11950.7,5.08301,7.58667,2.526,9.12964,750,5,
11950.7,5.08209,7.58514,2.526,9.12964,750,5,
11950.7,5.08575,7.58362,2.526,9.12964,750,5,
11950.7,5.08667,7.58514,2.526,9.12964,750,5,
11950.7,5.08698,7.58514,2.526,9.12964,750,5,
11950.7,5.08698,7.58514,2.526,9.12964,750,5,
11950.7,5.09186,7.58514,2.526,9.12964,750,5,
11950.7,5.09155,7.59583,2.526,9.12964,750,5,
11950.7,5.09277,7.59888,2.526,9.12964,750,5,
11950.7,5.09277,7.5943,2.526,9.12964,750,5,
11950.7,5.09674,7.59583,2.526,9.12964,750,5,
11950.7,5.09674,7.5943,2.526,9.12964,750,5,
11950.8,5.09613,7.59735,2.526,9.12964,750,5,
11950.8,5.09827,7.5943,2.526,9.12964,750,5,
11950.8,5.10162,7.5943,2.526,9.12964,750,5,
11950.8,5.10193,7.59888,2.526,9.12964,750,5,
11950.8,5.10162,7.60956,2.526,9.12964,750,5,
11950.8,5.10284,7.61261,2.526,9.12964,750,5,
11950.8,5.10712,7.60803,2.526,9.12964,750,5,
11950.8,5.10742,7.60956,2.526,9.12964,750,5,
11950.8,5.10681,7.61414,2.526,9.12964,750,5,
11950.8,5.11078,7.60803,2.526,9.12964,750,5,
11950.8,5.112,7.61108,2.526,9.12964,750,5,
11950.8,5.11108,7.61261,2.526,9.12964,750,5,
11950.8,5.112,7.61108,2.526,9.12964,750,5,
11950.8,5.11566,7.62177,2.526,9.12964,750,5,
11950.8,5.11749,7.62329,2.526,9.12964,750,5,
11950.8,5.11688,7.62329,2.526,9.12964,750,5,
11950.8,5.11658,7.62024,2.526,9.12964,750,5,
11950.8,5.12115,7.61871,2.526,9.12964,750,5,
11950.8,5.12207,7.62177,2.526,9.12964,750,5,
11950.8,5.12207,7.62024,2.526,9.12964,750,5,
11950.8,5.12146,7.62024,2.526,9.12964,750,5,
11950.8,5.12665,7.62024,2.526,9.12964,750,5,
11950.8,5.12695,7.63092,2.526,9.12964,750,5,
11950.8,5.12634,7.6294,2.526,9.12964,750,5,
11950.8,5.12695,7.63397,2.526,9.12964,750,5,
11950.8,5.13123,7.63397,2.526,9.12964,750,5,
11950.8,5.13123,7.63702,2.526,9.12964,750,5,
11950.8,5.13184,7.63397,2.526,9.12964,750,5,
11950.8,5.13123,7.63092,2.526,9.12964,750,5,
11950.8,5.13611,7.63397,2.526,9.12964,750,5,
11950.8,5.13672,7.63397,2.526,9.12964,750,5,
11950.8,5.13702,7.63397,2.526,9.12964,750,5,
11950.8,5.1358,7.64465,2.526,9.12964,750,5,
11950.8,5.1416,7.64465,2.526,9.12964,750,5,
11950.8,5.1413,7.64618,2.526,9.12964,750,5,
11950.8,5.1413,7.64771,2.526,9.12964,750,5,
11950.8,5.14069,7.64618,2.526,9.12964,750,5,
11950.8,5.14587,7.64618,2.526,9.12964,750,5,
11950.8,5.14557,7.64618,2.526,9.12964,750,5,
11950.8,5.14587,7.64465,2.526,9.12964,750,5,
11950.8,5.14648,7.64465,2.526,9.12964,750,5,
11950.8,5.15106,7.64923,2.526,9.12964,750,5,
11950.8,5.15076,7.65381,2.526,9.12964,750,5,
11950.8,5.15015,7.65686,2.526,9.12964,750,5,
11950.8,5.15106,7.65991,2.526,9.12964,750,5,
11950.8,5.15411,7.65839,2.526,9.12964,750,5,
11950.8,5.15625,7.65686,2.526,9.12964,750,5,
11950.8,5.15686,7.65991,2.526,9.12964,750,5,
11950.8,5.15533,7.66144,2.526,9.12964,750,5,
11950.8,5.15625,7.65839,2.526,9.12964,750,5,
11950.9,5.16022,7.65686,2.526,9.12964,750,5,
11950.9,5.16022,7.65839,2.526,9.12964,750,5,
11950.9,5.16083,7.65686,2.526,9.12964,750,5,
11950.9,5.16083,7.66754,2.526,9.12964,750,5,
11950.9,5.16418,7.66907,2.526,9.12964,750,5,
11950.9,5.16418,7.67212,2.526,9.12964,750,5,
11950.9,5.16479,7.66907,2.526,9.12964,750,5,
11950.9,5.1651,7.67212,2.526,9.12964,750,5,
11950.9,5.16632,7.67212,2.526,9.12964,750,5,
11950.9,5.16998,7.66907,2.526,9.12964,750,5,
11950.9,5.16998,7.66907,2.526,9.12964,750,5,
11950.9,5.17029,7.66907,2.526,9.12964,750,5,
11950.9,5.17029,7.67517,2.526,9.12964,750,5,
11950.9,5.17365,7.67059,2.526,9.12964,750,5,
11950.9,5.17578,7.67365,2.526,9.12964,750,5,
11950.9,5.17517,7.68128,2.526,9.12964,750,5,
11950.9,5.17487,7.68433,2.526,9.12964,750,5,
11950.9,5.17456,7.68128,2.526,9.12964,750,5,
11950.9,5.17883,7.6828,2.526,9.12964,750,5,
11950.9,5.17975,7.68433,2.526,9.12964,750,5,
11950.9,5.17975,7.68128,2.526,9.12964,750,5,
11950.9,5.18005,7.68738,2.526,9.12964,750,5,
11950.9,5.18005,7.68585,2.526,9.12964,750,5,
11950.9,5.18372,7.68585,2.526,9.12964,750,5,
11950.9,5.18463,7.6828,2.526,9.12964,750,5,
11950.9,5.18494,7.68128,2.526,9.12964,750,5,
11950.9,5.18463,7.68433,2.526,9.12964,750,5,
11950.9,5.18463,7.6828,2.526,9.12964,750,5,
11950.9,5.18616,7.69043,2.526,9.12964,750,5,
11950.9,5.18982,7.70264,2.526,9.12964,750,5,
11950.9,5.18982,7.69348,2.526,9.12964,750,5,
11950.9,5.19012,7.69348,2.526,9.12964,750,5,
11950.9,5.18951,7.69501,2.526,9.12964,750,5,
11950.9,5.18982,7.69806,2.526,9.12964,750,5,
11950.9,5.1944,7.69501,2.526,9.12964,750,5,
11950.9,5.19531,7.69653,2.526,9.12964,750,5,
11950.9,5.19501,7.69653,2.526,9.12964,750,5,
11950.9,5.19379,7.69348,2.526,9.12964,750,5,
11950.9,5.19409,7.69348,2.526,9.12964,750,5,
11950.9,5.1944,7.69806,2.526,9.12964,750,5,
11950.9,5.19928,7.69806,2.526,9.12964,750,5,
11950.9,5.19958,7.69653,2.526,9.12964,750,5,
11950.9,5.19867,7.70722,2.526,9.12964,750,5,
11950.9,5.19958,7.70569,2.526,9.12964,750,5,
11950.9,5.19958,7.71027,2.526,9.12964,750,5,
11950.9,5.19928,7.70569,2.526,9.12964,750,5,
11950.9,5.20447,7.70722,2.526,9.12964,750,5,
11950.9,5.20386,7.70722,2.526,9.12964,750,5,
11950.9,5.20386,7.70722,2.526,9.12964,750,5,
11950.9,5.20477,7.70722,2.526,9.12964,750,5,
11951,5.20508,7.71027,2.526,9.12964,750,5,
11951,5.20416,7.70722,2.526,9.12964,750,5,
11951,5.20538,7.71027,2.526,9.12964,750,5,
11951,5.20905,7.70874,2.526,9.12964,750,5,
11951,5.20996,7.70416,2.526,9.12964,750,5,
11951,5.20905,7.70569,2.526,9.12964,750,5,
11951,5.20996,7.70874,2.526,9.12964,750,5,
11951,5.20905,7.71942,2.526,9.12964,750,5,
11951,5.20966,7.7179,2.526,9.12964,750,5,
11951,5.21057,7.72095,2.526,9.12964,750,5,
11951,5.21484,7.72247,2.526,9.12964,750,5,
11951,5.21393,7.72095,2.526,9.12964,750,5,
11951,5.21423,7.71942,2.526,9.12964,750,5,
11951,5.21454,7.71942,2.526,9.12964,750,5,
11951,5.21484,7.71942,2.526,9.12964,750,5,
11951,5.21423,7.72095,2.526,9.12964,750,5,
11951,5.21454,7.7179,2.526,9.12964,750,5,
11951,5.21393,7.72095,2.526,9.12964,750,5,
11951,5.22003,7.71942,2.526,9.12964,750,5,
11951,5.22003,7.71637,2.526,9.12964,750,5,
11951,5.21973,7.7301,2.526,9.12964,750,5,
11951,5.21912,7.73316,2.526,9.12964,750,5,
11951,5.21912,7.73163,2.526,9.12964,750,5,
11951,5.21912,7.72858,2.526,9.12964,750,5,
11951,5.21851,7.73316,2.526,9.12964,750,5,
11951,5.21973,7.73773,2.526,9.12964,750,5,
11951,5.21912,7.73316,2.526,9.12964,750,5,
11951,5.22064,7.73316,2.526,9.12964,750,5,
11951,5.22461,7.73316,2.526,9.12964,750,5,
11951,5.224,7.73316,2.526,9.12964,750,5,
11951,5.22461,7.73316,2.526,9.12964,750,5,
11951,5.22461,7.73773,2.526,9.12964,750,5,
11951,5.22369,7.73468,2.526,9.12964,750,5,
11951,5.22461,7.73926,2.526,9.12964,750,5,
11951,5.2243,7.74231,2.526,9.12964,750,5,
11951,5.224,7.74384,2.526,9.12964,750,5,
11951,5.224,7.74841,2.526,9.12964,750,5,
11951,5.22461,7.74231,2.526,9.12964,750,5,
11951,5.22491,7.74231,2.526,9.12964,750,5,
11951,5.22614,7.74384,2.526,9.12964,750,5,
11951,5.2301,7.74231,2.526,9.12964,750,5,
11951,5.22919,7.74384,2.526,9.12964,750,5,
11951,5.2298,7.73773,2.526,9.12964,750,5,
11951,5.22919,7.74231,2.526,9.12964,750,5,
11951,5.22919,7.74536,2.526,9.12964,750,5,
11951,5.22919,7.75299,2.526,9.12964,750,5,
11951,5.22919,7.75604,2.526,9.12964,750,5,
11951,5.22858,7.75604,2.526,9.12964,750,5,
11951,5.22858,7.75604,2.526,9.12964,750,5,
11951,5.2298,7.7591,2.526,9.12964,750,5,
11951,5.22919,7.75757,2.526,9.12964,750,5,
11951.1,5.22888,7.75757,2.526,9.12964,750,5,
11951.1,5.22888,7.75604,0.436,9.12964,750,5,
11951.1,5.22888,7.75757,0.436,9.12964,750,5,
11951.1,5.22949,7.75604,0.436,9.12964,750,5,
11951.1,5.22888,7.75757,0.436,9.12964,750,5,
11951.1,5.22949,7.75604,0.436,9.12964,750,5,
11951.1,5.23407,7.76672,0.436,9.12964,750,5,
11951.1,5.23407,7.76978,0.436,9.12964,750,5,
11951.1,5.23376,7.7713,0.436,9.12964,750,5,
11951.1,5.23438,7.76978,0.436,9.12964,750,5,
11951.1,5.23376,7.76978,0.436,9.12964,750,5,
11951.1,5.23438,7.76825,0.436,9.12964,750,5,
11951.1,5.23346,7.76672,0.436,9.12964,750,5,
11951.1,5.23438,7.76825,0.436,9.12964,750,5,
11951.1,5.23346,7.76978,0.436,9.12964,750,5,
11951.1,5.23438,7.76672,0.436,9.12964,750,5,
11951.1,5.23376,7.76672,0.436,9.12964,750,5,
11951.1,5.23438,7.77741,0.436,9.12964,750,5,
11951.1,5.23438,7.78046,0.436,9.12964,750,5,
11951.1,5.23468,7.78504,0.436,9.12964,750,5,
11951.1,5.23407,7.78198,0.436,9.12964,750,5,
11951.1,5.23468,7.78046,0.436,9.12964,750,5,
11951.1,5.23438,7.78198,0.436,9.12964,750,5,
11951.1,5.23407,7.77893,0.436,9.12964,750,5,
11951.1,5.23468,7.78046,0.436,9.12964,750,5,
11951.1,5.23438,7.77893,0.436,9.12964,750,5,
11951.1,5.23376,7.78046,0.436,9.12964,750,5,
11951.1,5.23407,7.78046,0.436,9.12964,750,5,
11951.1,5.23438,7.78351,0.436,9.12964,750,5,
11951.1,5.23468,7.79572,0.436,9.12964,750,5,
11951.1,5.23407,7.79572,0.436,9.12964,750,5,
11951.1,5.23438,7.79419,0.436,9.12964,750,5,
11951.1,5.23407,7.79419,0.436,9.12964,750,5,
11951.1,5.23407,7.79724,0.436,9.12964,750,5,
11951.1,5.23468,7.78961,0.436,9.12964,750,5,
11951.1,5.23376,7.78961,0.436,9.12964,750,5,
11951.1,5.23407,7.79114,0.436,9.12964,750,5,
11951.1,5.23376,7.79114,0.436,9.12964,750,5,
11951.1,5.23376,7.79266,0.436,9.12964,750,5,
11951.1,5.23407,7.79419,0.436,9.12964,750,5,
11951.1,5.23438,7.80182,0.436,9.12964,750,5,
11951.1,5.23407,7.8064,0.436,9.12964,750,5,
11951.1,5.23468,7.80487,0.436,9.12964,750,5,
11951.1,5.23376,7.80182,0.436,9.12964,750,5,
11951.1,5.23438,7.80335,0.436,9.12964,750,5,
11951.1,5.23438,7.8064,0.436,9.12964,750,5,
11951.1,5.23438,7.8064,0.436,9.12964,750,5,
11951.1,5.23438,7.80487,0.436,9.12964,750,5,
11951.1,5.23438,7.8064,0.436,9.12964,750,5,
11951.1,5.23438,7.8064,0.436,9.12964,750,5,
11951.2,5.23376,7.80792,0.436,9.12964,750,5,
11951.2,5.23346,7.80335,0.436,9.12964,750,5,
11951.2,5.23499,7.81098,0.436,9.12964,750,5,
11951.2,5.23438,7.81708,0.436,9.12964,750,5,
11951.2,5.23499,7.81708,0.436,9.12964,750,5,
11951.2,5.23376,7.81555,0.436,9.12964,750,5,
11951.2,5.23346,7.81708,0.436,9.12964,750,5,
11951.2,5.23468,7.8186,0.436,9.12964,750,5,
11951.2,5.23376,7.81555,0.436,9.12964,750,5,
11951.2,5.23438,7.8186,0.436,9.12964,750,5,
11951.2,5.23346,7.8186,0.436,9.12964,750,5,
11951.2,5.23376,7.8186,0.436,9.12964,750,5,
11951.2,5.23468,7.81555,0.436,9.12964,750,5,
11951.2,5.23438,7.81403,0.436,9.12964,750,5,
11951.2,5.23346,7.81708,0.436,9.12964,750,5,
11951.2,5.23376,7.81555,0.436,9.12964,750,5,
11951.2,5.23468,7.83081,0.436,9.12964,750,5,
11951.2,5.23254,7.83386,0.436,9.12964,750,5,
11951.2,5.22888,7.83081,0.436,9.12964,750,5,
11951.2,5.22858,7.82929,0.436,9.12964,750,5,
11951.2,5.22949,7.83081,0.436,9.12964,750,5,
11951.2,5.22949,7.83234,0.436,9.12964,750,5,
11951.2,5.2298,7.83081,0.436,9.12964,750,5,
11951.2,5.22858,7.83081,0.436,9.12964,750,5,
11951.2,5.22919,7.82929,0.436,9.12964,750,5,
11951.2,5.22888,7.82929,0.436,9.12964,750,5,
11951.2,5.22888,7.82623,0.436,9.12964,750,5,
11951.2,5.22858,7.83081,0.436,9.12964,750,5,
11951.2,5.22949,7.83234,0.436,9.12964,750,5,
11951.2,5.22949,7.84302,0.436,9.12964,750,5,
11951.2,5.22919,7.83844,0.436,9.12964,750,5,
11951.2,5.22888,7.84302,0.436,9.12964,750,5,
11951.2,5.22919,7.83997,0.436,9.12964,750,5,
11951.2,5.22858,7.84149,0.436,9.12964,750,5,
11951.2,5.22949,7.84302,0.436,9.12964,750,5,
11951.2,5.22461,7.83997,0.436,9.12964,750,5,
11951.2,5.22369,7.84149,0.436,9.12964,750,5,
11951.2,5.2243,7.83997,0.436,9.12964,750,5,
11951.2,5.224,7.83997,0.436,9.12964,750,5,
11951.2,5.22461,7.84302,0.436,9.12964,750,5,
11951.2,5.22461,7.84149,0.436,9.12964,750,5,
11951.2,5.22461,7.84149,0.436,9.12964,750,5,
11951.2,5.22491,7.85523,0.436,9.12964,750,5,
11951.2,5.22522,7.8537,0.436,9.12964,750,5,
11951.2,5.22461,7.85217,0.436,9.12964,750,5,
11951.2,5.22369,7.85065,0.436,9.12964,750,5,
11951.2,5.22491,7.85523,0.436,9.12964,750,5,
11951.2,5.224,7.8598,0.436,9.12964,750,5,
11951.2,5.21942,7.85523,0.436,9.12964,750,5,
11951.2,5.21973,7.8537,0.436,9.12964,750,5,
11951.3,5.21942,7.8537,0.436,9.12964,750,5,
11951.3,5.21973,7.8537,0.436,9.12964,750,5,
11951.3,5.21942,7.85217,0.436,9.12964,750,5,
11951.3,5.21912,7.85217,0.436,9.12964,750,5,
11951.3,5.21973,7.8537,0.436,9.12964,750,5,
11951.3,5.21881,7.8537,0.436,9.12964,750,5,
11951.3,5.21942,7.86591,0.436,9.12964,750,5,
11951.3,5.21942,7.86133,0.436,9.12964,750,5,
11951.3,5.21973,7.86591,0.436,9.12964,750,5,
11951.3,5.21576,7.86438,0.436,9.12964,750,5,
11951.3,5.21484,7.86591,0.436,9.12964,750,5,
11951.3,5.21515,7.86591,0.436,9.12964,750,5,
11951.3,5.21484,7.86438,0.436,9.12964,750,5,
11951.3,5.21454,7.86743,0.436,9.12964,750,5,
11951.3,5.21423,7.86285,0.436,9.12964,750,5,
11951.3,5.21515,7.86438,0.436,9.12964,750,5,
11951.3,5.21484,7.86896,0.436,9.12964,750,5,
11951.3,5.21606,7.86438,0.436,9.12964,750,5,
11951.3,5.21515,7.86591,0.436,9.12964,750,5,
11951.3,5.21423,7.86743,0.436,9.12964,750,5,
11951.3,5.21057,7.86591,0.436,9.12964,750,5,
11951.3,5.21057,7.86743,0.436,9.12964,750,5,
11951.3,5.20935,7.87964,0.436,9.12964,750,5,
11951.3,5.21057,7.87811,0.436,9.12964,750,5,
11951.3,5.20996,7.87811,0.436,9.12964,750,5,
11951.3,5.20935,7.87659,0.436,9.12964,750,5,
11951.3,5.20996,7.87659,0.436,9.12964,750,5,
11951.3,5.20905,7.87964,0.436,9.12964,750,5,
11951.3,5.20905,7.87659,0.436,9.12964,750,5,
11951.3,5.20416,7.87811,0.436,9.12964,750,5,
11951.3,5.20508,7.87811,0.436,9.12964,750,5,
11951.3,5.20477,7.87506,0.436,9.12964,750,5,
11951.3,5.20447,7.87659,0.436,9.12964,750,5,
11951.3,5.20447,7.87354,0.436,9.12964,750,5,
11951.3,5.20477,7.87659,0.436,9.12964,750,5,
11951.3,5.20386,7.88117,0.436,9.12964,750,5,
11951.3,5.20447,7.87964,0.436,9.12964,750,5,
11951.3,5.20142,7.88269,0.436,9.12964,750,5,
11951.3,5.19928,7.87811,0.436,9.12964,750,5,
11951.3,5.19958,7.87811,0.436,9.12964,750,5,
11951.3,5.19989,7.87659,0.436,9.12964,750,5,
11951.3,5.19989,7.88879,0.436,9.12964,750,5,
11951.3,5.19928,7.89185,0.436,9.12964,750,5,
11951.3,5.19958,7.88879,0.436,9.12964,750,5,
11951.3,5.19958,7.89185,0.436,9.12964,750,5,
11951.3,5.19836,7.89032,0.436,9.12964,750,5,
11951.3,5.1947,7.89185,0.436,9.12964,750,5,
11951.3,5.19531,7.8949,0.436,9.12964,750,5,
11951.3,5.19501,7.89032,0.436,9.12964,750,5,
11951.4,5.1947,7.89032,0.436,9.12964,750,5,
11951.4,5.1947,7.89032,0.436,9.12964,750,5,
11951.4,5.19531,7.89185,0.436,9.12964,750,5,
11951.4,5.1944,7.88727,0.436,9.12964,750,5,
11951.4,5.19043,7.89032,0.436,9.12964,750,5,
11951.4,5.18921,7.8949,0.436,9.12964,750,5,
11951.4,5.18982,7.89185,0.436,9.12964,750,5,
11951.4,5.1889,7.89032,0.436,9.12964,750,5,
11951.4,5.18951,7.88879,0.436,9.12964,750,5,
11951.4,5.18982,7.89185,0.436,9.12964,750,5,
11951.4,5.18982,7.89032,0.436,9.12964,750,5,
11951.4,5.18616,7.89032,0.436,9.12964,750,5,
11951.4,5.18524,7.90253,0.436,9.12964,750,5,
11951.4,5.18585,7.90405,0.436,9.12964,750,5,
11951.4,5.18433,7.90405,0.436,9.12964,750,5,
11951.4,5.18585,7.90253,0.436,9.12964,750,5,
11951.4,5.18463,7.901,0.436,9.12964,750,5,
11951.4,5.18555,7.90253,0.436,9.12964,750,5,
11951.4,5.18066,7.90405,0.436,9.12964,750,5,
11951.4,5.18066,7.90558,0.436,9.12964,750,5,
11951.4,5.17914,7.901,0.436,9.12964,750,5,
11951.4,5.18036,7.90253,0.436,9.12964,750,5,
11951.4,5.17975,7.901,0.436,9.12964,750,5,
11951.4,5.18066,7.90253,0.436,9.12964,750,5,
11951.4,5.18036,7.90558,0.436,9.12964,750,5,
11951.4,5.17517,7.89948,0.436,9.12964,750,5,
11951.4,5.17487,7.90405,0.436,9.12964,750,5,
11951.4,5.17517,7.90405,0.436,9.12964,750,5,
11951.4,5.17456,7.90253,0.436,9.12964,750,5,
11951.4,5.17456,7.89948,0.436,9.12964,750,5,
11951.4,5.17487,7.901,0.436,9.12964,750,5,
11951.4,5.17151,7.90253,0.436,9.12964,750,5,
11951.4,5.1709,7.91168,0.436,9.12964,750,5,
11951.4,5.16998,7.91626,0.436,9.12964,750,5,
11951.4,5.1709,7.91931,0.436,9.12964,750,5,
11951.4,5.1712,7.91779,0.436,9.12964,750,5,
11951.4,5.17059,7.91473,0.436,9.12964,750,5,
11951.4,5.16907,7.91321,0.436,9.12964,750,5,
11951.4,5.16541,7.91321,0.436,9.12964,750,5,
11951.4,5.16541,7.91473,0.436,9.12964,750,5,
11951.4,5.1651,7.91473,0.436,9.12964,750,5,
11951.4,5.1651,7.91779,0.436,9.12964,750,5,
11951.4,5.16632,7.91626,0.436,9.12964,750,5,
11951.4,5.16602,7.91168,0.436,9.12964,750,5,
11951.4,5.16144,7.91473,0.436,9.12964,750,5,
11951.4,5.16083,7.91473,0.436,9.12964,750,5,
11951.4,5.16113,7.91473,0.436,9.12964,750,5,
