5500-SECPT.acq
2 msec/sample
6 channels
RSP, X, RSPEC-R
Volts
EDA, Y, PPGED-R
microsiemens
ECG R-R
Seconds
Respiration Rate
BPM
C7 - EDR
Peaks
C14 - Control
Volts
min,CH1,CH14,CH40,CH42,CH47,CH54,
,90517,90517,90517,90517,90517,90517,
73.627,5.42938,18.4875,2.39,11.3464,306,5,
73.627,5.42969,18.4906,2.39,11.3464,306,5,
73.627,5.4303,18.4875,2.39,11.3464,306,5,
73.6271,5.43396,18.486,2.39,11.3464,306,5,
73.6271,5.43488,18.486,2.39,11.3464,306,5,
73.6271,5.43488,18.4875,2.39,11.3464,306,5,
73.6272,5.4364,18.4875,2.39,11.3464,306,5,
73.6272,5.43915,18.4875,2.39,11.3464,306,5,
73.6272,5.43884,18.4967,2.39,11.3464,306,5,
73.6273,5.43945,18.4967,2.39,11.3464,306,5,
73.6273,5.44373,18.4967,2.39,11.3464,306,5,
73.6273,5.44403,18.4967,2.39,11.3464,306,5,
73.6274,5.44464,18.4998,2.39,11.3464,306,5,
73.6274,5.44525,18.4967,2.39,11.3464,306,5,
73.6274,5.44952,18.4998,2.39,11.3464,306,5,
73.6275,5.44922,18.5013,2.39,11.3464,306,5,
73.6275,5.44922,18.4967,2.39,11.3464,306,5,
73.6275,5.4538,18.4998,2.39,11.3464,306,5,
73.6276,5.45471,18.5043,2.39,11.3464,306,5,
73.6276,5.45471,18.5104,2.39,11.3464,306,5,
73.6276,5.45563,18.512,2.39,11.3464,306,5,
73.6277,5.45898,18.5104,2.39,11.3464,306,5,
73.6277,5.45898,18.5135,2.39,11.3464,306,5,
73.6277,5.45868,18.512,2.39,11.3464,306,5,
73.6278,5.46326,18.5074,2.39,11.3464,306,5,
73.6278,5.46356,18.512,2.39,11.3464,306,5,
73.6278,5.46387,18.5135,2.39,11.3464,306,5,
73.6279,5.46753,18.5089,2.39,11.3464,306,5,
73.6279,5.46844,18.5089,2.39,11.3464,306,5,
73.6279,5.46906,18.5211,2.39,11.3464,306,5,
73.628,5.46906,18.5242,2.39,11.3464,306,5,
73.628,5.47363,18.5242,2.39,11.3464,306,5,
73.628,5.47333,18.5257,2.39,11.3464,306,5,
73.6281,5.47272,18.5257,2.39,11.3464,306,5,
73.6281,5.47668,18.5242,2.39,11.3464,306,5,
73.6281,5.47852,18.5226,2.39,11.3464,306,5,
73.6282,5.4776,18.5226,2.39,11.3464,306,5,
73.6282,5.47821,18.5242,2.39,11.3464,306,5,
73.6282,5.4837,18.5226,2.39,11.3464,306,5,
73.6283,5.4834,18.5318,2.39,11.3464,306,5,
73.6283,5.48279,18.5364,2.39,11.3464,306,5,
73.6283,5.48767,18.5349,2.39,11.3464,306,5,
73.6284,5.48767,18.5364,2.39,11.3464,306,5,
73.6284,5.48767,18.5349,2.39,11.3464,306,5,
73.6284,5.48828,18.5364,2.39,11.3464,306,5,
73.6285,5.49316,18.5333,2.39,11.3464,306,5,
73.6285,5.49286,18.5349,2.39,11.3464,306,5,
73.6285,5.49316,18.5349,2.39,11.3464,306,5,
73.6286,5.49652,18.5379,2.39,11.3464,306,5,
73.6286,5.49805,18.5394,2.39,11.3464,306,5,
73.6286,5.49744,18.5471,2.39,11.3464,306,5,
73.6287,5.49744,18.544,2.39,11.3464,306,5,
73.6287,5.50323,18.5486,2.39,11.3464,306,5,
73.6287,5.50293,18.5486,2.39,11.3464,306,5,
73.6288,5.50323,18.5486,2.39,11.3464,306,5,
73.6288,5.50476,18.5486,2.39,11.3464,306,5,
73.6288,5.5072,18.5486,2.39,11.3464,306,5,
73.6289,5.50781,18.5501,2.39,11.3464,306,5,
73.6289,5.50751,18.5486,2.39,11.3464,306,5,
73.6289,5.513,18.5577,2.39,11.3464,306,5,
73.629,5.5127,18.5577,2.39,11.3464,306,5,
73.629,5.51208,18.5608,2.39,11.3464,306,5,
73.629,5.5127,18.5608,2.39,11.3464,306,5,
73.6291,5.51697,18.5608,2.39,11.3464,306,5,
73.6291,5.51788,18.5608,2.39,11.3464,306,5,
73.6291,5.51758,18.5623,2.39,11.3464,306,5,
73.6292,5.52185,18.5608,2.39,11.3464,306,5,
73.6292,5.52277,18.5608,2.39,11.3464,306,5,
73.6292,5.52277,18.5699,2.39,11.3464,306,5,
73.6293,5.52185,18.5699,2.39,11.3464,306,5,
73.6293,5.52734,18.5715,2.39,11.3464,306,5,
73.6293,5.52704,18.5715,2.39,11.3464,306,5,
73.6294,5.52795,18.5745,2.39,11.3464,306,5,
73.6294,5.52673,18.5699,2.39,11.3464,306,5,
73.6294,5.53223,18.5699,2.39,11.3464,306,5,
73.6295,5.53253,18.5715,2.39,11.3464,306,5,
73.6295,5.53284,18.5776,2.39,11.3464,306,5,
73.6295,5.53528,18.5867,2.39,11.3464,306,5,
73.6296,5.53772,18.5852,2.39,11.3464,306,5,
73.6296,5.53802,18.5867,2.39,11.3464,306,5,
73.6296,5.53741,18.5852,2.39,11.3464,306,5,
73.6297,5.54199,18.5822,2.39,11.3464,306,5,
73.6297,5.54291,18.5837,2.39,11.3464,306,5,
73.6297,5.54291,18.5867,2.39,11.3464,306,5,
73.6298,5.54291,18.5867,2.39,11.3464,306,5,
73.6298,5.54749,18.5989,2.39,11.3464,306,5,
73.6298,5.54779,18.5974,2.39,19.9468,306,5,
73.6299,5.54749,18.5974,2.39,19.9468,306,5,
73.6299,5.54718,18.5989,2.39,19.9468,306,5,
73.6299,5.55145,18.5989,2.39,19.9468,306,5,
73.63,5.55176,18.5974,2.39,19.9468,306,5,
73.63,5.55145,18.5974,2.39,19.9468,306,5,
73.63,5.55176,18.5974,2.39,19.9468,306,5,
73.6301,5.55664,18.6096,2.39,19.9468,306,5,
73.6301,5.55695,18.6096,2.39,19.9468,306,5,
73.6301,5.55664,18.6127,2.39,19.9468,306,5,
73.6302,5.55603,18.6066,2.39,19.9468,306,5,
73.6302,5.56122,18.6142,2.39,19.9468,306,5,
73.6302,5.56091,18.6096,2.39,19.9468,306,5,
73.6303,5.56152,18.6081,2.39,19.9468,306,5,
73.6303,5.56091,18.6081,2.39,19.9468,306,5,
73.6303,5.5658,18.6203,2.39,19.9468,306,5,
73.6304,5.5661,18.6249,2.39,19.9468,306,5,
73.6304,5.56702,18.6249,2.39,19.9468,306,5,
73.6304,5.5658,18.6218,2.39,19.9468,306,5,
73.6305,5.57037,18.6218,2.39,19.9468,306,5,
73.6305,5.57129,18.6188,2.39,19.9468,306,5,
73.6305,5.57129,18.6234,2.39,19.9468,306,5,
73.6306,5.57098,18.6234,2.39,19.9468,306,5,
73.6306,5.57281,18.6356,2.39,19.9468,306,5,
73.6306,5.57617,18.634,2.39,19.9468,306,5,
73.6307,5.57648,18.631,2.39,19.9468,306,5,
73.6307,5.57617,18.6371,2.39,19.9468,306,5,
73.6307,5.57617,18.6371,2.39,19.9468,306,5,
73.6308,5.58136,18.634,2.39,19.9468,306,5,
73.6308,5.58136,18.634,2.39,19.9468,306,5,
73.6308,5.58136,18.6356,2.39,19.9468,306,5,
73.6309,5.58167,18.6462,2.39,19.9468,306,5,
73.6309,5.58533,18.6447,2.39,19.9468,306,5,
73.6309,5.58655,18.6493,2.39,19.9468,306,5,
73.631,5.58624,18.6462,2.39,19.9468,306,5,
73.631,5.58594,18.6478,2.39,19.9468,306,5,
73.631,5.58594,18.6462,2.39,19.9468,306,5,
73.6311,5.59113,18.6462,2.39,19.9468,306,5,
73.6311,5.59113,18.6478,2.39,19.9468,306,5,
73.6311,5.59082,18.6554,2.39,19.9468,306,5,
73.6312,5.59113,18.6569,2.39,19.9468,306,5,
73.6312,5.5954,18.66,2.39,19.9468,306,5,
73.6312,5.59601,18.6569,2.39,19.9468,306,5,
73.6313,5.5957,18.6569,2.39,19.9468,306,5,
73.6313,5.5957,18.6569,2.39,19.9468,306,5,
73.6313,5.59509,18.6584,2.39,19.9468,306,5,
73.6314,5.60028,18.6554,2.39,19.9468,306,5,
73.6314,5.60059,18.6707,2.39,19.9468,306,5,
73.6314,5.60059,18.6691,2.39,19.9468,306,5,
73.6315,5.60089,18.6676,2.39,19.9468,306,5,
73.6315,5.60211,18.6707,2.39,19.9468,306,5,
73.6315,5.60608,18.6691,2.39,19.9468,306,5,
73.6316,5.60547,18.6691,2.39,19.9468,306,5,
73.6316,5.60608,18.6691,2.39,19.9468,306,5,
73.6316,5.60638,18.6722,2.39,19.9468,306,5,
73.6317,5.60944,18.6859,2.39,19.9468,306,5,
73.6317,5.61066,18.6813,2.39,19.9468,306,5,
73.6317,5.61066,18.6844,2.39,19.9468,306,5,
73.6318,5.61127,18.6813,2.39,19.9468,306,5,
73.6318,5.61096,18.6813,2.39,19.9468,306,5,
73.6318,5.61554,18.6813,2.39,19.9468,306,5,
73.6319,5.61584,18.6813,2.39,19.9468,306,5,
73.6319,5.61584,18.6798,2.39,19.9468,306,5,
73.6319,5.61646,18.6951,2.39,19.9468,306,5,
73.632,5.61615,18.6935,2.39,19.9468,306,5,
73.632,5.62042,18.692,2.39,19.9468,306,5,
73.632,5.62073,18.6905,2.39,19.9468,306,5,
73.6321,5.62042,18.6966,2.39,19.9468,306,5,
73.6321,5.62103,18.692,2.39,19.9468,306,5,
73.6321,5.62103,18.6935,2.39,19.9468,306,5,
73.6322,5.625,18.6981,2.39,19.9468,306,5,
73.6322,5.62531,18.7058,2.39,19.9468,306,5,
73.6322,5.62531,18.7073,2.39,19.9468,306,5,
73.6323,5.62531,18.7042,2.39,19.9468,306,5,
73.6323,5.62561,18.7088,2.39,19.9468,306,5,
73.6323,5.62927,18.7073,2.39,19.9468,306,5,
73.6324,5.6308,18.7058,2.39,19.9468,306,5,
73.6324,5.63019,18.7073,2.39,19.9468,306,5,
73.6324,5.6308,18.7058,2.39,19.9468,306,5,
73.6325,5.6308,18.7164,2.39,19.9468,306,5,
73.6325,5.63171,18.7195,2.39,19.9468,306,5,
73.6325,5.63507,18.721,2.39,19.9468,306,5,
73.6326,5.63385,18.718,2.39,19.9468,306,5,
73.6326,5.63538,18.721,2.39,19.9468,306,5,
73.6326,5.63477,18.7195,2.39,19.9468,306,5,
73.6327,5.63477,18.7195,2.39,19.9468,306,5,
73.6327,5.63934,18.721,2.39,19.9468,306,5,
73.6327,5.64026,18.7317,2.39,19.9468,306,5,
73.6328,5.63995,18.7302,2.39,19.9468,306,5,
73.6328,5.64026,18.7302,2.39,19.9468,306,5,
73.6328,5.63904,18.7302,2.39,19.9468,306,5,
73.6329,5.64484,18.7286,2.39,19.9468,306,5,
73.6329,5.64484,18.7317,2.39,19.9468,306,5,
73.6329,5.64514,18.7317,2.39,19.9468,306,5,
73.633,5.64484,18.7271,2.39,19.9468,306,5,
73.633,5.64514,18.7439,2.39,19.9468,306,5,
73.633,5.64636,18.7454,2.39,19.9468,306,5,
73.6331,5.64972,18.7439,2.39,19.9468,306,5,
73.6331,5.65002,18.7408,2.39,19.9468,306,5,
73.6331,5.64972,18.7454,2.39,19.9468,306,5,
73.6332,5.65033,18.7439,2.39,19.9468,306,5,
73.6332,5.64972,18.7439,2.39,19.9468,306,5,
73.6332,5.65491,18.7393,2.39,19.9468,306,5,
73.6333,5.6543,18.7561,2.39,19.9468,306,5,
73.6333,5.6546,18.7546,2.39,19.9468,306,5,
73.6333,5.6543,18.7561,2.39,19.9468,306,5,
73.6334,5.6543,18.7561,2.39,19.9468,306,5,
73.6334,5.65826,18.7546,2.39,19.9468,306,5,
73.6334,5.65948,18.7546,2.39,19.9468,306,5,
73.6335,5.6601,18.7546,2.39,19.9468,306,5,
73.6335,5.65918,18.7561,2.39,19.9468,306,5,
73.6335,5.65918,18.7668,2.39,19.9468,306,5,
73.6336,5.65948,18.7653,2.39,19.9468,306,5,
73.6336,5.66467,18.7698,2.39,19.9468,306,5,
73.6336,5.66406,18.7637,2.39,19.9468,306,5,
73.6337,5.66437,18.7668,2.39,19.9468,306,5,
73.6337,5.66437,18.7698,2.39,19.9468,306,5,
73.6337,5.66467,18.7668,2.39,19.9468,306,5,
73.6338,5.66895,18.7714,2.39,19.9468,306,5,
73.6338,5.66925,18.7805,2.39,19.9468,306,5,
73.6338,5.66895,18.7805,2.39,19.9468,306,5,
73.6339,5.66956,18.779,2.39,19.9468,306,5,
73.6339,5.66925,18.779,2.39,19.9468,306,5,
73.6339,5.66956,18.7775,2.39,19.9468,306,5,
73.634,5.67444,18.7805,2.39,19.9468,306,5,
73.634,5.67505,18.7805,2.39,19.9468,306,5,
73.634,5.67444,18.7927,2.39,19.9468,306,5,
73.6341,5.67413,18.7912,2.39,19.9468,306,5,
73.6341,5.67444,18.7897,2.39,19.9468,306,5,
73.6341,5.67932,18.7943,2.39,19.9468,306,5,
73.6342,5.67932,18.7943,2.39,19.9468,306,5,
73.6342,5.67871,18.7943,2.39,19.9468,306,5,
73.6342,5.67902,18.7912,2.39,19.9468,306,5,
73.6343,5.67932,18.7958,2.39,19.9468,306,5,
73.6343,5.68115,18.8019,2.39,19.9468,306,5,
73.6343,5.68359,18.8049,2.39,19.9468,306,5,
73.6344,5.6839,18.8019,2.39,19.9468,306,5,
73.6344,5.6839,18.8049,2.39,19.9468,306,5,
73.6344,5.6842,18.8065,2.39,19.9468,306,5,
73.6345,5.6842,18.8065,2.39,19.9468,306,5,
73.6345,5.68878,18.8034,2.39,19.9468,306,5,
73.6345,5.68848,18.811,2.39,19.9468,306,5,
73.6346,5.68848,18.8171,2.39,19.9468,306,5,
73.6346,5.68909,18.8187,2.39,19.9468,306,5,
73.6346,5.68817,18.8141,2.39,19.9468,306,5,
73.6347,5.69366,18.8187,2.39,19.9468,306,5,
73.6347,5.69397,18.8187,2.39,19.9468,306,5,
73.6347,5.69397,18.8187,2.39,19.9468,306,5,
73.6348,5.69366,18.8141,2.39,19.9468,306,5,
73.6348,5.69397,18.8278,2.39,19.9468,306,5,
73.6348,5.69885,18.8324,2.39,19.9468,306,5,
73.6349,5.69885,18.8278,2.39,19.9468,306,5,
73.6349,5.69824,18.8263,2.39,19.9468,306,5,
73.6349,5.69794,18.8293,2.39,19.9468,306,5,
73.635,5.69885,18.8293,2.39,19.9468,306,5,
73.635,5.70343,18.8309,2.39,19.9468,306,5,
73.635,5.70404,18.8309,2.39,19.9468,306,5,
73.6351,5.70374,18.84,2.39,19.9468,306,5,
73.6351,5.70374,18.84,2.39,19.9468,306,5,
73.6351,5.70374,18.8416,2.39,19.9468,306,5,
73.6352,5.70831,18.8431,2.39,19.9468,306,5,
73.6352,5.70862,18.84,2.39,19.9468,306,5,
73.6352,5.70923,18.8416,2.39,19.9468,306,5,
73.6353,5.70831,18.8416,2.39,19.9468,306,5,
73.6353,5.70862,18.8507,2.39,19.9468,306,5,
73.6353,5.71381,18.8507,2.39,19.9468,306,5,
73.6354,5.71381,18.8522,2.39,19.9468,306,5,
73.6354,5.71381,18.8492,2.39,19.9468,306,5,
73.6354,5.71411,18.8538,2.39,19.9468,306,5,
73.6355,5.71381,18.8538,2.39,19.9468,306,5,
73.6355,5.71808,18.8522,2.39,19.9468,306,5,
73.6355,5.71808,18.8629,2.39,19.9468,306,5,
73.6356,5.71777,18.8644,2.39,19.9468,306,5,
73.6356,5.71808,18.8629,2.39,19.9468,306,5,
73.6356,5.71869,18.869,2.39,19.9468,306,5,
73.6357,5.72357,18.8675,2.39,19.9468,306,5,
73.6357,5.72327,18.8644,2.39,19.9468,306,5,
73.6357,5.72357,18.8736,2.39,19.9468,306,5,
73.6358,5.72357,18.8797,2.39,19.9468,306,5,
73.6358,5.72327,18.8751,2.39,19.9468,306,5,
73.6358,5.72845,18.8766,2.39,19.9468,306,5,
73.6359,5.72845,18.8766,2.39,19.9468,306,5,
73.6359,5.72815,18.8766,2.39,19.9468,306,5,
73.6359,5.72815,18.8797,2.39,19.9468,306,5,
73.636,5.72968,18.8889,2.39,19.9468,306,5,
73.636,5.73303,18.8873,2.39,19.9468,306,5,
73.636,5.73303,18.8904,2.39,19.9468,306,5,
73.6361,5.73303,18.8919,2.39,19.9468,306,5,
73.6361,5.73303,18.8889,2.39,19.9468,306,5,
73.6361,5.73486,18.8919,2.39,19.9468,306,5,
73.6362,5.73822,18.8995,2.39,19.9468,306,5,
73.6362,5.73883,18.9026,2.39,19.9468,306,5,
73.6362,5.73792,18.9026,2.39,19.9468,306,5,
73.6363,5.73822,18.9026,2.39,19.9468,306,5,
73.6363,5.74219,18.9026,2.39,19.9468,306,5,
73.6363,5.7431,18.9041,2.39,19.9468,306,5,
73.6364,5.74371,18.9041,2.39,19.9468,306,5,
73.6364,5.7431,18.9148,2.39,19.9468,306,5,
73.6364,5.7431,18.9117,2.39,19.9468,306,5,
73.6365,5.74646,18.9148,2.39,19.9468,306,5,
73.6365,5.74829,18.9148,2.39,19.9468,306,5,
73.6365,5.74829,18.9148,2.39,19.9468,306,5,
73.6366,5.74768,18.9117,2.39,19.9468,306,5,
73.6366,5.74799,18.9255,2.39,19.9468,306,5,
73.6366,5.75287,18.9301,2.39,19.9468,306,5,
73.6367,5.75287,18.927,2.39,19.9468,306,5,
73.6367,5.75317,18.9301,2.39,19.9468,306,5,
73.6367,5.75287,18.9285,2.39,19.9468,306,5,
73.6368,5.75256,18.924,2.39,19.9468,306,5,
73.6368,5.75745,18.927,2.39,19.9468,306,5,
73.6368,5.75836,18.9362,2.39,19.9468,306,5,
73.6369,5.75775,18.9407,2.39,19.9468,306,5,
73.6369,5.75745,18.9392,2.39,19.9468,306,5,
73.6369,5.75745,18.9423,2.39,19.9468,306,5,
73.637,5.76263,18.9407,2.39,19.9468,306,5,
73.637,5.76233,18.9407,2.39,19.9468,306,5,
73.637,5.76233,18.9392,2.39,19.9468,306,5,
73.6371,5.76324,18.9484,2.39,19.9468,306,5,
73.6371,5.76263,18.9529,2.39,19.9468,306,5,
73.6371,5.76782,18.9514,2.39,19.9468,306,5,
73.6372,5.76782,18.9545,2.39,19.9468,306,5,
73.6372,5.76782,18.9468,2.39,19.9468,306,5,
73.6372,5.76721,18.9514,2.39,19.9468,306,5,
73.6373,5.76721,18.9545,2.39,19.9468,306,5,
73.6373,5.77271,18.9575,2.39,19.9468,306,5,
73.6373,5.77301,18.9651,2.39,19.9468,306,5,
73.6374,5.77271,18.9636,2.39,19.9468,306,5,
73.6374,5.77179,18.9636,2.39,19.9468,306,5,
73.6374,5.77209,18.9621,2.39,19.9468,306,5,
73.6375,5.77698,18.9636,2.39,19.9468,306,5,
73.6375,5.77698,18.9682,2.39,19.9468,306,5,
73.6375,5.77728,18.9728,2.39,19.9468,306,5,
73.6376,5.77728,18.9743,2.39,19.9468,306,5,
73.6376,5.77698,18.9728,2.39,19.9468,306,5,
73.6376,5.78186,18.9758,2.39,19.9468,306,5,
73.6377,5.78125,18.9743,2.39,19.9468,306,5,
73.6377,5.78156,18.9743,2.39,19.9468,306,5,
73.6377,5.78186,18.9804,2.39,19.9468,306,5,
73.6378,5.78156,18.988,2.39,19.9468,306,5,
73.6378,5.78613,18.9865,2.39,19.9468,306,5,
73.6378,5.78705,18.985,2.39,19.9468,306,5,
73.6379,5.78644,18.9865,2.39,19.9468,306,5,
73.6379,5.78674,18.988,2.39,19.9468,306,5,
73.6379,5.78705,18.988,2.39,19.9468,306,5,
73.638,5.79132,18.9865,2.39,19.9468,306,5,
73.638,5.79163,18.9987,2.39,19.9468,306,5,
73.638,5.79193,18.9987,2.39,19.9468,306,5,
73.6381,5.79193,18.9972,2.39,19.9468,306,5,
73.6381,5.79132,18.9987,2.39,19.9468,306,5,
73.6381,5.79407,19.0033,2.39,19.9468,306,5,
73.6382,5.79681,19.0002,2.39,19.9468,306,5,
73.6382,5.79712,18.9972,2.39,19.9468,306,5,
73.6382,5.7959,19.0109,2.39,19.9468,306,5,
73.6383,5.79651,19.0109,2.39,19.9468,306,5,
73.6383,5.79712,19.0109,2.39,19.9468,306,5,
73.6383,5.80139,19.014,2.39,19.9468,306,5,
73.6384,5.802,19.0094,2.39,19.9468,306,5,
73.6384,5.80139,19.0094,2.39,19.9468,306,5,
73.6384,5.8017,19.014,2.39,19.9468,306,5,
73.6385,5.80139,19.0262,2.39,19.9468,306,5,
73.6385,5.80566,19.0247,2.39,19.9468,306,5,
73.6385,5.80627,19.0231,2.39,19.9468,306,5,
73.6386,5.80597,19.0277,2.39,19.9468,306,5,
73.6386,5.80688,19.0216,2.39,19.9468,306,5,
73.6386,5.80627,19.0247,2.39,19.9468,306,5,
73.6387,5.80658,19.0277,2.39,19.9468,306,5,
73.6387,5.81116,19.0262,2.39,19.9468,306,5,
73.6387,5.81085,19.0369,2.39,19.9468,306,5,
73.6388,5.81238,19.0338,2.39,19.9468,306,5,
73.6388,5.81177,19.0353,2.39,19.9468,306,5,
73.6388,5.81177,19.0399,2.39,19.9468,306,5,
73.6389,5.81543,19.0384,2.39,19.9468,306,5,
73.6389,5.81757,19.0369,2.39,19.9468,306,5,
73.6389,5.81635,19.0399,2.39,19.9468,306,5,
73.639,5.81696,19.0384,2.39,19.9468,306,5,
73.639,5.81665,19.0506,2.39,19.9468,306,5,
73.639,5.81635,19.0506,2.39,19.9468,306,5,
73.6391,5.82214,19.0491,2.39,19.9468,306,5,
73.6391,5.82184,19.0506,2.39,19.9468,306,5,
73.6391,5.82092,19.0506,2.39,19.9468,306,5,
73.6392,5.82184,19.046,2.39,19.9468,306,5,
73.6392,5.82184,19.0506,2.39,19.9468,306,5,
73.6392,5.82184,19.0506,2.39,19.9468,306,5,
73.6393,5.82672,19.0628,2.39,19.9468,306,5,
73.6393,5.82672,19.0628,2.39,19.9468,306,5,
73.6393,5.82703,19.0598,2.39,19.9468,306,5,
73.6394,5.82611,19.0628,2.39,19.9468,306,5,
73.6394,5.8255,19.0613,2.39,19.9468,306,5,
73.6394,5.82733,19.0613,2.39,19.9468,306,5,
73.6395,5.83099,19.0628,2.39,19.9468,306,5,
73.6395,5.83099,19.0735,2.39,19.9468,306,5,
73.6395,5.83008,19.0735,2.39,19.9468,306,5,
73.6396,5.83099,19.075,2.39,19.9468,306,5,
73.6396,5.83099,19.0704,2.39,19.9468,306,5,
73.6396,5.83221,19.0735,2.39,19.9468,306,5,
73.6397,5.83588,19.0735,2.39,19.9468,306,5,
73.6397,5.83588,19.0735,2.39,19.9468,306,5,
73.6397,5.83527,19.072,2.39,19.9468,306,5,
73.6398,5.83527,19.0857,2.39,19.9468,306,5,
73.6398,5.83618,19.0842,2.39,19.9468,306,5,
73.6398,5.8374,19.0842,2.39,19.9468,306,5,
73.6399,5.84106,19.0857,2.39,19.9468,306,5,
73.6399,5.84076,19.0857,2.39,19.9468,306,5,
73.6399,5.84045,19.0857,2.39,19.9468,306,5,
73.64,5.84045,19.0857,2.39,19.9468,306,5,
73.64,5.84076,19.0887,2.39,19.9468,306,5,
73.64,5.84045,19.0994,2.39,19.9468,306,5,
73.6401,5.84534,19.0979,2.39,19.9468,306,5,
73.6401,5.84564,19.0964,2.39,19.9468,306,5,
73.6401,5.84595,19.0979,2.39,19.9468,306,5,
73.6402,5.84564,19.0979,2.39,19.9468,306,5,
73.6402,5.84534,19.1025,2.39,19.9468,306,5,
73.6402,5.84564,19.0964,2.39,19.9468,306,5,
73.6403,5.84717,19.1025,2.39,19.9468,306,5,
73.6403,5.85022,19.1116,2.39,19.9468,306,5,
73.6403,5.85022,19.1132,2.39,19.9468,306,5,
73.6404,5.84991,19.1116,2.39,19.9468,306,5,
73.6404,5.85022,19.1116,2.39,19.9468,306,5,
73.6404,5.85052,19.1116,2.39,19.9468,306,5,
73.6405,5.85144,19.1116,2.39,19.9468,306,5,
73.6405,5.85388,19.1101,2.39,19.9468,306,5,
73.6405,5.85571,19.1223,2.39,19.9468,306,5,
73.6406,5.85571,19.1223,2.39,19.9468,306,5,
73.6406,5.85541,19.1284,2.39,19.9468,306,5,
73.6406,5.85571,19.1208,2.39,19.9468,306,5,
73.6407,5.8551,19.1254,2.39,19.9468,306,5,
73.6407,5.85541,19.1223,2.39,19.9468,306,5,
73.6407,5.85999,19.1223,2.39,19.9468,306,5,
73.6408,5.86029,19.1238,2.39,19.9468,306,5,
73.6408,5.86029,19.1315,2.39,19.9468,306,5,
73.6408,5.86029,19.1345,2.39,19.9468,306,5,
73.6409,5.8606,19.136,2.39,19.9468,306,5,
73.6409,5.86029,19.1345,2.39,19.9468,306,5,
73.6409,5.86029,19.1376,2.39,19.9468,306,5,
73.641,5.86456,19.136,2.39,19.9468,306,5,
73.641,5.86517,19.136,2.39,19.9468,306,5,
73.641,5.86517,19.1467,2.39,19.9468,306,5,
73.6411,5.86487,19.1467,2.39,19.9468,306,5,
73.6411,5.86548,19.1452,2.39,19.9468,306,5,
73.6411,5.86487,19.1467,2.39,19.9468,306,5,
73.6412,5.86456,19.1498,2.39,19.9468,306,5,
73.6412,5.867,19.1483,2.39,19.9468,306,5,
73.6412,5.87067,19.1498,2.39,19.9468,306,5,
73.6413,5.87036,19.1498,2.39,19.9468,306,5,
73.6413,5.87067,19.1589,2.39,19.9468,306,5,
73.6413,5.87097,19.1635,2.39,19.9468,306,5,
73.6414,5.87006,19.1589,2.39,19.9468,306,5,
73.6414,5.87006,19.162,2.39,19.9468,306,5,
73.6414,5.87067,19.1605,2.39,19.9468,306,5,
73.6415,5.87494,19.162,2.39,19.9468,306,5,
73.6415,5.87555,19.1605,2.39,19.9468,306,5,
73.6415,5.87555,19.1757,2.39,19.9468,306,5,
73.6416,5.87433,19.1727,2.39,19.9468,306,5,
73.6416,5.87524,19.1727,2.39,19.9468,306,5,
73.6416,5.87494,19.1696,2.39,19.9468,306,5,
73.6417,5.87524,19.1696,2.39,19.9468,306,5,
73.6417,5.87555,19.1742,2.39,19.9468,306,5,
73.6417,5.87982,19.1696,2.39,19.9468,306,5,
73.6418,5.87982,19.1864,2.39,19.9468,306,5,
73.6418,5.87921,19.1879,2.39,19.9468,306,5,
73.6418,5.87982,19.1834,2.39,19.9468,306,5,
73.6419,5.88043,19.1849,2.39,19.9468,306,5,
73.6419,5.87982,19.1849,2.39,19.9468,306,5,
73.6419,5.87982,19.1834,2.39,19.9468,306,5,
73.642,5.87982,19.191,2.39,19.9468,306,5,
73.642,5.8847,19.1986,2.39,19.9468,306,5,
73.642,5.8847,19.1971,2.39,19.9468,306,5,
73.6421,5.8847,19.194,2.39,19.9468,306,5,
73.6421,5.88501,19.191,2.39,19.9468,306,5,
73.6421,5.88501,19.1956,2.39,19.9468,306,5,
73.6422,5.88501,19.1956,2.39,19.9468,306,5,
73.6422,5.8844,19.2093,2.39,19.9468,306,5,
73.6422,5.8847,19.2108,2.39,19.9468,306,5,
73.6423,5.88654,19.2093,2.39,19.9468,306,5,
73.6423,5.8902,19.2108,2.39,19.9468,306,5,
73.6423,5.88989,19.2108,2.39,19.9468,306,5,
73.6424,5.88959,19.2078,2.39,19.9468,306,5,
73.6424,5.8902,19.2108,2.39,19.9468,306,5,
73.6424,5.88928,19.2215,2.39,19.9468,306,5,
73.6425,5.8902,19.22,2.39,19.9468,306,5,
73.6425,5.88928,19.2215,2.39,19.9468,306,5,
73.6425,5.88959,19.2184,2.39,19.9468,306,5,
73.6426,5.88989,19.2215,2.39,19.9468,306,5,
73.6426,5.89447,19.22,2.39,19.9468,306,5,
73.6426,5.89478,19.2245,2.39,19.9468,306,5,
73.6427,5.89478,19.2322,2.39,19.9468,306,5,
73.6427,5.89478,19.2337,2.39,19.9468,306,5,
73.6427,5.89417,19.2337,2.39,19.9468,306,5,
73.6428,5.89508,19.2322,2.39,19.9468,306,5,
73.6428,5.89478,19.2307,2.39,19.9468,306,5,
73.6428,5.89539,19.2322,2.39,19.9468,306,5,
73.6429,5.89478,19.2322,2.39,19.9468,306,5,
73.6429,5.89478,19.2444,2.39,19.9468,306,5,
73.6429,5.8963,19.2459,2.39,19.9468,306,5,
73.643,5.89966,19.2459,2.39,19.9468,306,5,
73.643,5.89996,19.2444,2.39,19.9468,306,5,
73.643,5.90027,19.2444,2.39,19.9468,306,5,
73.6431,5.89966,19.2429,2.39,19.9468,306,5,
73.6431,5.89996,19.2459,2.39,19.9468,306,5,
73.6431,5.89935,19.2596,2.39,19.9468,306,5,
73.6432,5.89996,19.2566,2.39,19.9468,306,5,
73.6432,5.90057,19.2581,2.39,19.9468,306,5,
73.6432,5.90027,19.2551,2.39,19.9468,306,5,
73.6433,5.89874,19.2566,2.39,19.9468,306,5,
73.6433,5.90027,19.2566,2.39,19.9468,306,5,
73.6433,5.90363,19.2581,2.39,19.9468,306,5,
73.6434,5.90454,19.2688,2.39,19.9468,306,5,
73.6434,5.90424,19.2688,2.39,19.9468,306,5,
73.6434,5.90485,19.2703,2.39,19.9468,306,5,
73.6435,5.90546,19.2703,2.39,19.9468,306,5,
73.6435,5.90485,19.2703,2.39,19.9468,306,5,
73.6435,5.90454,19.2688,2.39,19.9468,306,5,
73.6436,5.90485,19.2688,2.39,19.9468,306,5,
73.6436,5.90424,19.2719,2.39,19.9468,306,5,
73.6436,5.90485,19.2825,2.39,19.9468,306,5,
73.6437,5.90485,19.2841,2.39,19.9468,306,5,
73.6437,5.90454,19.281,2.39,19.9468,306,5,
73.6437,5.90454,19.2841,2.39,19.9468,306,5,
73.6438,5.90424,19.2795,2.39,19.9468,306,5,
73.6438,5.90912,19.2825,2.39,19.9468,306,5,
73.6438,5.90912,19.2841,2.39,19.9468,306,5,
73.6439,5.90973,19.2917,2.39,19.9468,306,5,
73.6439,5.90942,19.2947,2.39,19.9468,306,5,
73.6439,5.90912,19.2978,2.39,19.9468,306,5,
73.644,5.90973,19.2902,2.39,19.9468,306,5,
73.644,5.91034,19.2947,2.39,19.9468,306,5,
73.644,5.90973,19.2947,2.39,19.9468,306,5,
73.6441,5.90942,19.2947,2.39,19.9468,306,5,
73.6441,5.90942,19.2932,2.39,19.9468,306,5,
73.6441,5.90942,19.3039,2.39,19.9468,306,5,
73.6442,5.90942,19.3085,2.39,19.9468,306,5,
73.6442,5.90942,19.3085,2.39,19.9468,306,5,
73.6442,5.90942,19.3008,2.39,19.9468,306,5,
73.6443,5.91003,19.3115,2.39,19.9468,306,5,
73.6443,5.91003,19.3069,2.39,19.9468,306,5,
73.6443,5.90912,19.3085,2.39,19.9468,306,5,
73.6444,5.91125,19.3054,2.39,19.9468,306,5,
73.6444,5.91461,19.3176,2.39,19.9468,306,5,
73.6444,5.91461,19.3161,2.39,19.9468,306,5,
73.6445,5.91461,19.3207,2.39,19.9468,306,5,
73.6445,5.91461,19.3176,2.39,19.9468,306,5,
73.6445,5.91431,19.3192,2.39,19.9468,306,5,
73.6446,5.91461,19.3161,2.39,19.9468,306,5,
73.6446,5.91461,19.3176,2.39,19.9468,306,5,
73.6446,5.91461,19.3176,2.39,19.9468,306,5,
73.6447,5.91461,19.3314,2.39,19.9468,306,5,
73.6447,5.91461,19.3298,2.39,19.9468,306,5,
73.6447,5.914,19.3283,2.39,19.9468,306,5,
73.6448,5.9137,19.3344,2.39,19.9468,306,5,
73.6448,5.914,19.3314,2.39,19.9468,306,5,
73.6448,5.91492,19.3298,2.39,19.9468,306,5,
73.6449,5.91461,19.3298,2.39,19.9468,306,5,
73.6449,5.914,19.3314,2.39,19.9468,306,5,
73.6449,5.91461,19.3405,2.39,19.9468,306,5,
73.645,5.914,19.3451,2.39,19.9468,306,5,
73.645,5.91461,19.342,2.39,19.9468,306,5,
73.645,5.91461,19.339,2.39,19.9468,306,5,
73.6451,5.91461,19.3436,2.39,19.9468,306,5,
73.6451,5.91431,19.342,2.39,19.9468,306,5,
73.6451,5.91461,19.3451,2.39,19.9468,306,5,
73.6452,5.91492,19.342,2.39,19.9468,306,5,
73.6452,5.91431,19.3497,2.39,19.9468,306,5,
73.6452,5.91492,19.3573,2.39,19.9468,306,5,
73.6453,5.91461,19.3558,2.39,19.9468,306,5,
73.6453,5.91461,19.3573,2.39,19.9468,306,5,
73.6453,5.91522,19.3542,2.39,19.9468,306,5,
73.6454,5.91919,19.3573,2.39,19.9468,306,5,
73.6454,5.9201,19.3573,2.39,19.9468,306,5,
73.6454,5.91919,19.3588,2.39,19.9468,306,5,
73.6455,5.9198,19.3558,2.39,19.9468,306,5,
73.6455,5.91919,19.3665,2.39,19.9468,306,5,
73.6455,5.91919,19.368,2.39,19.9468,306,5,
73.6456,5.91919,19.368,2.39,19.9468,306,5,
73.6456,5.91949,19.368,2.39,19.9468,306,5,
73.6456,5.9198,19.3665,2.39,19.9468,306,5,
73.6457,5.91949,19.368,2.39,19.9468,306,5,
73.6457,5.91919,19.368,2.39,19.9468,306,5,
73.6457,5.91949,19.3665,2.39,19.9468,306,5,
73.6458,5.91949,19.3787,2.39,19.9468,306,5,
73.6458,5.9198,19.3771,2.39,19.9468,306,5,
73.6458,5.91949,19.3787,2.39,19.9468,306,5,
73.6459,5.91919,19.3802,2.39,19.9468,306,5,
73.6459,5.9198,19.3817,2.39,19.9468,306,5,
73.6459,5.9201,19.3771,2.39,19.9468,306,5,
73.646,5.9198,19.3771,2.39,19.9468,306,5,
73.646,5.91888,19.3787,2.39,19.9468,306,5,
73.646,5.9198,19.3848,2.39,19.9468,306,5,
73.6461,5.91949,19.3909,2.39,19.9468,306,5,
73.6461,5.91949,19.3909,2.39,19.9468,306,5,
73.6461,5.91949,19.3939,2.39,19.9468,306,5,
73.6462,5.91888,19.3939,2.39,19.9468,306,5,
73.6462,5.9198,19.3939,2.39,19.9468,306,5,
73.6462,5.91949,19.3924,2.39,19.9468,306,5,
73.6463,5.9198,19.3924,2.39,19.9468,306,5,
73.6463,5.9198,19.3909,2.39,19.9468,306,5,
73.6463,5.91888,19.4031,2.39,19.9468,306,5,
73.6464,5.91949,19.4077,2.39,19.9468,306,5,
73.6464,5.91888,19.4016,2.39,19.9468,306,5,
73.6464,5.91888,19.4061,2.39,19.9468,306,5,
73.6465,5.91888,19.4061,2.39,19.9468,306,5,
73.6465,5.91949,19.4046,2.39,19.9468,306,5,
73.6465,5.91858,19.4031,2.39,19.9468,306,5,
73.6466,5.91919,19.4031,2.39,19.9468,306,5,
73.6466,5.91888,19.4046,2.39,19.9468,306,5,
73.6466,5.9201,19.4199,2.39,19.9468,306,5,
73.6467,5.9198,19.4183,2.39,19.9468,306,5,
73.6467,5.91888,19.4138,2.39,19.9468,306,5,
73.6467,5.91888,19.4138,2.39,19.9468,306,5,
73.6468,5.9198,19.4168,2.39,19.9468,306,5,
73.6468,5.91949,19.4183,2.39,19.9468,306,5,
73.6468,5.91949,19.4153,2.39,19.9468,306,5,
73.6469,5.91888,19.4138,2.39,19.9468,306,5,
73.6469,5.9198,19.4168,2.39,19.9468,306,5,
73.6469,5.91858,19.429,2.39,19.9468,306,5,
73.647,5.91949,19.429,2.39,19.9468,306,5,
73.647,5.91888,19.4275,2.39,19.9468,306,5,
73.647,5.91919,19.4244,2.39,19.9468,306,5,
73.6471,5.91461,19.4275,0.618,19.9468,306,5,
73.6471,5.91461,19.4275,0.618,19.9468,306,5,
73.6471,5.91492,19.429,0.618,19.9468,306,5,
73.6472,5.91431,19.429,0.618,19.9468,306,5,
73.6472,5.914,19.4336,0.618,19.9468,306,5,
73.6472,5.91431,19.4443,0.618,19.9468,306,5,
73.6473,5.91461,19.4397,0.618,19.9468,306,5,
73.6473,5.91522,19.4428,0.618,19.9468,306,5,
73.6473,5.91492,19.4397,0.618,19.9468,306,5,
73.6474,5.91492,19.4382,0.618,19.9468,306,5,
73.6474,5.914,19.4412,0.618,19.9468,306,5,
73.6474,5.91522,19.4428,0.618,19.9468,306,5,
73.6475,5.9137,19.4412,0.618,19.9468,306,5,
73.6475,5.91461,19.4458,0.618,19.9468,306,5,
73.6475,5.91431,19.4565,0.618,19.9468,306,5,
73.6476,5.91431,19.455,0.618,19.9468,306,5,
73.6476,5.91431,19.4534,0.618,19.9468,306,5,
73.6476,5.914,19.455,0.618,19.9468,306,5,
73.6477,5.91492,19.4534,0.618,19.9468,306,5,
73.6477,5.91431,19.4504,0.618,19.9468,306,5,
73.6477,5.914,19.4534,0.618,19.9468,306,5,
73.6478,5.914,19.4519,0.618,19.9468,306,5,
73.6478,5.91431,19.4534,0.618,19.9468,306,5,
73.6478,5.91431,19.4641,0.618,19.9468,306,5,
73.6479,5.91492,19.4626,0.618,19.9468,306,5,
73.6479,5.91461,19.4672,0.618,19.9468,306,5,
73.6479,5.91522,19.4641,0.618,19.9468,306,5,
73.648,5.91492,19.4672,0.618,19.9468,306,5,
73.648,5.91461,19.4626,0.618,19.9468,306,5,
73.648,5.91461,19.4702,0.618,19.9468,306,5,
73.6481,5.91461,19.4641,0.618,19.9468,306,5,
73.6481,5.914,19.4702,0.618,19.9468,306,5,
73.6481,5.91522,19.4824,0.618,19.9468,306,5,
73.6482,5.91553,19.4794,0.618,19.9468,306,5,
73.6482,5.91553,19.4809,0.618,19.9468,306,5,
73.6482,5.91492,19.4824,0.618,19.9468,306,5,
73.6483,5.91461,19.4778,0.618,19.9468,306,5,
73.6483,5.91492,19.4778,0.618,19.9468,306,5,
73.6483,5.91492,19.4778,0.618,19.9468,306,5,
73.6484,5.91492,19.4778,0.618,19.9468,306,5,
73.6484,5.91522,19.4916,0.618,19.9468,306,5,
73.6484,5.91125,19.487,0.618,19.9468,306,5,
73.6485,5.90973,19.4931,0.618,19.9468,306,5,
73.6485,5.91003,19.4901,0.618,19.9468,306,5,
73.6485,5.91034,19.4901,0.618,19.9468,306,5,
73.6486,5.90942,19.4885,0.618,19.9468,306,5,
73.6486,5.91003,19.4901,0.618,19.9468,306,5,
73.6486,5.90973,19.4885,0.618,19.9468,306,5,
73.6487,5.91003,19.5007,0.618,19.9468,306,5,
73.6487,5.90942,19.5023,0.618,19.9468,306,5,
73.6487,5.90912,19.5007,0.618,19.9468,306,5,
73.6488,5.90881,19.5007,0.618,19.9468,306,5,
73.6488,5.91003,19.4962,0.618,19.9468,306,5,
73.6488,5.90973,19.4977,0.618,19.9468,306,5,
73.6489,5.90912,19.5023,0.618,19.9468,306,5,
73.6489,5.90912,19.5038,0.618,19.9468,306,5,
73.6489,5.90973,19.5129,0.618,19.9468,306,5,
73.649,5.90942,19.5129,0.618,19.9468,306,5,
73.649,5.90942,19.5145,0.618,19.9468,306,5,
73.649,5.90912,19.5114,0.618,19.9468,306,5,
73.6491,5.90973,19.516,0.618,19.9468,306,5,
73.6491,5.90912,19.5129,0.618,19.9468,306,5,
73.6491,5.90973,19.5175,0.618,19.9468,306,5,
73.6492,5.90912,19.5129,0.618,19.9468,306,5,
73.6492,5.90973,19.5267,0.618,19.9468,306,5,
73.6492,5.91034,19.5236,0.618,19.9468,306,5,
73.6493,5.90454,19.5282,0.618,19.9468,306,5,
73.6493,5.90454,19.5282,0.618,19.9468,306,5,
73.6493,5.90393,19.5251,0.618,19.9468,306,5,
73.6494,5.90485,19.5267,0.618,19.9468,306,5,
73.6494,5.90424,19.5251,0.618,19.9468,306,5,
73.6494,5.90424,19.5236,0.618,19.9468,306,5,
73.6495,5.90515,19.5251,0.618,19.9468,306,5,
73.6495,5.90515,19.5358,0.618,19.9468,306,5,
73.6495,5.90454,19.5389,0.618,19.9468,306,5,
73.6496,5.90424,19.5419,0.618,19.9468,306,5,
73.6496,5.90485,19.5358,0.618,19.9468,306,5,
73.6496,5.90454,19.5389,0.618,19.9468,306,5,
73.6497,5.90424,19.5389,0.618,19.9468,306,5,
73.6497,5.90515,19.5374,0.618,19.9468,306,5,
73.6497,5.90454,19.5389,0.618,19.9468,306,5,
73.6498,5.90485,19.5419,0.618,19.9468,306,5,
73.6498,5.90424,19.5511,0.618,19.9468,306,5,
73.6498,5.90485,19.5496,0.618,19.9468,306,5,
73.6499,5.90424,19.5511,0.618,19.9468,306,5,
73.6499,5.90424,19.5526,0.618,19.9468,306,5,
73.6499,5.89966,19.5496,0.618,19.9468,306,5,
73.65,5.90027,19.5511,0.618,19.9468,306,5,
73.65,5.89966,19.5496,0.618,19.9468,306,5,
73.65,5.89935,19.5496,0.618,19.9468,306,5,
73.6501,5.89905,19.5572,0.618,19.9468,306,5,
73.6501,5.89996,19.5602,0.618,19.9468,306,5,
73.6501,5.89935,19.5648,0.618,19.9468,306,5,
73.6502,5.89996,19.5618,0.618,19.9468,306,5,
73.6502,5.89935,19.5633,0.618,19.9468,306,5,
73.6502,5.89905,19.5633,0.618,19.9468,306,5,
73.6503,5.89996,19.5648,0.618,19.9468,306,5,
73.6503,5.89935,19.5618,0.618,19.9468,306,5,
73.6503,5.89935,19.5633,0.618,19.9468,306,5,
73.6504,5.89966,19.5633,0.618,19.9468,306,5,
73.6504,5.89966,19.574,0.618,19.9468,306,5,
73.6504,5.89874,19.5755,0.618,19.9468,306,5,
73.6505,5.89935,19.574,0.618,19.9468,306,5,
73.6505,5.89844,19.577,0.618,19.9468,306,5,
73.6505,5.89539,19.5755,0.618,19.9468,306,5,
73.6506,5.89478,19.5709,0.618,19.9468,306,5,
73.6506,5.89508,19.5755,0.618,19.9468,306,5,
73.6506,5.89508,19.5786,0.618,19.9468,306,5,
73.6507,5.89447,19.577,0.618,19.9468,306,5,
73.6507,5.89539,19.577,0.618,19.9468,306,5,
73.6507,5.89447,19.5877,0.618,19.9468,306,5,
73.6508,5.89447,19.5862,0.618,19.9468,306,5,
73.6508,5.89447,19.5877,0.618,19.9468,306,5,
73.6508,5.89508,19.5908,0.618,19.9468,306,5,
73.6509,5.89478,19.5877,0.618,19.9468,306,5,
73.6509,5.89508,19.5892,0.618,19.9468,306,5,
73.6509,5.89447,19.5847,0.618,19.9468,306,5,
73.651,5.89447,19.5892,0.618,19.9468,306,5,
73.651,5.89447,19.5877,0.618,19.9468,306,5,
73.651,5.88959,19.5862,0.618,19.9468,306,5,
73.6511,5.88989,19.5969,0.618,19.9468,306,5,
73.6511,5.88989,19.5999,0.618,19.9468,306,5,
73.6511,5.88989,19.5984,0.618,19.9468,306,5,
73.6512,5.8902,19.6014,0.618,19.9468,306,5,
73.6512,5.8902,19.5984,0.618,19.9468,306,5,
73.6512,5.88989,19.5984,0.618,19.9468,306,5,
73.6513,5.8902,19.5984,0.618,19.9468,306,5,
73.6513,5.88989,19.5984,0.618,19.9468,306,5,
73.6513,5.88989,19.5969,0.618,19.9468,306,5,
73.6514,5.88989,19.6014,0.618,19.9468,306,5,
73.6514,5.88959,19.6014,0.618,19.9468,306,5,
73.6514,5.88959,19.6091,0.618,19.9468,306,5,
73.6515,5.88531,19.6106,0.618,19.9468,306,5,
73.6515,5.8847,19.6091,0.618,19.9468,306,5,
73.6515,5.88531,19.6121,0.618,19.9468,306,5,
73.6516,5.88531,19.6106,0.618,19.9468,306,5,
73.6516,5.88531,19.6106,0.618,19.9468,306,5,
73.6516,5.88531,19.6091,0.618,19.9468,306,5,
73.6517,5.88501,19.6152,0.618,19.9468,306,5,
73.6517,5.88531,19.6121,0.618,19.9468,306,5,
73.6517,5.8847,19.6106,0.618,19.9468,306,5,
73.6518,5.88531,19.6106,0.618,19.9468,306,5,
73.6518,5.88501,19.6243,0.618,19.9468,306,5,
73.6518,5.88562,19.6243,0.618,19.9468,306,5,
73.6519,5.88043,19.6243,0.618,19.9468,306,5,
73.6519,5.87982,19.6243,0.618,19.9468,306,5,
73.6519,5.88013,19.6243,0.618,19.9468,306,5,
73.652,5.88013,19.6213,0.618,19.9468,306,5,
73.652,5.88013,19.6243,0.618,19.9468,306,5,
73.652,5.88013,19.6243,0.618,19.9468,306,5,
73.6521,5.88013,19.6243,0.618,19.9468,306,5,
73.6521,5.88043,19.6243,0.618,19.9468,306,5,
73.6521,5.87982,19.6259,0.618,19.9468,306,5,
73.6522,5.88013,19.6289,0.618,19.9468,306,5,
73.6522,5.87585,19.6335,0.618,19.9468,306,5,
73.6522,5.87494,19.6365,0.618,19.9468,306,5,
73.6523,5.87524,19.6335,0.618,19.9468,306,5,
73.6523,5.87524,19.632,0.618,19.9468,306,5,
73.6523,5.87494,19.635,0.618,19.9468,306,5,
73.6524,5.87555,19.632,0.618,19.9468,306,5,
73.6524,5.87494,19.6365,0.618,19.9468,306,5,
73.6524,5.87555,19.635,0.618,19.9468,306,5,
73.6525,5.87524,19.6381,0.618,19.9468,306,5,
73.6525,5.87036,19.6335,0.618,19.9468,306,5,
73.6525,5.87006,19.635,0.618,19.9468,306,5,
73.6526,5.87036,19.6472,0.618,19.9468,306,5,
73.6526,5.87006,19.6487,0.618,19.9468,306,5,
73.6526,5.86975,19.6442,0.618,19.9468,306,5,
73.6527,5.87006,19.6487,0.618,19.9468,306,5,
73.6527,5.87006,19.6487,0.618,19.9468,306,5,
73.6527,5.87067,19.6472,0.618,19.9468,306,5,
73.6528,5.86517,19.6503,0.618,19.9468,306,5,
73.6528,5.86639,19.6472,0.618,19.9468,306,5,
73.6528,5.86517,19.6472,0.618,19.9468,306,5,
73.6529,5.86517,19.6487,0.618,19.9468,306,5,
73.6529,5.8667,19.6533,0.618,19.9468,306,5,
73.6529,5.86578,19.6472,0.618,19.9468,306,5,
73.653,5.86548,19.6594,0.618,19.9468,306,5,
73.653,5.86365,19.661,0.618,19.9468,306,5,
73.653,5.8609,19.6594,0.618,19.9468,306,5,
73.6531,5.86029,19.664,0.618,19.9468,306,5,
73.6531,5.86029,19.6625,0.618,19.9468,306,5,
73.6531,5.86121,19.6625,0.618,19.9468,306,5,
73.6532,5.85999,19.661,0.618,19.9468,306,5,
73.6532,5.86029,19.661,0.618,19.9468,306,5,
73.6532,5.85876,19.664,0.618,19.9468,306,5,
73.6533,5.85541,19.6625,0.618,19.9468,306,5,
73.6533,5.8551,19.6625,0.618,19.9468,306,5,
73.6533,5.85571,19.661,0.618,19.9468,306,5,
73.6534,5.85541,19.6594,0.618,19.9468,306,5,
73.6534,5.85571,19.6732,0.618,19.9468,306,5,
73.6534,5.85571,19.6762,0.618,19.9468,306,5,
73.6535,5.85327,19.6747,0.618,19.9468,306,5,
73.6535,5.85083,19.6716,0.618,19.9468,306,5,
73.6535,5.84991,19.6716,0.618,19.9468,306,5,
73.6536,5.85083,19.6732,0.618,19.9468,306,5,
73.6536,5.85083,19.6732,0.618,19.9468,306,5,
73.6536,5.85052,19.6716,0.618,19.9468,306,5,
73.6537,5.85083,19.6716,0.618,19.9468,306,5,
73.6537,5.84534,19.6716,0.618,19.9468,306,5,
73.6537,5.84595,19.6732,0.618,19.9468,306,5,
73.6538,5.84564,19.6732,0.618,19.9468,306,5,
73.6538,5.84564,19.6732,0.618,19.9468,306,5,
73.6538,5.84534,19.6869,0.618,19.9468,306,5,
73.6539,5.84595,19.6838,0.618,19.9468,306,5,
73.6539,5.84503,19.6823,0.618,19.9468,306,5,
73.6539,5.84045,19.6854,0.618,19.9468,306,5,
73.654,5.84106,19.6854,0.618,19.9468,306,5,
73.654,5.84106,19.6838,0.618,19.9468,306,5,
73.654,5.84076,19.6838,0.618,19.9468,306,5,
73.6541,5.84076,19.6838,0.618,19.9468,306,5,
73.6541,5.84106,19.6838,0.618,19.9468,306,5,
73.6541,5.83649,19.6838,0.618,19.9468,306,5,
73.6542,5.83618,19.6838,0.618,19.9468,306,5,
73.6542,5.83588,19.6854,0.618,19.9468,306,5,
73.6542,5.83588,19.6808,0.618,19.9468,306,5,
73.6543,5.83588,19.7021,0.618,19.9468,306,5,
73.6543,5.83588,19.6976,0.618,19.9468,306,5,
73.6543,5.83099,19.6976,0.618,19.9468,306,5,
73.6544,5.83099,19.696,0.618,19.9468,306,5,
73.6544,5.83099,19.696,0.618,19.9468,306,5,
73.6544,5.83038,19.6991,0.618,19.9468,306,5,
73.6545,5.8313,19.6976,0.618,19.9468,306,5,
73.6545,5.83191,19.696,0.618,19.9468,306,5,
73.6545,5.82703,19.6945,0.618,19.9468,306,5,
73.6546,5.82672,19.7006,0.618,19.9468,306,5,
73.6546,5.82611,19.696,0.618,19.9468,306,5,
73.6546,5.82581,19.6976,0.618,19.9468,306,5,
73.6547,5.82642,19.6991,0.618,19.9468,306,5,
73.6547,5.82642,19.696,0.618,19.9468,306,5,
73.6547,5.82367,19.7052,0.618,19.9468,306,5,
73.6548,5.82153,19.7113,0.618,19.9468,306,5,
73.6548,5.82153,19.7083,0.618,19.9468,306,5,
73.6548,5.82062,19.7083,0.618,19.9468,306,5,
73.6549,5.82123,19.7067,0.618,19.9468,306,5,
73.6549,5.82062,19.7113,0.618,19.9468,306,5,
73.6549,5.82062,19.7067,0.618,19.9468,306,5,
73.655,5.81604,19.7098,0.618,19.9468,306,5,
73.655,5.81665,19.7083,0.618,19.9468,306,5,
73.655,5.81665,19.7083,0.618,19.9468,306,5,
73.6551,5.81512,19.7083,0.618,19.9468,306,5,
73.6551,5.81604,19.7067,0.618,19.9468,306,5,
73.6551,5.81665,19.7052,0.618,19.9468,306,5,
73.6552,5.81207,19.7098,0.618,19.9468,306,5,
73.6552,5.81177,19.725,0.618,19.9468,306,5,
73.6552,5.81177,19.722,0.618,19.9468,306,5,
73.6553,5.81116,19.725,0.618,19.9468,306,5,
73.6553,5.81146,19.7189,0.618,19.9468,306,5,
73.6553,5.81116,19.7205,0.618,19.9468,306,5,
73.6554,5.80658,19.7235,0.618,19.9468,306,5,
73.6554,5.80658,19.7174,0.618,19.9468,306,5,
73.6554,5.80627,19.7189,0.618,19.9468,306,5,
73.6555,5.80658,19.7205,0.618,19.9468,306,5,
73.6555,5.80627,19.722,0.618,19.9468,306,5,
73.6555,5.80627,19.7189,0.618,19.9468,306,5,
73.6556,5.80261,19.7235,0.618,19.9468,306,5,
73.6556,5.8017,19.7205,0.618,19.9468,306,5,
73.6556,5.8017,19.7189,0.618,19.9468,306,5,
73.6557,5.802,19.7205,0.618,19.9468,306,5,
73.6557,5.80139,19.7311,0.618,19.9468,306,5,
73.6557,5.80109,19.7327,0.618,19.9468,306,5,
73.6558,5.79987,19.7327,0.618,19.9468,306,5,
73.6558,5.79712,19.7357,0.618,19.9468,306,5,
73.6558,5.79651,19.7357,0.618,19.9468,306,5,
73.6559,5.79712,19.7311,0.618,19.9468,306,5,
73.6559,5.79681,19.7357,0.618,19.9468,306,5,
73.6559,5.79712,19.7342,0.618,19.9468,306,5,
73.656,5.79742,19.7327,0.618,19.9468,306,5,
73.656,5.79193,19.7357,0.618,19.9468,306,5,
73.656,5.79132,19.7372,0.618,19.9468,306,5,
73.6561,5.79132,19.7357,0.618,19.9468,306,5,
73.6561,5.79224,19.7342,0.618,19.9468,306,5,
73.6561,5.79163,19.7342,0.618,19.9468,306,5,
73.6562,5.79193,19.7342,0.618,19.9468,306,5,
73.6562,5.78613,19.7464,0.618,19.9468,306,5,
73.6562,5.78674,19.7464,0.618,19.9468,306,5,
73.6563,5.78705,19.7464,0.618,19.9468,306,5,
73.6563,5.78644,19.7464,0.618,19.9468,306,5,
73.6563,5.78705,19.7433,0.618,19.9468,306,5,
73.6564,5.78674,19.7464,0.618,19.9468,306,5,
73.6564,5.78705,19.7449,0.618,19.9468,306,5,
73.6564,5.78247,19.7433,0.618,19.9468,306,5,
73.6565,5.78217,19.7433,0.618,19.9468,306,5,
73.6565,5.78156,19.7449,0.618,19.9468,306,5,
73.6565,5.78156,19.7479,0.618,19.9468,306,5,
73.6566,5.78217,19.7464,0.618,19.9468,306,5,
73.6566,5.78247,19.7464,0.618,19.9468,306,5,
73.6566,5.7782,19.7449,0.618,19.9468,306,5,
73.6567,5.77698,19.7479,0.618,19.9468,306,5,
73.6567,5.77759,19.7433,0.618,19.9468,306,5,
73.6567,5.77637,19.7571,0.618,19.9468,306,5,
73.6568,5.77759,19.7586,0.618,19.9468,306,5,
73.6568,5.77728,19.7571,0.618,19.9468,306,5,
73.6568,5.77637,19.7586,0.618,19.9468,306,5,
73.6569,5.7724,19.7601,0.618,19.9468,306,5,
73.6569,5.77179,19.7571,0.618,19.9468,306,5,
73.6569,5.77209,19.7586,0.618,19.9468,306,5,
73.657,5.7724,19.754,0.618,19.9468,306,5,
73.657,5.77209,19.7556,0.618,19.9468,306,5,
73.657,5.77209,19.7601,0.618,19.9468,306,5,
73.6571,5.76721,19.7586,0.618,19.9468,306,5,
73.6571,5.76721,19.7586,0.618,19.9468,306,5,
73.6571,5.76782,19.7571,0.618,19.9468,306,5,
73.6572,5.76721,19.7571,0.618,19.9468,306,5,
73.6572,5.7666,19.7556,0.618,19.9468,306,5,
73.6572,5.76752,19.7556,0.618,19.9468,306,5,
73.6573,5.76233,19.7708,0.618,19.9468,306,5,
73.6573,5.76202,19.7662,0.618,19.9468,306,5,
73.6573,5.76202,19.7647,0.618,19.9468,306,5,
73.6574,5.76202,19.7693,0.618,19.9468,306,5,
73.6574,5.76202,19.7708,0.618,19.9468,306,5,
73.6574,5.76202,19.7693,0.618,19.9468,306,5,
73.6575,5.75745,19.7708,0.618,19.9468,306,5,
73.6575,5.75775,19.7678,0.618,19.9468,306,5,
73.6575,5.75714,19.7678,0.618,19.9468,306,5,
73.6576,5.75714,19.7678,0.618,19.9468,306,5,
73.6576,5.75745,19.7662,0.618,19.9468,306,5,
73.6576,5.75806,19.7708,0.618,19.9468,306,5,
73.6577,5.75409,19.7708,0.618,19.9468,306,5,
73.6577,5.75317,19.7693,0.618,19.9468,306,5,
73.6577,5.75256,19.7693,0.618,19.9468,306,5,
73.6578,5.75287,19.7693,0.618,19.9468,306,5,
73.6578,5.75256,19.7693,0.618,19.9468,306,5,
73.6578,5.75317,19.7815,0.618,19.9468,306,5,
73.6579,5.74921,19.7815,0.618,19.9468,306,5,
73.6579,5.74799,19.78,0.618,19.9468,306,5,
73.6579,5.7486,19.783,0.618,19.9468,306,5,
73.658,5.7486,19.78,0.618,19.9468,306,5,
73.658,5.74921,19.7815,0.618,19.9468,306,5,
73.658,5.74799,19.7815,0.618,19.9468,306,5,
73.6581,5.74341,19.783,0.618,19.9468,306,5,
73.6581,5.74371,19.78,0.618,19.9468,306,5,
73.6581,5.7431,19.7815,0.618,19.9468,306,5,
73.6582,5.7431,19.7815,0.618,19.9468,306,5,
73.6582,5.74371,19.7815,0.618,19.9468,306,5,
73.6582,5.74127,19.7815,0.618,19.9468,306,5,
73.6583,5.73853,19.78,0.618,19.9468,306,5,
73.6583,5.73822,19.78,0.618,19.9468,306,5,
73.6583,5.73853,19.78,0.618,19.9468,306,5,
73.6584,5.73822,19.7815,0.618,19.9468,306,5,
73.6584,5.73761,19.783,0.618,19.9468,306,5,
73.6584,5.73273,19.7937,0.618,19.9468,306,5,
73.6585,5.73273,19.7922,0.618,19.9468,306,5,
73.6585,5.73334,19.7922,0.618,19.9468,306,5,
73.6585,5.73303,19.7968,0.618,19.9468,306,5,
73.6586,5.73242,19.7952,0.618,19.9468,306,5,
73.6586,5.7312,19.7952,0.618,19.9468,306,5,
73.6586,5.72784,19.7952,0.618,19.9468,306,5,
73.6587,5.72815,19.7937,0.618,19.9468,306,5,
73.6587,5.72784,19.7937,0.618,19.9468,306,5,
73.6587,5.72815,19.7922,0.618,19.9468,306,5,
73.6588,5.72845,19.7922,0.618,19.9468,306,5,
73.6588,5.72327,19.7937,0.618,19.9468,306,5,
73.6588,5.72327,19.7968,0.618,19.9468,306,5,
73.6589,5.72296,19.7952,0.618,19.9468,306,5,
73.6589,5.72296,19.7937,0.618,19.9468,306,5,
73.6589,5.72327,19.7952,0.618,19.9468,306,5,
73.659,5.71899,19.7983,0.618,19.9468,306,5,
73.659,5.71838,19.8059,0.618,19.9468,306,5,
73.659,5.71808,19.8044,0.618,19.9468,306,5,
73.6591,5.71808,19.8074,0.618,19.9468,306,5,
73.6591,5.71899,19.8074,0.618,19.9468,306,5,
73.6591,5.71381,19.8074,0.618,19.9468,306,5,
73.6592,5.71411,19.8059,0.618,19.9468,306,5,
73.6592,5.71381,19.8044,0.618,19.9468,306,5,
73.6592,5.7132,19.8074,0.618,19.9468,306,5,
73.6593,5.7135,19.8059,0.618,19.9468,306,5,
73.6593,5.70984,19.8029,0.618,19.9468,306,5,
73.6593,5.70831,19.8059,0.618,19.9468,306,5,
73.6594,5.70892,19.8105,0.618,19.9468,306,5,
73.6594,5.7077,19.8074,0.618,19.9468,306,5,
73.6594,5.70831,19.8074,0.618,19.9468,306,5,
73.6595,5.70526,19.8196,0.618,19.9468,306,5,
73.6595,5.70374,19.8196,0.618,19.9468,306,5,
73.6595,5.70404,19.8181,0.618,19.9468,306,5,
73.6596,5.70343,19.8196,0.618,19.9468,306,5,
73.6596,5.70374,19.8212,0.618,19.9468,306,5,
73.6596,5.69946,19.8196,0.618,19.9468,306,5,
73.6597,5.69916,19.8212,0.618,19.9468,306,5,
73.6597,5.69885,19.8181,0.618,19.9468,306,5,
73.6597,5.69916,19.8212,0.618,19.9468,306,5,
73.6598,5.69916,19.8181,0.618,19.9468,306,5,
73.6598,5.69397,19.8227,0.618,19.9468,306,5,
73.6598,5.69366,19.8196,0.618,19.9468,306,5,
73.6599,5.69366,19.8181,0.618,19.9468,306,5,
73.6599,5.69427,19.8196,0.618,19.9468,306,5,
73.6599,5.69336,19.8196,0.618,19.9468,306,5,
73.66,5.68909,19.8318,0.618,19.9468,306,5,
73.66,5.68909,19.8318,0.618,19.9468,306,5,
73.66,5.68909,19.8318,0.618,19.9468,306,5,
73.6601,5.68878,19.8303,0.618,19.9468,306,5,
73.6601,5.68665,19.8334,0.618,19.9468,306,5,
73.6601,5.68359,19.8318,0.618,19.9468,306,5,
73.6602,5.6839,19.8318,0.618,19.9468,306,5,
73.6602,5.6839,19.8334,0.618,19.9468,306,5,
73.6602,5.68359,19.8334,0.618,19.9468,306,5,
73.6603,5.68207,19.8334,0.618,19.9468,306,5,
73.6603,5.67871,19.8334,0.618,19.9468,306,5,
73.6603,5.67993,19.8303,0.618,19.9468,306,5,
73.6604,5.67963,19.8334,0.618,19.9468,306,5,
73.6604,5.67932,19.8318,0.618,19.9468,306,5,
73.6604,5.67474,19.8334,0.618,19.9468,306,5,
73.6605,5.67444,19.8303,0.618,19.9468,306,5,
73.6605,5.67383,19.8303,0.618,19.9468,306,5,
73.6605,5.67383,19.8441,0.618,19.9468,306,5,
73.6606,5.67505,19.8456,0.618,19.9468,306,5,
73.6606,5.66895,19.8456,0.618,19.9468,306,5,
73.6606,5.66925,19.8456,0.618,19.9468,306,5,
73.6607,5.66864,19.8471,0.618,19.9468,306,5,
73.6607,5.66925,19.8441,0.618,19.9468,306,5,
73.6607,5.66895,19.8456,0.618,19.9468,306,5,
73.6608,5.66406,19.8425,0.618,19.9468,306,5,
73.6608,5.66437,19.8456,0.618,19.9468,306,5,
73.6608,5.66467,19.8441,0.618,19.9468,306,5,
73.6609,5.66437,19.8471,0.618,19.9468,306,5,
73.6609,5.66406,19.8456,0.618,19.9468,306,5,
73.6609,5.65979,19.8441,0.618,19.9468,306,5,
73.661,5.65887,19.8456,0.618,19.9468,306,5,
73.661,5.65918,19.8456,0.618,19.9468,306,5,
73.661,5.65948,19.8471,0.618,19.9468,306,5,
73.6611,5.65979,19.8471,0.618,19.9468,306,5,
73.6611,5.6543,19.8441,0.618,19.9468,306,5,
73.6611,5.65552,19.8441,0.618,19.9468,306,5,
73.6612,5.6546,19.8441,0.618,19.9468,306,5,
73.6612,5.65491,19.8547,0.618,19.9468,306,5,
73.6612,5.6546,19.8532,0.618,19.9468,306,5,
73.6613,5.64941,19.8547,0.618,19.9468,306,5,
73.6613,5.65033,19.8547,0.618,19.9468,306,5,
73.6613,5.64941,19.8578,0.618,19.9468,306,5,
73.6614,5.65002,19.8608,0.618,19.9468,306,5,
73.6614,5.64911,19.8547,0.618,19.9468,306,5,
73.6614,5.64484,19.8532,0.618,19.9468,306,5,
73.6615,5.64484,19.8563,0.618,19.9468,306,5,
73.6615,5.64484,19.8578,0.618,19.9468,306,5,
73.6615,5.64545,19.8593,0.618,19.9468,306,5,
73.6616,5.64484,19.8563,0.618,19.9468,306,5,
73.6616,5.64117,19.8578,0.618,19.9468,306,5,
73.6616,5.63995,19.8563,0.618,19.9468,306,5,
73.6617,5.63995,19.8547,0.618,19.9468,306,5,
73.6617,5.63995,19.8563,0.618,19.9468,306,5,
73.6617,5.63965,19.8563,0.618,19.9468,306,5,
73.6618,5.63629,19.8563,0.618,19.9468,306,5,
73.6618,5.63477,19.8532,0.618,19.9468,306,5,
73.6618,5.63538,19.8578,0.618,19.9468,306,5,
73.6619,5.63538,19.8563,0.618,19.9468,306,5,
73.6619,5.63507,19.8563,0.618,19.9468,306,5,
73.6619,5.63507,19.8547,0.618,19.9468,306,5,
73.662,5.63019,19.8685,0.618,19.9468,306,5,
73.662,5.62988,19.8669,0.618,19.9468,306,5,
73.662,5.62988,19.8669,0.618,19.9468,306,5,
73.6621,5.62958,19.8669,0.618,19.9468,306,5,
73.6621,5.63049,19.8654,0.618,19.9468,306,5,
73.6621,5.62592,19.8669,0.618,19.9468,306,5,
73.6622,5.62592,19.8685,0.618,19.9468,306,5,
73.6622,5.62531,19.8654,0.618,19.9468,306,5,
73.6622,5.625,19.8715,0.618,19.9468,306,5,
73.6623,5.62622,19.8669,0.618,19.9468,306,5,
73.6623,5.62531,19.8685,0.618,19.9468,306,5,
73.6623,5.61951,19.8685,0.618,19.9468,306,5,
73.6624,5.62073,19.873,0.618,19.9468,306,5,
73.6624,5.62042,19.8715,0.618,19.9468,306,5,
73.6624,5.61951,19.8685,0.618,19.9468,306,5,
73.6625,5.62042,19.8685,0.618,19.9468,306,5,
73.6625,5.61676,19.8685,0.618,19.9468,306,5,
73.6625,5.61584,19.8669,0.618,19.9468,306,5,
73.6626,5.61584,19.87,0.618,19.9468,306,5,
73.6626,5.61523,19.8669,0.618,19.9468,306,5,
73.6626,5.61554,19.87,0.618,19.9468,306,5,
73.6627,5.61523,19.8685,0.618,19.9468,306,5,
73.6627,5.61096,19.87,0.618,19.9468,306,5,
73.6627,5.61066,19.87,0.618,19.9468,306,5,
73.6628,5.61096,19.87,0.618,19.9468,306,5,
73.6628,5.61035,19.8715,0.618,19.9468,306,5,
73.6628,5.61066,19.8639,0.618,19.9468,306,5,
73.6629,5.61096,19.8685,0.618,19.9468,306,5,
73.6629,5.60608,19.8807,0.618,19.9468,306,5,
73.6629,5.60547,19.8822,0.618,19.9468,306,5,
73.663,5.60608,19.8792,0.618,19.9468,306,5,
73.663,5.60608,19.8807,0.618,19.9468,306,5,
73.663,5.60608,19.8837,0.618,19.9468,306,5,
73.6631,5.60516,19.8807,0.618,19.9468,306,5,
73.6631,5.60089,19.8822,0.618,19.9468,306,5,
73.6631,5.60059,19.8853,0.618,19.9468,306,5,
73.6632,5.6012,19.8822,0.618,19.9468,306,5,
73.6632,5.6012,19.8792,0.618,19.9468,306,5,
73.6632,5.60059,19.8807,0.618,19.9468,306,5,
73.6633,5.59937,19.8807,0.618,19.9468,306,5,
73.6633,5.59601,19.8807,0.618,19.9468,306,5,
73.6633,5.59631,19.8792,0.618,19.9468,306,5,
73.6634,5.59601,19.8792,0.618,19.9468,306,5,
73.6634,5.5957,19.8792,0.618,19.9468,306,5,
73.6634,5.59631,19.8807,0.618,19.9468,306,5,
73.6635,5.59601,19.8807,0.618,19.9468,306,5,
73.6635,5.59113,19.8776,0.618,19.9468,306,5,
73.6635,5.59113,19.8792,0.618,19.9468,306,5,
73.6636,5.59113,19.8807,0.618,19.9468,306,5,
73.6636,5.59113,19.8807,0.618,19.9468,306,5,
73.6636,5.59113,19.8792,0.618,19.9468,306,5,
73.6637,5.59021,19.8807,0.618,19.9468,306,5,
73.6637,5.58533,19.8792,0.618,19.9468,306,5,
73.6637,5.58655,19.8792,0.618,19.9468,306,5,
73.6638,5.58563,19.8792,0.618,19.9468,306,5,
73.6638,5.58594,19.8807,0.618,19.9468,306,5,
73.6638,5.58594,19.8807,0.618,19.9468,306,5,
73.6639,5.58624,19.8807,0.618,19.9468,306,5,
73.6639,5.58228,19.8792,0.618,19.9468,306,5,
73.6639,5.58197,19.8837,0.618,19.9468,306,5,
73.664,5.58105,19.8776,0.618,19.9468,306,5,
73.664,5.58075,19.8807,0.618,19.9468,306,5,
73.664,5.58105,19.8822,0.618,19.9468,306,5,
73.6641,5.58075,19.8929,0.618,19.9468,306,5,
73.6641,5.58136,19.8914,0.618,19.9468,306,5,
73.6641,5.57678,19.8898,0.618,19.9468,306,5,
73.6642,5.57526,19.8898,0.618,19.9468,306,5,
73.6642,5.57617,19.8929,0.618,19.9468,306,5,
73.6642,5.57678,19.8883,0.618,19.9468,306,5,
73.6643,5.57617,19.8959,0.618,19.9468,306,5,
73.6643,5.57587,19.8929,0.618,19.9468,306,5,
73.6643,5.57251,19.8929,0.618,19.9468,306,5,
73.6644,5.57159,19.8914,0.618,19.9468,306,5,
73.6644,5.57159,19.8914,0.618,19.9468,306,5,
73.6644,5.57098,19.8914,0.618,19.9468,306,5,
73.6645,5.5719,19.8944,0.618,19.9468,306,5,
73.6645,5.57159,19.8929,0.618,19.9468,306,5,
73.6645,5.57129,19.8929,0.618,19.9468,306,5,
73.6646,5.56671,19.8914,0.618,19.9468,306,5,
73.6646,5.56671,19.8929,0.618,19.9468,306,5,
73.6646,5.56641,19.8898,0.618,19.9468,306,5,
73.6647,5.56702,19.8944,0.618,19.9468,306,5,
73.6647,5.56671,19.8929,0.618,19.9468,306,5,
73.6647,5.56641,19.8914,0.618,19.9468,306,5,
73.6648,5.56732,19.8898,0.618,19.9468,306,5,
73.6648,5.56244,19.8944,0.618,19.9468,306,5,
73.6648,5.56183,19.8914,0.618,19.9468,306,5,
73.6649,5.56183,19.8944,0.618,19.9468,306,5,
73.6649,5.56183,19.8929,0.618,19.9468,306,5,
73.6649,5.56213,19.8929,0.618,19.9468,306,5,
73.665,5.56183,19.8914,0.618,19.9468,306,5,
73.665,5.56213,19.8914,0.618,19.9468,306,5,
73.665,5.55756,19.8914,0.618,19.9468,306,5,
73.6651,5.55695,19.8914,0.618,19.9468,306,5,
73.6651,5.55725,19.8914,0.618,19.9468,306,5,
73.6651,5.55634,19.8914,0.618,19.9468,306,5,
73.6652,5.55695,19.8883,0.618,19.9468,306,5,
73.6652,5.55695,19.8883,0.618,19.9468,306,5,
73.6652,5.55725,19.8929,0.618,19.9468,306,5,
73.6653,5.55206,19.8914,0.618,19.9468,306,5,
73.6653,5.55206,19.8929,0.618,19.9468,306,5,
73.6653,5.55176,19.8944,0.618,19.9468,306,5,
73.6654,5.55145,19.8914,0.618,19.9468,306,5,
73.6654,5.55267,19.8944,0.618,19.9468,306,5,
73.6654,5.55145,19.8944,0.618,19.9468,306,5,
73.6655,5.55237,19.8929,0.618,19.9468,306,5,
73.6655,5.54779,19.899,0.618,19.9468,306,5,
73.6655,5.54749,19.9051,0.618,19.9468,306,5,
73.6656,5.54688,19.9051,0.618,19.9468,306,5,
73.6656,5.54779,19.9051,0.618,19.9468,306,5,
73.6656,5.54688,19.9036,0.618,19.9468,306,5,
73.6657,5.54749,19.9051,0.618,19.9468,306,5,
73.6657,5.54718,19.9036,0.618,19.9468,306,5,
73.6657,5.54718,19.9051,0.618,19.9468,306,5,
73.6658,5.5423,19.902,0.618,19.9468,306,5,
73.6658,5.54199,19.9036,0.618,19.9468,306,5,
73.6658,5.54138,19.9051,0.618,19.9468,306,5,
73.6659,5.5426,19.9097,0.618,19.9468,306,5,
73.6659,5.5423,19.9066,0.618,19.9468,306,5,
73.6659,5.54199,19.9051,0.618,19.9468,306,5,
73.666,5.5423,19.9066,0.618,19.9468,306,5,
73.666,5.53986,19.9097,0.618,19.9468,306,5,
73.666,5.53802,19.9066,0.618,19.9468,306,5,
73.6661,5.5365,19.9066,0.618,19.9468,306,5,
73.6661,5.53772,19.9036,0.618,19.9468,306,5,
73.6661,5.53619,19.9036,0.618,19.9468,306,5,
73.6662,5.53711,19.9051,0.618,19.9468,306,5,
73.6662,5.53741,19.9051,0.618,19.9468,306,5,
73.6662,5.53619,19.9051,0.618,19.9468,306,5,
73.6663,5.53558,19.9066,0.618,19.9468,306,5,
73.6663,5.53253,19.9081,0.618,19.9468,306,5,
73.6663,5.53223,19.9051,0.618,19.9468,306,5,
73.6664,5.53162,19.9036,0.618,19.9468,306,5,
73.6664,5.53253,19.902,0.618,19.9468,306,5,
73.6664,5.53284,19.9051,0.618,19.9468,306,5,
73.6665,5.53162,19.9051,0.618,19.9468,306,5,
73.6665,5.53223,19.9081,0.618,19.9468,306,5,
73.6665,5.53223,19.9081,0.618,19.9468,306,5,
73.6666,5.52643,19.9005,0.618,19.9468,306,5,
73.6666,5.52765,19.9051,0.618,19.9468,306,5,
73.6666,5.52765,19.9051,0.618,19.9468,306,5,
73.6667,5.52734,19.9051,0.618,19.9468,306,5,
73.6667,5.52734,19.9066,0.618,19.9468,306,5,
73.6667,5.52734,19.9036,0.618,19.9468,306,5,
73.6668,5.52795,19.9051,0.618,19.9468,306,5,
73.6668,5.52734,19.9066,0.618,19.9468,306,5,
73.6668,5.52368,19.9051,0.618,19.9468,306,5,
73.6669,5.52277,19.9051,0.618,19.9468,306,5,
73.6669,5.52246,19.9051,0.618,19.9468,306,5,
73.6669,5.52246,19.9051,0.618,19.9468,306,5,
73.667,5.52277,19.9066,0.618,19.9468,306,5,
73.667,5.52246,19.9081,0.618,19.9468,306,5,
73.667,5.52185,19.9036,0.618,19.9468,306,5,
73.6671,5.52246,19.902,0.618,19.9468,306,5,
73.6671,5.52185,19.902,0.618,19.9468,306,5,
73.6671,5.51788,19.9051,0.618,19.9468,306,5,
73.6672,5.51758,19.9066,0.618,19.9468,306,5,
73.6672,5.51788,19.9036,0.618,19.9468,306,5,
73.6672,5.51758,19.9036,0.618,19.9468,306,5,
73.6673,5.51788,19.9051,0.618,19.9468,306,5,
73.6673,5.51697,19.902,0,19.9468,306,5,
73.6673,5.51788,19.9051,0,19.9468,306,5,
73.6674,5.51758,19.9051,0,19.9468,306,5,
73.6674,5.51727,19.9051,0,19.9468,306,5,
73.6674,5.51361,19.9051,0,19.9468,306,5,
73.6675,5.51361,19.9066,0,19.9468,306,5,
73.6675,5.5127,19.902,0,19.9468,306,5,
73.6675,5.51331,19.9036,0,19.9468,306,5,
73.6676,5.51239,19.9036,0,19.9468,306,5,
73.6676,5.51361,19.9051,0,19.9468,306,5,
73.6676,5.51331,19.9188,0,19.9468,306,5,
73.6677,5.51331,19.9158,0,19.9468,306,5,
73.6677,5.513,19.9173,0,19.9468,306,5,
73.6677,5.513,19.9173,0,19.9468,306,5,
73.6678,5.50812,19.9188,0,19.9468,306,5,
73.6678,5.50812,19.9158,0,19.9468,306,5,
73.6678,5.50781,19.9173,0,19.9468,306,5,
73.6679,5.50781,19.9158,0,19.9468,306,5,
73.6679,5.50781,19.9173,0,19.9468,306,5,
73.6679,5.50751,19.9158,0,19.9468,306,5,
73.668,5.5069,19.9188,0,19.9468,306,5,
73.668,5.50781,19.9188,0,19.9468,306,5,
73.668,5.50781,19.9158,0,19.9468,306,5,
73.6681,5.50476,19.9173,0,19.9468,306,5,
73.6681,5.50232,19.9188,0,19.9468,306,5,
73.6681,5.50201,19.9158,0,19.9468,306,5,
73.6682,5.50201,19.9142,0,19.9468,306,5,
73.6682,5.50232,19.9204,0,19.9468,306,5,
73.6682,5.50232,19.9158,0,19.9468,306,5,
73.6683,5.50262,19.9188,0,19.9468,306,5,
73.6683,5.50201,19.9173,0,19.9468,306,5,
73.6683,5.50232,19.9158,0,19.9468,306,5,
73.6684,5.50201,19.9173,0,19.9468,306,5,
73.6684,5.49866,19.9158,0,19.9468,306,5,
73.6684,5.49805,19.9173,0,19.9468,306,5,
73.6685,5.49744,19.9158,0,19.9468,306,5,
73.6685,5.49774,19.9173,0,19.9468,306,5,
73.6685,5.49774,19.9142,0,19.9468,306,5,
73.6686,5.49774,19.9158,0,19.9468,306,5,
73.6686,5.49744,19.9127,0,19.9468,306,5,
73.6686,5.49744,19.9188,0,19.9468,306,5,
73.6687,5.49805,19.9158,0,19.9468,306,5,
73.6687,5.49713,19.9173,0,19.9468,306,5,
73.6687,5.49316,19.9204,0,19.9468,306,5,
73.6688,5.49255,19.9173,0,19.9468,306,5,
73.6688,5.49316,19.9173,0,19.9468,306,5,
73.6688,5.49255,19.9173,0,19.9468,306,5,
73.6689,5.49255,19.9173,0,19.9468,306,5,
73.6689,5.49225,19.9142,0,19.9468,306,5,
73.6689,5.49286,19.9127,0,19.9468,306,5,
73.669,5.49194,19.9173,0,19.9468,306,5,
73.669,5.49286,19.9142,0,19.9468,306,5,
73.669,5.49316,19.9158,0,19.9468,306,5,
73.6691,5.48859,19.9158,0,19.9468,306,5,
73.6691,5.48828,19.9173,0,19.9468,306,5,
73.6691,5.48767,19.9173,0,19.9468,306,5,
73.6692,5.48767,19.9127,0,19.9468,306,5,
73.6692,5.48798,19.9173,0,19.9468,306,5,
73.6692,5.48737,19.9173,0,19.9468,306,5,
73.6693,5.48859,19.9158,0,19.9468,306,5,
73.6693,5.48767,19.9173,0,19.9468,306,5,
73.6693,5.48798,19.9188,0,19.9468,306,5,
73.6694,5.48798,19.9158,0,19.9468,306,5,
73.6694,5.4834,19.9158,0,19.9468,306,5,
73.6694,5.4837,19.9188,0,19.9468,306,5,
73.6695,5.48309,19.9158,0,19.9468,306,5,
73.6695,5.48401,19.9188,0,19.9468,306,5,
73.6695,5.48309,19.9188,0,19.9468,306,5,
73.6696,5.4834,19.9188,0,19.9468,306,5,
73.6696,5.4834,19.9158,0,19.9468,306,5,
73.6696,5.4837,19.9173,0,19.9468,306,5,
73.6697,5.48248,19.9188,0,19.9468,306,5,
73.6697,5.4837,19.9158,0,19.9468,306,5,
73.6697,5.47791,19.9158,0,19.9468,306,5,
73.6698,5.47821,19.9158,0,19.9468,306,5,
73.6698,5.47852,19.9158,0,19.9468,306,5,
73.6698,5.47791,19.9188,0,19.9468,306,5,
73.6699,5.47882,19.9173,0,19.9468,306,5,
73.6699,5.47852,19.9112,0,19.9468,306,5,
73.6699,5.4776,19.9142,0,19.9468,306,5,
73.67,5.47791,19.9158,0,19.9468,306,5,
73.67,5.47821,19.9173,0,19.9468,306,5,
73.67,5.47882,19.9188,0,19.9468,306,5,
73.6701,5.47852,19.9158,0,19.9468,306,5,
73.6701,5.47394,19.9158,0,19.9468,306,5,
73.6701,5.47363,19.9173,0,19.9468,306,5,
73.6702,5.47363,19.9142,0,19.9468,306,5,
73.6702,5.47302,19.9188,0,19.9468,306,5,
73.6702,5.47272,19.9173,0,19.9468,306,5,
73.6703,5.47333,19.9142,0,19.9468,306,5,
73.6703,5.47363,19.9173,0,19.9468,306,5,
73.6703,5.47363,19.9158,0,19.9468,306,5,
73.6704,5.47363,19.9188,0,19.9468,306,5,
73.6704,5.47302,19.9219,0,19.9468,306,5,
73.6704,5.47363,19.9188,0,19.9468,306,5,
73.6705,5.46936,19.9173,0,19.9468,306,5,
73.6705,5.46814,19.9188,0,19.9468,306,5,
73.6705,5.46875,19.9204,0,19.9468,306,5,
73.6706,5.46844,19.9158,0,19.9468,306,5,
73.6706,5.46875,19.9158,0,19.9468,306,5,
73.6706,5.46844,19.9188,0,19.9468,306,5,
73.6707,5.46875,19.9158,0,19.9468,306,5,
73.6707,5.46844,19.9158,0,19.9468,306,5,
73.6707,5.46875,19.9204,0,19.9468,306,5,
73.6708,5.46875,19.9188,0,19.9468,306,5,
73.6708,5.46814,19.9158,0,19.9468,306,5,
73.6708,5.46936,19.9173,0,19.9468,306,5,
73.6709,5.46387,19.9142,0,19.9468,306,5,
73.6709,5.46356,19.9188,0,19.9468,306,5,
73.6709,5.46326,19.9158,0,19.9468,306,5,
73.671,5.46387,19.9188,0,19.9468,306,5,
73.671,5.46387,19.9158,0,19.9468,306,5,
73.671,5.46356,19.9142,0,19.9468,306,5,
73.6711,5.46356,19.9158,0,19.9468,306,5,
73.6711,5.46417,19.9142,0,19.9468,306,5,
73.6711,5.46417,19.9173,0,19.9468,306,5,
73.6712,5.46448,19.9188,0,19.9468,306,5,
73.6712,5.46356,19.9188,0,19.9468,306,5,
73.6712,5.46387,19.9173,0,19.9468,306,5,
73.6713,5.45929,19.9158,0,19.9468,306,5,
73.6713,5.45929,19.9173,0,19.9468,306,5,
73.6713,5.45898,19.9173,0,19.9468,306,5,
73.6714,5.45868,19.9158,0,19.9468,306,5,
73.6714,5.45929,19.9158,0,19.9468,306,5,
73.6714,5.45837,19.9158,0,19.9468,306,5,
73.6715,5.45898,19.9158,0,19.9468,306,5,
73.6715,5.45898,19.9188,0,19.9468,306,5,
73.6715,5.45868,19.9158,0,19.9468,306,5,
73.6716,5.45868,19.9173,0,19.9468,306,5,
73.6716,5.45532,19.9173,0,19.9468,306,5,
73.6716,5.45349,19.9142,0,19.9468,306,5,
73.6717,5.45441,19.9173,0,19.9468,306,5,
73.6717,5.4538,19.9158,0,19.9468,306,5,
73.6717,5.45319,19.9188,0,19.9468,306,5,
73.6718,5.45349,19.9188,0,19.9468,306,5,
73.6718,5.45349,19.9127,0,19.9468,306,5,
73.6718,5.4538,19.9188,0,19.9468,306,5,
73.6719,5.4538,19.9158,0,19.9468,306,5,
73.6719,5.45197,19.9158,0,19.9468,306,5,
73.6719,5.44952,19.9173,0,19.9468,306,5,
73.672,5.448,19.9204,0,19.9468,306,5,
73.672,5.44922,19.9158,0,19.9468,306,5,
73.672,5.4483,19.9204,0,19.9468,306,5,
73.6721,5.44891,19.9158,0,19.9468,306,5,
73.6721,5.44952,19.9188,0,19.9468,306,5,
73.6721,5.4483,19.9188,0,19.9468,306,5,
73.6722,5.44861,19.9142,0,19.9468,306,5,
73.6722,5.44403,19.9173,0,19.9468,306,5,
73.6722,5.44403,19.9188,0,19.9468,306,5,
73.6723,5.44434,19.9188,0,19.9468,306,5,
73.6723,5.44434,19.9173,0,19.9468,306,5,
73.6723,5.44464,19.9188,0,19.9468,306,5,
73.6724,5.44434,19.9173,0,19.9468,306,5,
73.6724,5.44495,19.9112,0,19.9468,306,5,
73.6724,5.44037,19.9158,0,19.9468,306,5,
73.6725,5.43976,19.9142,0,19.9468,306,5,
73.6725,5.43976,19.9158,0,19.9468,306,5,
73.6725,5.43976,19.9173,0,19.9468,306,5,
73.6726,5.43854,19.9188,0,19.9468,306,5,
73.6726,5.43884,19.9173,0,19.9468,306,5,
73.6726,5.43945,19.9188,0,19.9468,306,5,
73.6727,5.43732,19.9173,0,19.9468,306,5,
73.6727,5.43518,19.9173,0,19.9468,306,5,
73.6727,5.43457,19.9204,0,19.9468,306,5,
73.6728,5.43488,19.9188,0,19.9468,306,5,
73.6728,5.43457,19.9188,0,19.9468,306,5,
73.6728,5.43457,19.9173,0,19.9468,306,5,
73.6729,5.43427,19.9142,0,19.9468,306,5,
73.6729,5.43243,19.9234,0,19.9468,306,5,
73.6729,5.42877,19.9173,0,19.9468,306,5,
73.673,5.42999,19.9173,0,19.9468,306,5,
73.673,5.42999,19.9127,0,19.9468,306,5,
73.673,5.42999,19.9188,0,19.9468,306,5,
73.6731,5.42969,19.9158,0,19.9468,306,5,
73.6731,5.42969,19.9173,0,19.9468,306,5,
73.6731,5.42542,19.9142,0,19.9468,306,5,
73.6732,5.4245,19.9188,0,19.9468,306,5,
73.6732,5.42389,19.9234,0,19.9468,306,5,
73.6732,5.42419,19.9188,0,19.9468,306,5,
73.6733,5.42389,19.9173,0,19.9468,306,5,
73.6733,5.4245,19.9173,0,19.9468,306,5,
73.6733,5.4245,19.9142,0,19.9468,306,5,
73.6734,5.41992,19.9173,0,19.9468,306,5,
73.6734,5.41901,19.9188,0,19.9468,306,5,
73.6734,5.41962,19.9158,0,19.9468,306,5,
73.6735,5.41992,19.9158,0,19.9468,306,5,
73.6735,5.42053,19.9188,0,19.9468,306,5,
73.6735,5.41992,19.9173,0,19.9468,306,5,
73.6736,5.41595,19.9173,0,19.9468,306,5,
73.6736,5.41534,19.9158,0,19.9468,306,5,
73.6736,5.41443,19.9173,0,19.9468,306,5,
73.6737,5.41443,19.9188,0,19.9468,306,5,
73.6737,5.41504,19.9158,0,19.9468,306,5,
73.6737,5.41473,19.9188,0,19.9468,306,5,
73.6738,5.41504,19.9188,0,19.9468,306,5,
73.6738,5.40955,19.9158,0,19.9468,306,5,
73.6738,5.40924,19.9158,0,19.9468,306,5,
73.6739,5.40924,19.9188,0,19.9468,306,5,
73.6739,5.40985,19.9173,0,19.9468,306,5,
73.6739,5.41046,19.9158,0,19.9468,306,5,
73.674,5.40955,19.9158,0,19.9468,306,5,
73.674,5.40619,19.9158,0,19.9468,306,5,
73.674,5.40527,19.9158,0,19.9468,306,5,
73.6741,5.40527,19.9173,0,19.9468,306,5,
73.6741,5.40466,19.9158,0,19.9468,306,5,
73.6741,5.40497,19.9158,0,19.9468,306,5,
73.6742,5.40497,19.9204,0,19.9468,306,5,
73.6742,5.40283,19.9173,0,19.9468,306,5,
73.6742,5.40039,19.9173,0,19.9468,306,5,
73.6743,5.39978,19.9188,0,19.9468,306,5,
73.6743,5.40039,19.9158,0,19.9468,306,5,
73.6743,5.4007,19.9173,0,19.9468,306,5,
73.6744,5.39978,19.9188,0,19.9468,306,5,
73.6744,5.40009,19.9173,0,19.9468,306,5,
73.6744,5.39612,19.9173,0,19.9468,306,5,
73.6745,5.39459,19.9173,0,19.9468,306,5,
73.6745,5.39551,19.9188,0,19.9468,306,5,
73.6745,5.3952,19.9173,0,19.9468,306,5,
73.6746,5.39551,19.9188,0,19.9468,306,5,
73.6746,5.39581,19.9127,0,19.9468,306,5,
73.6746,5.3949,19.9158,0,19.9468,306,5,
73.6747,5.39093,19.9173,0,19.9468,306,5,
73.6747,5.39001,19.9173,0,19.9468,306,5,
73.6747,5.38971,19.9142,0,19.9468,306,5,
73.6748,5.39062,19.9142,0,19.9468,306,5,
73.6748,5.39093,19.9158,0,19.9468,306,5,
73.6748,5.39062,19.9173,0,19.9468,306,5,
73.6749,5.38818,19.9188,0,19.9468,306,5,
73.6749,5.38605,19.9173,0,19.9468,306,5,
73.6749,5.38544,19.9142,0,19.9468,306,5,
73.675,5.38513,19.9219,0,19.9468,306,5,
73.675,5.38605,19.9173,0,19.9468,306,5,
73.675,5.38513,19.9188,0,19.9468,306,5,
73.6751,5.38513,19.9173,0,19.9468,306,5,
73.6751,5.38361,19.9173,0,19.9468,306,5,
73.6751,5.37994,19.9158,0,19.9468,306,5,
73.6752,5.38055,19.9173,0,19.9468,306,5,
73.6752,5.38025,19.9158,0,19.9468,306,5,
73.6752,5.38116,19.9158,0,19.9468,306,5,
73.6753,5.38116,19.9142,0,19.9468,306,5,
73.6753,5.38025,19.9173,0,19.9468,306,5,
73.6753,5.37842,19.9188,0,19.9468,306,5,
73.6754,5.37537,19.9158,0,19.9468,306,5,
73.6754,5.37506,19.9173,0,19.9468,306,5,
73.6754,5.37506,19.9142,0,19.9468,306,5,
73.6755,5.37476,19.9204,0,19.9468,306,5,
73.6755,5.37506,19.9158,0,19.9468,306,5,
73.6755,5.37537,19.9173,0,19.9468,306,5,
73.6756,5.37537,19.9173,0,19.9468,306,5,
73.6756,5.37048,19.9188,0,19.9468,306,5,
73.6756,5.37048,19.9173,0,19.9468,306,5,
73.6757,5.37048,19.9158,0,19.9468,306,5,
73.6757,5.37018,19.9188,0,19.9468,306,5,
73.6757,5.37018,19.9188,0,19.9468,306,5,
73.6758,5.36987,19.9173,0,19.9468,306,5,
73.6758,5.37048,19.9173,0,19.9468,306,5,
73.6758,5.36652,19.9173,0,19.9468,306,5,
73.6759,5.3656,19.9158,0,19.9468,306,5,
73.6759,5.3656,19.9173,0,19.9468,306,5,
73.6759,5.36591,19.9173,0,19.9468,306,5,
73.676,5.3656,19.9158,0,19.9468,306,5,
73.676,5.3653,19.9158,0,19.9468,306,5,
73.676,5.36621,19.9173,0,19.9468,306,5,
73.6761,5.3653,19.9173,2.774,19.9468,306,5,
73.6761,5.36133,19.9158,2.774,19.9468,306,5,
73.6761,5.36041,19.9158,2.774,19.9468,306,5,
73.6762,5.36133,19.9173,2.774,19.9468,306,5,
73.6762,5.36133,19.9158,2.774,19.9468,306,5,
73.6762,5.36041,19.9158,2.774,19.9468,306,5,
73.6763,5.3598,19.9158,2.774,19.9468,306,5,
73.6763,5.36011,19.9173,2.774,19.9468,306,5,
73.6763,5.36072,19.9142,2.774,19.9468,306,5,
73.6764,5.35553,19.9188,2.774,19.9468,306,5,
73.6764,5.35553,19.9173,2.774,19.9468,306,5,
73.6764,5.35583,19.9173,2.774,19.9468,306,5,
73.6765,5.35522,19.9204,2.774,19.9468,306,5,
73.6765,5.35614,19.9142,2.774,19.9468,306,5,
73.6765,5.35583,19.9188,2.774,19.9468,306,5,
73.6766,5.35553,19.9173,2.774,19.9468,306,5,
73.6766,5.35492,19.9173,2.774,19.9468,306,5,
73.6766,5.35645,19.9204,2.774,19.9468,306,5,
73.6767,5.35095,19.9173,2.774,19.9468,306,5,
73.6767,5.35095,19.9158,2.774,19.9468,306,5,
73.6767,5.34973,19.9188,2.774,19.9468,306,5,
73.6768,5.35004,19.9173,2.774,19.9468,306,5,
73.6768,5.35004,19.9158,2.774,19.9468,306,5,
73.6768,5.35034,19.9173,2.774,19.9468,306,5,
73.6769,5.35065,19.9173,2.774,19.9468,306,5,
73.6769,5.35004,19.9173,2.774,19.9468,306,5,
73.6769,5.35034,19.9158,2.774,19.9468,306,5,
73.677,5.34576,19.9204,2.774,19.9468,306,5,
73.677,5.34668,19.9158,2.774,19.9468,306,5,
73.677,5.34576,19.9188,2.774,19.9468,306,5,
73.6771,5.34576,19.9158,2.774,19.9468,306,5,
73.6771,5.34698,19.9173,2.774,19.9468,306,5,
73.6771,5.34576,19.9188,2.774,19.9468,306,5,
73.6772,5.34607,19.9158,2.774,19.9468,306,5,
73.6772,5.34576,19.9173,2.774,19.9468,306,5,
73.6772,5.34546,19.9173,2.774,19.9468,306,5,
73.6773,5.34668,19.9188,2.774,19.9468,306,5,
73.6773,5.34485,19.9173,2.774,19.9468,306,5,
73.6773,5.34241,19.9204,2.774,19.9468,306,5,
73.6774,5.34119,19.9173,2.774,19.9468,306,5,
73.6774,5.3418,19.9112,2.774,19.9468,306,5,
73.6774,5.3418,19.9219,2.774,19.9468,306,5,
73.6775,5.3418,19.9188,2.774,19.9468,306,5,
73.6775,5.3418,19.9173,2.774,19.9468,306,5,
73.6775,5.3421,19.9188,2.774,19.9468,306,5,
73.6776,5.34119,19.9204,2.774,19.9468,306,5,
73.6776,5.3418,19.9142,2.774,19.9468,306,5,
73.6776,5.34119,19.9173,2.774,19.9468,306,5,
73.6777,5.34149,19.9173,2.774,19.9468,306,5,
73.6777,5.33569,19.9173,2.774,19.9468,306,5,
73.6777,5.33539,19.9158,2.774,19.9468,306,5,
73.6778,5.3363,19.9158,2.774,19.9468,306,5,
73.6778,5.33691,19.9173,2.774,19.9468,306,5,
73.6778,5.3363,19.9173,2.774,19.9468,306,5,
73.6779,5.33539,19.9188,2.774,19.9468,306,5,
73.6779,5.33569,19.9158,2.774,19.9468,306,5,
73.6779,5.336,19.9188,2.774,19.9468,306,5,
73.678,5.336,19.9158,2.774,19.9468,306,5,
73.678,5.336,19.9188,2.774,19.9468,306,5,
73.678,5.336,19.9097,2.774,19.9468,306,5,
73.6781,5.33539,19.9036,2.774,19.9468,306,5,
73.6781,5.33081,19.9051,2.774,19.9468,306,5,
73.6781,5.33051,19.9051,2.774,19.9468,306,5,
73.6782,5.33112,19.9081,2.774,19.9468,306,5,
73.6782,5.33112,19.9036,2.774,19.9468,306,5,
73.6782,5.3302,19.9066,2.774,19.9468,306,5,
73.6783,5.33142,19.9081,2.774,19.9468,306,5,
73.6783,5.33081,19.9051,2.774,19.9468,306,5,
73.6783,5.33081,19.9051,2.774,19.9468,306,5,
73.6784,5.33112,19.9051,2.774,19.9468,306,5,
73.6784,5.33081,19.9051,2.774,19.9468,306,5,
73.6784,5.33112,19.9005,2.774,19.9468,306,5,
73.6785,5.33203,19.9005,2.774,19.9468,306,5,
73.6785,5.33203,19.9066,2.774,19.9468,306,5,
73.6785,5.33112,19.9051,2.774,19.9468,306,5,
73.6786,5.32654,19.9051,2.774,19.9468,306,5,
73.6786,5.32715,19.9051,2.774,19.9468,306,5,
73.6786,5.32715,19.9051,2.774,19.9468,306,5,
73.6787,5.32593,19.9066,2.774,19.9468,306,5,
73.6787,5.32623,19.9036,2.774,19.9468,306,5,
73.6787,5.32654,19.902,2.774,19.9468,306,5,
73.6788,5.32623,19.9051,2.774,19.9468,306,5,
73.6788,5.32593,19.9051,2.774,19.9468,306,5,
73.6788,5.32654,19.9081,2.774,19.9468,306,5,
73.6789,5.32623,19.9036,2.774,19.9468,306,5,
73.6789,5.32562,19.9051,2.774,19.9468,306,5,
73.6789,5.32593,19.9066,2.774,19.9468,306,5,
73.679,5.32654,19.902,2.774,19.9468,306,5,
73.679,5.32715,19.9051,2.774,19.9468,306,5,
73.679,5.32623,19.9066,2.774,19.9468,306,5,
73.6791,5.32379,19.902,2.774,19.9468,306,5,
73.6791,5.32135,19.9081,2.774,19.9468,306,5,
73.6791,5.32166,19.9066,2.774,19.9468,306,5,
73.6792,5.32104,19.9066,2.774,19.9468,306,5,
73.6792,5.32104,19.9051,2.774,19.9468,306,5,
73.6792,5.32227,19.9051,2.774,19.9468,306,5,
73.6793,5.32104,19.9066,2.774,19.9468,306,5,
73.6793,5.32135,19.9066,2.774,19.9468,306,5,
73.6793,5.32104,19.902,2.774,19.9468,306,5,
73.6794,5.32104,19.9081,2.774,19.9468,306,5,
73.6794,5.32104,19.902,2.774,19.9468,306,5,
73.6794,5.32135,19.9051,2.774,19.9468,306,5,
73.6795,5.32074,19.9036,2.774,19.9468,306,5,
73.6795,5.32166,19.9036,2.774,19.9468,306,5,
73.6795,5.32196,19.9066,2.774,19.9468,306,5,
73.6796,5.32074,19.902,2.774,19.9468,306,5,
73.6796,5.32135,19.9051,2.774,19.9468,306,5,
73.6796,5.32166,19.9051,2.774,19.9468,306,5,
73.6797,5.32135,19.9051,2.774,19.9468,306,5,
73.6797,5.31708,19.9036,2.774,19.9468,306,5,
73.6797,5.31677,19.9066,2.774,19.9468,306,5,
73.6798,5.31647,19.9036,2.774,19.9468,306,5,
73.6798,5.31647,19.9051,2.774,19.9468,306,5,
73.6798,5.31586,19.9036,2.774,19.9468,306,5,
73.6799,5.31647,19.9081,2.774,19.9468,306,5,
73.6799,5.31708,19.9036,2.774,19.9468,306,5,
73.6799,5.31616,19.9066,2.774,19.9468,306,5,
73.68,5.31647,19.9036,2.774,19.9468,306,5,
73.68,5.31586,19.9051,2.774,19.9468,306,5,
73.68,5.31586,19.9066,2.774,19.9468,306,5,
73.6801,5.31586,19.902,2.774,19.9468,306,5,
73.6801,5.31616,19.9051,2.774,19.9468,306,5,
73.6801,5.31677,19.9036,2.774,19.9468,306,5,
73.6802,5.31647,19.9051,2.774,19.9468,306,5,
73.6802,5.31647,19.902,2.774,19.9468,306,5,
73.6802,5.31677,19.9066,2.774,19.9468,306,5,
73.6803,5.31677,19.9066,2.774,19.9468,306,5,
73.6803,5.31647,19.9081,2.774,19.9468,306,5,
73.6803,5.31647,19.902,2.774,19.9468,306,5,
73.6804,5.31586,19.8929,2.774,19.9468,306,5,
73.6804,5.31616,19.8914,2.774,19.9468,306,5,
73.6804,5.31494,19.8929,2.774,19.9468,306,5,
73.6805,5.31189,19.8929,2.774,19.9468,306,5,
73.6805,5.31189,19.8914,2.774,19.9468,306,5,
73.6805,5.31158,19.8914,2.774,19.9468,306,5,
73.6806,5.31189,19.8914,2.774,19.9468,306,5,
73.6806,5.3125,19.8914,2.774,19.9468,306,5,
73.6806,5.31189,19.8914,2.774,19.9468,306,5,
73.6807,5.31097,19.8929,2.774,19.9468,306,5,
73.6807,5.31158,19.8929,2.774,19.9468,306,5,
73.6807,5.31158,19.8914,2.774,19.9468,306,5,
73.6808,5.31219,19.8929,2.774,19.9468,306,5,
73.6808,5.31158,19.8914,2.774,19.9468,306,5,
73.6808,5.31158,19.8914,2.774,19.9468,306,5,
73.6809,5.31189,19.8898,2.774,19.9468,306,5,
73.6809,5.31219,19.8914,2.774,19.9468,306,5,
73.6809,5.31189,19.8898,2.774,19.9468,306,5,
73.681,5.31189,19.8944,2.774,19.9468,306,5,
73.681,5.31128,19.8914,2.774,19.9468,306,5,
73.681,5.31158,19.8975,2.774,19.9468,306,5,
73.6811,5.31189,19.8929,2.774,19.9468,306,5,
73.6811,5.31219,19.8944,2.774,19.9468,306,5,
73.6811,5.31158,19.8914,2.774,19.9468,306,5,
73.6812,5.31128,19.8914,2.774,19.9468,306,5,
73.6812,5.3125,19.8944,2.774,19.9468,306,5,
73.6812,5.31189,19.8944,2.774,19.9468,306,5,
73.6813,5.31158,19.8914,2.774,19.9468,306,5,
73.6813,5.31158,19.8914,2.774,19.9468,306,5,
73.6813,5.31189,19.8944,2.774,19.9468,306,5,
73.6814,5.31158,19.8929,2.774,19.9468,306,5,
73.6814,5.31158,19.8944,2.774,19.9468,306,5,
73.6814,5.31219,19.8914,2.774,19.9468,306,5,
73.6815,5.31189,19.8914,2.774,19.9468,306,5,
73.6815,5.3064,19.8959,2.774,19.9468,306,5,
73.6815,5.30731,19.8883,2.774,19.9468,306,5,
73.6816,5.30701,19.8944,2.774,19.9468,306,5,
73.6816,5.3064,19.8929,2.774,19.9468,306,5,
73.6816,5.30762,19.8929,2.774,19.9468,306,5,
73.6817,5.30701,19.8959,2.774,19.9468,306,5,
73.6817,5.3067,19.8959,2.774,19.9468,306,5,
73.6817,5.30701,19.8883,2.774,19.9468,306,5,
73.6818,5.30762,19.8914,2.774,19.9468,306,5,
73.6818,5.3067,19.8914,2.774,19.9468,306,5,
73.6818,5.30701,19.8898,2.774,19.9468,306,5,
73.6819,5.30762,19.8929,2.774,19.9468,306,5,
73.6819,5.30701,19.8914,2.774,19.9468,306,5,
73.6819,5.3067,19.8914,2.774,19.9468,306,5,
73.682,5.3067,19.8929,2.774,19.9468,306,5,
73.682,5.30731,19.8776,2.774,19.9468,306,5,
73.682,5.3067,19.8822,2.774,19.9468,306,5,
73.6821,5.3067,19.8807,2.774,19.9468,306,5,
73.6821,5.30731,19.8807,2.774,19.9468,306,5,
73.6821,5.3067,19.8761,2.774,19.9468,306,5,
73.6822,5.30701,19.8792,2.774,19.9468,306,5,
73.6822,5.3067,19.8822,2.774,19.9468,306,5,
73.6822,5.30609,19.8822,2.774,19.9468,306,5,
73.6823,5.30701,19.8776,2.774,19.9468,306,5,
73.6823,5.30701,19.8807,2.774,19.9468,306,5,
73.6823,5.30701,19.8807,2.774,19.9468,306,5,
73.6824,5.3064,19.8807,2.774,19.9468,306,5,
73.6824,5.3064,19.8807,2.774,19.9468,306,5,
73.6824,5.3067,19.8822,2.774,19.9468,306,5,
73.6825,5.3064,19.8822,2.774,19.9468,306,5,
73.6825,5.30762,19.8807,2.774,19.9468,306,5,
73.6825,5.30701,19.8807,2.774,19.9468,306,5,
73.6826,5.30701,19.8776,2.774,19.9468,306,5,
73.6826,5.3067,19.8792,2.774,19.9468,306,5,
73.6826,5.3067,19.8792,2.774,19.9468,306,5,
73.6827,5.30701,19.8807,2.774,19.9468,306,5,
73.6827,5.30731,19.8792,2.774,19.9468,306,5,
73.6827,5.30701,19.8792,2.774,19.9468,306,5,
73.6828,5.3064,19.8792,2.774,19.9468,306,5,
73.6828,5.30701,19.8792,2.774,19.9468,306,5,
73.6828,5.3067,19.8822,2.774,19.9468,306,5,
73.6829,5.30273,19.8792,2.774,19.9468,306,5,
73.6829,5.30212,19.8776,2.774,19.9468,306,5,
73.6829,5.30182,19.8776,2.774,19.9468,306,5,
73.683,5.30212,19.8792,2.774,19.9468,306,5,
73.683,5.30182,19.8807,2.774,19.9468,306,5,
73.683,5.30151,19.8776,2.774,19.9468,306,5,
73.6831,5.30182,19.8822,2.774,19.9468,306,5,
73.6831,5.30212,19.8776,2.774,19.9468,306,5,
73.6831,5.30212,19.8807,2.774,19.9468,306,5,
73.6832,5.30151,19.8807,2.774,19.9468,306,5,
73.6832,5.30243,19.8837,2.774,19.9468,306,5,
73.6832,5.30151,19.8776,2.774,19.9468,306,5,
73.6833,5.3009,19.8822,2.774,19.9468,306,5,
73.6833,5.30182,19.8792,2.774,19.9468,306,5,
73.6833,5.30273,19.8822,2.774,19.9468,306,5,
73.6834,5.30182,19.87,2.774,19.9468,306,5,
73.6834,5.30212,19.87,2.774,19.9468,306,5,
73.6834,5.30212,19.8685,2.774,19.9468,306,5,
73.6835,5.30182,19.87,2.774,19.9468,306,5,
73.6835,5.30212,19.8715,2.774,19.9468,306,5,
73.6835,5.30212,19.8669,2.774,19.9468,306,5,
73.6836,5.30182,19.8669,2.774,19.9468,306,5,
73.6836,5.30273,19.8669,2.774,19.9468,306,5,
73.6836,5.30212,19.8685,2.774,19.9468,306,5,
73.6837,5.30243,19.8685,2.774,19.9468,306,5,
73.6837,5.30121,19.8669,2.774,19.9468,306,5,
73.6837,5.30243,19.8669,2.774,19.9468,306,5,
73.6838,5.30182,19.8685,2.774,19.9468,306,5,
73.6838,5.30212,19.8685,2.774,19.9468,306,5,
73.6838,5.30182,19.8639,2.774,19.9468,306,5,
73.6839,5.30212,19.8685,2.774,19.9468,306,5,
73.6839,5.30212,19.87,2.774,19.9468,306,5,
73.6839,5.30151,19.8669,2.774,19.9468,306,5,
73.684,5.30212,19.87,2.774,19.9468,306,5,
73.684,5.30151,19.8639,2.774,19.9468,306,5,
73.684,5.30212,19.8685,2.774,19.9468,306,5,
73.6841,5.30212,19.8654,2.774,19.9468,306,5,
73.6841,5.30182,19.87,2.774,19.9468,306,5,
73.6841,5.30182,19.87,2.774,19.9468,306,5,
73.6842,5.30182,19.8685,2.774,19.9468,306,5,
73.6842,5.30212,19.8669,2.774,19.9468,306,5,
73.6842,5.3009,19.87,2.774,19.9468,306,5,
73.6843,5.30182,19.8685,2.774,19.9468,306,5,
73.6843,5.30212,19.87,2.774,19.9468,306,5,
73.6843,5.30243,19.8685,2.774,19.9468,306,5,
73.6844,5.3009,19.8715,2.774,19.9468,306,5,
73.6844,5.30212,19.8669,2.774,19.9468,306,5,
73.6844,5.30243,19.8715,2.774,19.9468,306,5,
73.6845,5.30212,19.8685,2.774,19.9468,306,5,
73.6845,5.30182,19.8669,2.774,19.9468,306,5,
73.6845,5.30212,19.8578,2.774,19.9468,306,5,
73.6846,5.30243,19.8547,2.774,19.9468,306,5,
73.6846,5.30273,19.8578,2.774,19.9468,306,5,
73.6846,5.30762,19.8547,2.774,19.9468,306,5,
73.6847,5.3067,19.8547,2.774,19.9468,306,5,
73.6847,5.30701,19.8563,2.774,19.9468,306,5,
73.6847,5.3064,19.8578,2.774,19.9468,306,5,
73.6848,5.30731,19.8547,2.774,19.9468,306,5,
73.6848,5.30701,19.8532,2.774,19.9468,306,5,
73.6848,5.30731,19.8578,2.774,19.9468,306,5,
73.6849,5.30701,19.8547,2.774,19.9468,306,5,
73.6849,5.3067,19.8563,2.774,19.9468,306,5,
73.6849,5.3067,19.8563,2.774,19.9468,306,5,
73.685,5.30701,19.8547,2.774,19.9468,306,5,
73.685,5.30731,19.8563,2.774,19.9468,306,5,
73.685,5.30762,19.8578,2.774,19.9468,306,5,
73.6851,5.30701,19.8578,2.774,19.9468,306,5,
73.6851,5.3064,19.8563,2.774,19.9468,306,5,
73.6851,5.30731,19.8547,2.774,19.9468,306,5,
73.6852,5.30914,19.8547,2.774,19.9468,306,5,
73.6852,5.31219,19.8547,2.774,19.9468,306,5,
73.6852,5.31128,19.8563,2.774,19.9468,306,5,
73.6853,5.31219,19.8547,2.774,19.9468,306,5,
73.6853,5.31219,19.8547,2.774,19.9468,306,5,
73.6853,5.31158,19.8563,2.774,19.9468,306,5,
73.6854,5.31067,19.8578,2.774,19.9468,306,5,
73.6854,5.31158,19.8532,2.774,19.9468,306,5,
73.6854,5.31158,19.8532,2.774,19.9468,306,5,
73.6855,5.31189,19.8547,2.774,19.9468,306,5,
73.6855,5.31372,19.8578,2.774,19.9468,306,5,
73.6855,5.31677,19.8532,2.774,19.9468,306,5,
73.6856,5.31616,19.8532,2.774,19.9468,306,5,
73.6856,5.31677,19.8502,2.774,19.9468,306,5,
73.6856,5.31647,19.841,2.774,19.9468,306,5,
73.6857,5.31647,19.8441,2.774,19.9468,306,5,
73.6857,5.31647,19.8441,2.774,19.9468,306,5,
73.6857,5.31616,19.8456,2.774,19.9468,306,5,
73.6858,5.31799,19.8425,2.774,19.9468,306,5,
73.6858,5.32166,19.8471,2.774,19.9468,306,5,
73.6858,5.32074,19.8471,2.774,19.9468,306,5,
73.6859,5.32104,19.8456,2.774,19.9468,306,5,
73.6859,5.32104,19.8471,2.774,19.9468,306,5,
73.6859,5.32166,19.8456,2.774,19.9468,306,5,
73.686,5.32135,19.841,2.774,19.9468,306,5,
73.686,5.32532,19.8441,2.774,19.9468,306,5,
73.686,5.32654,19.8441,2.774,19.9468,306,5,
73.6861,5.32593,19.8441,2.774,19.9468,306,5,
73.6861,5.32623,19.8471,2.774,19.9468,306,5,
73.6861,5.32654,19.8425,2.774,19.9468,306,5,
73.6862,5.32593,19.8456,2.774,19.9468,306,5,
73.6862,5.32867,19.8441,2.774,19.9468,306,5,
73.6862,5.33081,19.8441,2.774,19.9468,306,5,
73.6863,5.33112,19.8471,2.774,19.9468,306,5,
73.6863,5.33081,19.8395,2.774,19.9468,306,5,
73.6863,5.33112,19.8425,2.774,19.9468,306,5,
73.6864,5.33081,19.8456,2.774,19.9468,306,5,
73.6864,5.33569,19.8395,2.774,19.9468,306,5,
73.6864,5.33569,19.8425,2.774,19.9468,306,5,
73.6865,5.33569,19.8441,2.774,19.9468,306,5,
73.6865,5.33691,19.8334,2.774,19.9468,306,5,
73.6865,5.33691,19.8288,2.774,19.9468,306,5,
73.6866,5.33813,19.8303,2.774,19.9468,306,5,
73.6866,5.34058,19.8318,2.774,19.9468,306,5,
73.6866,5.34058,19.8318,2.774,19.9468,306,5,
73.6867,5.34027,19.8288,2.774,19.9468,306,5,
73.6867,5.34119,19.8334,2.774,19.9468,306,5,
73.6867,5.34088,19.8303,2.774,19.9468,306,5,
73.6868,5.34637,19.8318,2.774,19.9468,306,5,
73.6868,5.34546,19.8318,2.774,19.9468,306,5,
73.6868,5.34607,19.8364,2.774,19.9468,306,5,
73.6869,5.34576,19.8334,2.774,19.9468,306,5,
73.6869,5.34851,19.8318,2.774,19.9468,306,5,
73.6869,5.35065,19.8303,2.774,19.9468,306,5,
73.687,5.35095,19.8318,2.774,19.9468,306,5,
73.687,5.35187,19.8318,2.774,19.9468,306,5,
73.687,5.35095,19.8318,2.774,19.9468,306,5,
73.6871,5.35492,19.8303,2.774,19.9468,306,5,
73.6871,5.35675,19.8303,2.774,19.9468,306,5,
73.6871,5.35614,19.8303,2.774,19.9468,306,5,
73.6872,5.35614,19.8212,2.774,19.9468,306,5,
73.6872,5.35645,19.8181,2.774,19.9468,306,5,
73.6872,5.36163,19.8196,2.774,19.9468,306,5,
73.6873,5.36163,19.8212,2.774,19.9468,306,5,
73.6873,5.36102,19.8181,2.774,19.9468,306,5,
73.6873,5.36102,19.8212,2.774,19.9468,306,5,
73.6874,5.36652,19.8196,2.774,19.9468,306,5,
73.6874,5.36652,19.8212,2.774,19.9468,306,5,
73.6874,5.36652,19.8196,2.774,19.9468,306,5,
73.6875,5.36652,19.8196,2.774,19.9468,306,5,
73.6875,5.36804,19.8166,2.774,19.9468,306,5,
73.6875,5.3714,19.8196,2.774,19.9468,306,5,
73.6876,5.37048,19.8212,2.774,19.9468,306,5,
73.6876,5.37109,19.8181,2.774,19.9468,306,5,
73.6876,5.36987,19.8181,2.774,17.4014,306,5,
73.6877,5.37506,19.8196,2.774,17.4014,306,5,
73.6877,5.37506,19.8181,2.774,17.4014,306,5,
73.6877,5.37506,19.8196,2.774,17.4014,306,5,
73.6878,5.37476,19.8212,2.774,17.4014,306,5,
73.6878,5.37964,19.8212,2.774,17.4014,306,5,
73.6878,5.37994,19.8151,2.774,17.4014,306,5,
73.6879,5.37994,19.8074,2.774,17.4014,306,5,
73.6879,5.38086,19.8044,2.774,17.4014,306,5,
73.6879,5.38452,19.8059,2.774,17.4014,306,5,
73.688,5.38513,19.8074,2.774,17.4014,306,5,
73.688,5.38574,19.8074,2.774,17.4014,306,5,
73.688,5.38574,19.8044,2.774,17.4014,306,5,
73.6881,5.39001,19.809,2.774,17.4014,306,5,
73.6881,5.39001,19.8074,2.774,17.4014,306,5,
73.6881,5.38971,19.8059,2.774,17.4014,306,5,
73.6882,5.3894,19.8074,2.774,17.4014,306,5,
73.6882,5.39459,19.8029,2.774,17.4014,306,5,
73.6882,5.3949,19.8074,2.774,17.4014,306,5,
73.6883,5.39459,19.8044,2.774,17.4014,306,5,
73.6883,5.3949,19.8044,2.774,17.4014,306,5,
73.6883,5.39948,19.8074,2.774,17.4014,306,5,
73.6884,5.39917,19.8074,2.774,17.4014,306,5,
73.6884,5.39948,19.8044,2.774,17.4014,306,5,
73.6884,5.40009,19.8059,2.774,17.4014,306,5,
73.6885,5.40497,19.8059,2.774,17.4014,306,5,
73.6885,5.40405,19.8059,2.774,17.4014,306,5,
73.6885,5.40497,19.8074,2.774,17.4014,306,5,
73.6886,5.40527,19.8059,2.774,17.4014,306,5,
73.6886,5.40924,19.8074,2.774,17.4014,306,5,
73.6886,5.40955,19.8074,2.774,17.4014,306,5,
73.6887,5.40955,19.7952,2.774,17.4014,306,5,
73.6887,5.40985,19.7952,2.774,17.4014,306,5,
73.6887,5.41382,19.7937,2.774,17.4014,306,5,
73.6888,5.41504,19.7952,2.774,17.4014,306,5,
73.6888,5.41443,19.7937,2.774,17.4014,306,5,
73.6888,5.41473,19.7952,2.774,17.4014,306,5,
73.6889,5.41962,19.7937,2.774,17.4014,306,5,
73.6889,5.41931,19.7952,2.774,17.4014,306,5,
73.6889,5.41931,19.7922,2.774,17.4014,306,5,
73.689,5.42175,19.7937,2.774,17.4014,306,5,
73.689,5.42511,19.7952,2.774,17.4014,306,5,
73.689,5.42389,19.7952,2.774,17.4014,306,5,
73.6891,5.4245,19.7937,2.774,17.4014,306,5,
73.6891,5.42694,19.7952,2.774,17.4014,306,5,
73.6891,5.42908,19.7952,2.774,17.4014,306,5,
73.6892,5.42999,19.7952,2.774,17.4014,306,5,
73.6892,5.42999,19.7937,2.774,17.4014,306,5,
73.6892,5.43152,19.7952,2.774,17.4014,306,5,
73.6893,5.43457,19.7937,2.774,17.4014,306,5,
73.6893,5.43457,19.7952,2.774,17.4014,306,5,
73.6893,5.43457,19.7922,2.774,17.4014,306,5,
73.6894,5.4361,19.7937,2.774,17.4014,306,5,
73.6894,5.43854,19.7922,2.774,17.4014,306,5,
73.6894,5.43884,19.7968,2.774,17.4014,306,5,
73.6895,5.43976,19.7952,2.774,17.4014,306,5,
73.6895,5.43945,19.7907,2.774,17.4014,306,5,
73.6895,5.44373,19.7922,2.774,17.4014,306,5,
73.6896,5.44373,19.78,2.774,17.4014,306,5,
73.6896,5.44403,19.7845,2.774,17.4014,306,5,
73.6896,5.44373,19.7815,2.774,17.4014,306,5,
73.6897,5.44983,19.783,2.774,17.4014,306,5,
73.6897,5.44952,19.783,2.774,17.4014,306,5,
73.6897,5.44952,19.7815,2.774,17.4014,306,5,
73.6898,5.44861,19.78,2.774,17.4014,306,5,
73.6898,5.45349,19.7784,2.774,17.4014,306,5,
73.6898,5.45349,19.7815,2.774,17.4014,306,5,
73.6899,5.4538,19.7815,2.774,17.4014,306,5,
73.6899,5.45441,19.783,2.774,17.4014,306,5,
73.6899,5.45685,19.7845,2.774,17.4014,306,5,
73.69,5.45898,19.783,2.774,17.4014,306,5,
73.69,5.45929,19.7815,2.774,17.4014,306,5,
73.69,5.45898,19.7815,2.774,17.4014,306,5,
73.6901,5.45898,19.783,2.774,17.4014,306,5,
73.6901,5.46417,19.7815,2.774,17.4014,306,5,
73.6901,5.46387,19.7815,2.774,17.4014,306,5,
73.6902,5.46326,19.7784,2.774,17.4014,306,5,
73.6902,5.46326,19.7861,2.774,17.4014,306,5,
73.6902,5.46753,19.7815,2.774,17.4014,306,5,
73.6903,5.46814,19.7815,2.774,17.4014,306,5,
73.6903,5.46844,19.783,2.774,17.4014,306,5,
73.6903,5.46936,19.7815,2.774,17.4014,306,5,
73.6904,5.46814,19.7815,2.774,17.4014,306,5,
73.6904,5.47333,19.7845,2.774,17.4014,306,5,
73.6904,5.47363,19.78,2.774,17.4014,306,5,
73.6905,5.47394,19.78,2.774,17.4014,306,5,
73.6905,5.47333,19.7708,2.774,17.4014,306,5,
73.6905,5.47577,19.7708,2.774,17.4014,306,5,
73.6906,5.47852,19.7693,2.774,17.4014,306,5,
73.6906,5.47791,19.7662,2.774,17.4014,306,5,
73.6906,5.47791,19.7693,2.774,17.4014,306,5,
73.6907,5.47882,19.7693,2.774,17.4014,306,5,
73.6907,5.48248,19.7708,2.774,17.4014,306,5,
73.6907,5.4834,19.7723,2.774,17.4014,306,5,
73.6908,5.48401,19.7678,2.774,17.4014,306,5,
73.6908,5.4834,19.7693,2.774,17.4014,306,5,
73.6908,5.48401,19.7739,2.774,17.4014,306,5,
73.6909,5.48767,19.7678,2.774,17.4014,306,5,
73.6909,5.48737,19.7693,2.774,17.4014,306,5,
73.6909,5.48798,19.7708,2.774,17.4014,306,5,
73.691,5.48828,19.7693,2.774,17.4014,306,5,
73.691,5.48859,19.7678,2.774,17.4014,306,5,
73.691,5.49286,19.7662,2.774,17.4014,306,5,
73.6911,5.49225,19.7693,2.774,17.4014,306,5,
73.6911,5.49316,19.7693,2.774,17.4014,306,5,
73.6911,5.49347,19.7662,2.774,17.4014,306,5,
73.6912,5.49255,19.7693,2.774,17.4014,306,5,
73.6912,5.49744,19.7693,2.774,17.4014,306,5,
73.6912,5.49835,19.7723,2.774,17.4014,306,5,
73.6913,5.49774,19.7678,2.774,17.4014,306,5,
73.6913,5.49744,19.7708,2.774,17.4014,306,5,
73.6913,5.50018,19.7693,2.774,17.4014,306,5,
73.6914,5.50323,19.7693,2.774,17.4014,306,5,
73.6914,5.50232,19.7678,2.774,17.4014,306,5,
73.6914,5.50293,19.7662,2.774,17.4014,306,5,
73.6915,5.50262,19.7708,2.774,17.4014,306,5,
73.6915,5.50446,19.7632,2.774,17.4014,306,5,
73.6915,5.5072,19.7586,2.774,17.4014,306,5,
73.6916,5.50751,19.7571,2.774,17.4014,306,5,
73.6916,5.50842,19.7586,2.774,17.4014,306,5,
73.6916,5.50781,19.7586,2.774,17.4014,306,5,
73.6917,5.50995,19.7571,2.774,17.4014,306,5,
73.6917,5.513,19.7586,2.774,17.4014,306,5,
73.6917,5.5127,19.7556,2.774,17.4014,306,5,
73.6918,5.513,19.754,2.774,17.4014,306,5,
73.6918,5.51239,19.7571,2.774,17.4014,306,5,
73.6918,5.51208,19.7571,2.774,17.4014,306,5,
73.6919,5.51788,19.7571,2.774,17.4014,306,5,
73.6919,5.51727,19.7571,2.774,17.4014,306,5,
73.6919,5.51697,19.7586,2.774,17.4014,306,5,
73.692,5.51758,19.7556,2.774,17.4014,306,5,
73.692,5.51636,19.7601,2.774,17.4014,306,5,
73.692,5.52307,19.7586,2.774,17.4014,306,5,
73.6921,5.52216,19.7571,2.774,17.4014,306,5,
73.6921,5.52246,19.7617,2.774,17.4014,306,5,
73.6921,5.52246,19.7571,2.774,17.4014,306,5,
73.6922,5.52307,19.7571,2.774,17.4014,306,5,
73.6922,5.52704,19.7556,2.774,17.4014,306,5,
73.6922,5.52734,19.7571,2.774,17.4014,306,5,
73.6923,5.52765,19.7586,2.774,17.4014,306,5,
73.6923,5.52673,19.7601,2.774,17.4014,306,5,
73.6923,5.52734,19.7601,2.774,17.4014,306,5,
73.6924,5.53223,19.7556,2.774,17.4014,306,5,
73.6924,5.53223,19.7479,2.774,17.4014,306,5,
73.6924,5.53223,19.7449,2.774,17.4014,306,5,
73.6925,5.53162,19.7449,2.774,17.4014,306,5,
73.6925,5.53192,19.7433,2.774,17.4014,306,5,
73.6925,5.53741,19.7449,2.774,17.4014,306,5,
73.6926,5.53772,19.7418,2.774,17.4014,306,5,
73.6926,5.53741,19.7449,2.774,17.4014,306,5,
73.6926,5.53741,19.7433,2.774,17.4014,306,5,
73.6927,5.5368,19.7449,2.774,17.4014,306,5,
73.6927,5.54199,19.7495,2.774,17.4014,306,5,
73.6927,5.54199,19.7418,2.774,17.4014,306,5,
73.6928,5.54199,19.7464,2.774,17.4014,306,5,
73.6928,5.5423,19.7433,2.774,17.4014,306,5,
73.6928,5.54199,19.7449,2.774,17.4014,306,5,
73.6929,5.54657,19.7449,2.774,17.4014,306,5,
73.6929,5.54718,19.7433,2.774,17.4014,306,5,
73.6929,5.54657,19.7449,2.774,17.4014,306,5,
73.693,5.54718,19.7433,2.774,17.4014,306,5,
73.693,5.54688,19.7418,2.774,17.4014,306,5,
73.693,5.55054,19.7449,2.774,17.4014,306,5,
73.6931,5.55237,19.7479,2.774,17.4014,306,5,
73.6931,5.55145,19.7433,2.774,17.4014,306,5,
73.6931,5.55206,19.7449,2.774,17.4014,306,5,
73.6932,5.55206,19.7433,2.774,17.4014,306,5,
73.6932,5.55206,19.7418,2.774,17.4014,306,5,
73.6932,5.55725,19.7449,2.774,17.4014,306,5,
73.6933,5.55695,19.7418,2.774,17.4014,306,5,
73.6933,5.55725,19.7342,2.774,17.4014,306,5,
73.6933,5.55664,19.7311,2.774,17.4014,306,5,
73.6934,5.55725,19.7311,2.774,17.4014,306,5,
73.6934,5.56152,19.7342,2.774,17.4014,306,5,
73.6934,5.56213,19.7327,2.774,17.4014,306,5,
73.6935,5.56183,19.7342,2.774,17.4014,306,5,
73.6935,5.56183,19.7357,2.774,17.4014,306,5,
73.6935,5.56152,19.7342,2.774,17.4014,306,5,
73.6936,5.5658,19.7311,2.774,17.4014,306,5,
73.6936,5.56671,19.7311,2.774,17.4014,306,5,
73.6936,5.56641,19.7327,2.774,17.4014,306,5,
73.6937,5.56671,19.7327,2.774,17.4014,306,5,
73.6937,5.56641,19.7342,2.774,17.4014,306,5,
73.6937,5.56671,19.7311,2.774,17.4014,306,5,
73.6938,5.57129,19.7296,2.774,17.4014,306,5,
73.6938,5.57129,19.7342,2.774,17.4014,306,5,
73.6938,5.57129,19.7357,2.774,17.4014,306,5,
73.6939,5.57098,19.7342,2.774,17.4014,306,5,
73.6939,5.57129,19.7357,2.774,17.4014,306,5,
73.6939,5.57648,19.7311,2.774,17.4014,306,5,
73.694,5.57678,19.7342,2.774,17.4014,306,5,
73.694,5.57648,19.7311,2.774,17.4014,306,5,
73.694,5.57648,19.7342,2.774,17.4014,306,5,
73.6941,5.57678,19.7311,2.774,17.4014,306,5,
73.6941,5.58044,19.7357,2.774,17.4014,306,5,
73.6941,5.58167,19.7327,2.774,17.4014,306,5,
73.6942,5.58167,19.7311,2.774,17.4014,306,5,
73.6942,5.58136,19.722,2.774,17.4014,306,5,
73.6942,5.58167,19.7205,2.774,17.4014,306,5,
73.6943,5.58319,19.7205,2.774,17.4014,306,5,
73.6943,5.58624,19.7159,2.774,17.4014,306,5,
73.6943,5.58655,19.7205,2.774,17.4014,306,5,
73.6944,5.58655,19.7205,2.774,17.4014,306,5,
73.6944,5.58594,19.7189,2.774,17.4014,306,5,
73.6944,5.58716,19.7205,2.774,17.4014,306,5,
73.6945,5.59143,19.7174,2.774,17.4014,306,5,
73.6945,5.59113,19.7205,2.774,17.4014,306,5,
73.6945,5.59082,19.7189,2.774,17.4014,306,5,
73.6946,5.59113,19.725,2.774,17.4014,306,5,
73.6946,5.59143,19.7189,2.774,17.4014,306,5,
73.6946,5.5957,19.7189,2.774,17.4014,306,5,
73.6947,5.5957,19.7235,2.774,17.4014,306,5,
73.6947,5.59601,19.7205,2.774,17.4014,306,5,
73.6947,5.59662,19.722,2.774,17.4014,306,5,
73.6948,5.59601,19.7189,2.774,17.4014,306,5,
73.6948,5.60089,19.7159,2.774,17.4014,306,5,
73.6948,5.60089,19.7205,2.774,17.4014,306,5,
73.6949,5.6012,19.7174,2.774,17.4014,306,5,
73.6949,5.60089,19.7189,2.774,17.4014,306,5,
73.6949,5.6012,19.7205,2.774,17.4014,306,5,
73.695,5.60333,19.7205,2.774,17.4014,306,5,
73.695,5.60669,19.7189,2.774,17.4014,306,5,
73.695,5.60608,19.7098,2.774,17.4014,306,5,
73.6951,5.60577,19.7067,2.774,17.4014,306,5,
73.6951,5.60638,19.7067,2.774,17.4014,306,5,
73.6951,5.60822,19.7113,2.774,17.4014,306,5,
73.6952,5.61035,19.7067,2.774,17.4014,306,5,
73.6952,5.61096,19.7052,2.774,17.4014,306,5,
73.6952,5.61035,19.7083,2.774,17.4014,306,5,
73.6953,5.61127,19.7067,2.774,17.4014,306,5,
73.6953,5.61462,19.7067,2.774,17.4014,306,5,
73.6953,5.61615,19.7067,2.774,17.4014,306,5,
73.6954,5.61554,19.7052,2.774,17.4014,306,5,
73.6954,5.61584,19.7083,2.774,17.4014,306,5,
73.6954,5.61523,19.7067,2.774,17.4014,306,5,
73.6955,5.61981,19.7098,2.774,17.4014,306,5,
73.6955,5.61981,19.7067,2.774,17.4014,306,5,
73.6955,5.61951,19.7083,2.774,17.4014,306,5,
73.6956,5.62073,19.7083,2.774,17.4014,306,5,
73.6956,5.62256,19.7113,2.774,17.4014,306,5,
73.6956,5.625,19.7067,2.774,17.4014,306,5,
73.6957,5.62531,19.7083,2.774,17.4014,306,5,
73.6957,5.625,19.7067,2.774,17.4014,306,5,
73.6957,5.625,19.7083,2.774,17.4014,306,5,
73.6958,5.62988,19.7098,2.774,17.4014,306,5,
73.6958,5.6308,19.6915,2.774,17.4014,306,5,
73.6958,5.6308,19.696,2.774,17.4014,306,5,
73.6959,5.62958,19.6991,2.774,17.4014,306,5,
73.6959,5.63263,19.696,2.774,17.4014,306,5,
73.6959,5.63477,19.6991,2.774,17.4014,306,5,
73.696,5.63538,19.6945,2.774,17.4014,306,5,
73.696,5.63507,19.6976,2.774,17.4014,306,5,
73.696,5.63507,19.696,2.774,17.4014,306,5,
73.6961,5.63995,19.6945,2.774,17.4014,306,5,
73.6961,5.64026,19.7006,2.774,17.4014,306,5,
73.6961,5.63995,19.6976,2.774,17.4014,306,5,
73.6962,5.63995,19.696,2.774,17.4014,306,5,
73.6962,5.64545,19.6976,2.774,17.4014,306,5,
73.6962,5.64514,19.6945,2.774,17.4014,306,5,
73.6963,5.64514,19.6945,2.774,17.4014,306,5,
73.6963,5.64514,19.6991,2.774,17.4014,306,5,
73.6963,5.64972,19.6945,2.774,17.4014,306,5,
73.6964,5.65063,19.6976,2.774,17.4014,306,5,
73.6964,5.65002,19.6976,2.774,17.4014,306,5,
73.6964,5.65033,19.6976,2.774,17.4014,306,5,
73.6965,5.6546,19.6991,2.774,17.4014,306,5,
73.6965,5.65521,19.693,2.774,17.4014,306,5,
73.6965,5.65552,19.696,2.774,17.4014,306,5,
73.6966,5.65582,19.6976,2.774,17.4014,306,5,
73.6966,5.6601,19.693,2.774,17.4014,306,5,
73.6966,5.6601,19.6838,2.774,17.4014,306,5,
73.6967,5.6601,19.6808,2.774,17.4014,306,5,
73.6967,5.66315,19.6823,2.774,17.4014,306,5,
73.6967,5.66467,19.6854,2.774,17.4014,306,5,
73.6968,5.66437,19.6854,2.774,17.4014,306,5,
73.6968,5.66559,19.6838,2.774,17.4014,306,5,
73.6968,5.66772,19.6869,2.774,17.4014,306,5,
73.6969,5.66895,19.6854,2.774,17.4014,306,5,
73.6969,5.66986,19.6838,2.774,17.4014,306,5,
73.6969,5.66864,19.6838,2.774,17.4014,306,5,
73.697,5.67383,19.6793,2.774,17.4014,306,5,
73.697,5.67383,19.6823,2.774,17.4014,306,5,
73.697,5.67383,19.6869,2.774,17.4014,306,5,
73.6971,5.67413,19.6838,2.774,17.4014,306,5,
73.6971,5.67932,19.6854,2.774,17.4014,306,5,
73.6971,5.67841,19.6854,2.774,17.4014,306,5,
73.6972,5.67932,19.6823,2.774,17.4014,306,5,
73.6972,5.67841,19.6869,2.774,17.4014,306,5,
73.6972,5.6839,19.6838,2.774,17.4014,306,5,
73.6973,5.6839,19.6854,2.774,17.4014,306,5,
73.6973,5.68451,19.6884,2.774,17.4014,306,5,
73.6973,5.68634,19.6838,2.774,17.4014,306,5,
73.6974,5.68848,19.6838,2.774,17.4014,306,5,
73.6974,5.68909,19.6838,2.774,17.4014,306,5,
73.6974,5.68909,19.6716,2.774,17.4014,306,5,
73.6975,5.69244,19.6716,2.774,17.4014,306,5,
73.6975,5.69427,19.6747,2.774,17.4014,306,5,
73.6975,5.69366,19.6732,2.774,17.4014,306,5,
73.6976,5.69397,19.6686,2.774,17.4014,306,5,
73.6976,5.69824,19.6716,2.774,17.4014,306,5,
73.6976,5.69824,19.6686,2.774,17.4014,306,5,
73.6977,5.69855,19.6732,2.774,17.4014,306,5,
73.6977,5.69824,19.6716,2.774,17.4014,306,5,
73.6977,5.70435,19.6701,2.774,17.4014,306,5,
73.6978,5.70312,19.6701,2.774,17.4014,306,5,
73.6978,5.70374,19.6701,2.774,17.4014,306,5,
73.6978,5.70709,19.6655,2.774,17.4014,306,5,
73.6979,5.70831,19.6747,2.774,17.4014,306,5,
73.6979,5.70831,19.6732,2.774,17.4014,306,5,
73.6979,5.70801,19.6732,2.774,17.4014,306,5,
73.698,5.71259,19.6747,2.774,17.4014,306,5,
73.698,5.71381,19.6716,2.774,17.4014,306,5,
73.698,5.71381,19.6701,2.774,17.4014,306,5,
73.6981,5.71289,19.6747,2.774,17.4014,306,5,
73.6981,5.71777,19.6594,2.774,17.4014,306,5,
73.6981,5.71777,19.6579,2.774,17.4014,306,5,
73.6982,5.71899,19.661,2.774,17.4014,306,5,
73.6982,5.72021,19.6564,2.774,17.4014,306,5,
73.6982,5.72327,19.661,2.774,17.4014,306,5,
73.6983,5.72327,19.6579,2.774,17.4014,306,5,
73.6983,5.72388,19.6579,2.774,17.4014,306,5,
73.6983,5.7251,19.6625,2.774,17.4014,306,5,
73.6984,5.72754,19.6564,2.774,17.4014,306,5,
73.6984,5.72815,19.6579,2.774,17.4014,306,5,
73.6984,5.72815,19.661,2.774,17.4014,306,5,
73.6985,5.73242,19.661,2.774,17.4014,306,5,
73.6985,5.73181,19.6564,2.774,17.4014,306,5,
73.6985,5.73273,19.6579,2.774,17.4014,306,5,
73.6986,5.73364,19.6579,2.774,17.4014,306,5,
73.6986,5.73792,19.6594,2.774,17.4014,306,5,
73.6986,5.73792,19.6579,2.774,17.4014,306,5,
73.6987,5.73792,19.6594,2.774,17.4014,306,5,
73.6987,5.73792,19.6594,2.774,17.4014,306,5,
73.6987,5.7431,19.6487,2.774,17.4014,306,5,
73.6988,5.74371,19.6472,2.774,17.4014,306,5,
73.6988,5.7428,19.6457,2.774,17.4014,306,5,
73.6988,5.7431,19.6472,2.774,17.4014,306,5,
73.6989,5.74799,19.6472,2.774,17.4014,306,5,
73.6989,5.7486,19.6487,2.774,17.4014,306,5,
73.6989,5.74738,19.6503,2.774,17.4014,306,5,
73.699,5.74799,19.6442,2.774,17.4014,306,5,
73.699,5.75317,19.6487,2.774,17.4014,306,5,
73.699,5.75317,19.6487,2.774,17.4014,306,5,
73.6991,5.75287,19.6487,2.774,17.4014,306,5,
73.6991,5.75226,19.6472,2.774,17.4014,306,5,
73.6991,5.75714,19.6442,2.774,17.4014,306,5,
73.6992,5.75775,19.6457,2.774,17.4014,306,5,
73.6992,5.75775,19.6472,2.774,17.4014,306,5,
73.6992,5.75714,19.6487,2.774,17.4014,306,5,
73.6993,5.76233,19.6472,2.774,17.4014,306,5,
73.6993,5.76294,19.6472,2.774,17.4014,306,5,
73.6993,5.76263,19.6503,2.774,17.4014,306,5,
73.6994,5.76263,19.6472,2.774,17.4014,306,5,
73.6994,5.7666,19.6365,2.774,17.4014,306,5,
73.6994,5.76752,19.635,2.774,17.4014,306,5,
73.6995,5.76721,19.6365,2.774,17.4014,306,5,
73.6995,5.76721,19.635,2.774,17.4014,306,5,
73.6995,5.76965,19.635,2.774,17.4014,306,5,
73.6996,5.77209,19.6381,2.774,17.4014,306,5,
73.6996,5.77179,19.6365,2.774,17.4014,306,5,
73.6996,5.77179,19.6335,2.774,17.4014,306,5,
73.6997,5.7724,19.6365,2.774,17.4014,306,5,
73.6997,5.77698,19.6365,2.774,17.4014,306,5,
73.6997,5.77637,19.6335,2.774,17.4014,306,5,
73.6998,5.77759,19.635,2.774,17.4014,306,5,
73.6998,5.77728,19.6365,2.774,17.4014,306,5,
73.6998,5.78094,19.6365,2.774,17.4014,306,5,
73.6999,5.78186,19.6365,2.774,17.4014,306,5,
73.6999,5.78186,19.6365,2.774,17.4014,306,5,
73.6999,5.78217,19.635,2.774,17.4014,306,5,
73.7,5.78217,19.6365,2.774,17.4014,306,5,
73.7,5.78705,19.635,2.774,17.4014,306,5,
73.7,5.78674,19.6304,2.774,17.4014,306,5,
73.7001,5.78674,19.6243,2.774,17.4014,306,5,
73.7001,5.78644,19.6228,2.774,17.4014,306,5,
73.7001,5.79163,19.6213,2.774,17.4014,306,5,
73.7002,5.79163,19.6259,2.774,17.4014,306,5,
73.7002,5.79102,19.6243,2.774,17.4014,306,5,
73.7002,5.79193,19.6213,2.774,17.4014,306,5,
73.7003,5.79193,19.6213,2.774,17.4014,306,5,
73.7003,5.79651,19.6259,2.774,17.4014,306,5,
73.7003,5.79681,19.6243,2.774,17.4014,306,5,
73.7004,5.79681,19.6228,2.774,17.4014,306,5,
73.7004,5.79651,19.6243,2.774,17.4014,306,5,
73.7004,5.79681,19.6243,2.774,17.4014,306,5,
73.7005,5.80139,19.6213,2.774,17.4014,306,5,
73.7005,5.8017,19.6228,2.774,17.4014,306,5,
73.7005,5.8017,19.6243,2.774,17.4014,306,5,
73.7006,5.8017,19.6198,2.774,17.4014,306,5,
73.7006,5.8017,19.6228,2.774,17.4014,306,5,
73.7006,5.80627,19.6228,2.774,17.4014,306,5,
73.7007,5.80627,19.6182,2.774,17.4014,306,5,
73.7007,5.80658,19.6106,2.774,17.4014,306,5,
73.7007,5.80597,19.6075,2.774,17.4014,306,5,
73.7008,5.80597,19.6106,2.774,17.4014,306,5,
73.7008,5.80841,19.6091,2.774,17.4014,306,5,
73.7008,5.81146,19.6106,2.774,17.4014,306,5,
73.7009,5.81116,19.6106,2.774,17.4014,306,5,
73.7009,5.81177,19.606,2.774,17.4014,306,5,
73.7009,5.81146,19.6121,2.774,17.4014,306,5,
73.701,5.81146,19.6091,2.774,17.4014,306,5,
73.701,5.81696,19.6106,2.774,17.4014,306,5,
73.701,5.81604,19.6075,2.774,17.4014,306,5,
73.7011,5.81573,19.6121,2.774,17.4014,306,5,
73.7011,5.81635,19.6106,2.774,17.4014,306,5,
73.7011,5.81604,19.6091,2.774,17.4014,306,5,
73.7012,5.81604,19.6075,2.774,17.4014,306,5,
73.7012,5.82123,19.6121,2.774,17.4014,306,5,
73.7012,5.82092,19.6106,2.774,17.4014,306,5,
73.7013,5.82184,19.6091,2.774,17.4014,306,5,
73.7013,5.82153,19.5969,2.774,17.4014,306,5,
73.7013,5.82123,19.5999,2.774,17.4014,306,5,
73.7014,5.82123,19.5984,2.774,17.4014,306,5,
73.7014,5.82611,19.5999,2.774,17.4014,306,5,
73.7014,5.82581,19.5999,2.774,17.4014,306,5,
73.7015,5.82611,19.5999,2.774,17.4014,306,5,
73.7015,5.82611,19.5969,2.774,17.4014,306,5,
73.7015,5.82611,19.6014,2.774,17.4014,306,5,
73.7016,5.82581,19.6014,2.774,17.4014,306,5,
73.7016,5.83069,19.5969,2.774,17.4014,306,5,
73.7016,5.83099,19.5969,2.774,17.4014,306,5,
73.7017,5.83069,19.5984,2.774,17.4014,306,5,
73.7017,5.83099,19.5969,2.774,17.4014,306,5,
73.7017,5.8313,19.5984,2.774,17.4014,306,5,
73.7018,5.83069,19.5969,2.774,17.4014,306,5,
73.7018,5.8313,19.5999,2.774,17.4014,306,5,
73.7018,5.83527,19.5984,2.774,17.4014,306,5,
73.7019,5.83588,19.5984,2.774,17.4014,306,5,
73.7019,5.83618,19.5984,2.774,17.4014,306,5,
73.7019,5.83588,19.5892,2.774,17.4014,306,5,
73.702,5.83618,19.5877,2.774,17.4014,306,5,
73.702,5.83496,19.5862,2.774,17.4014,306,5,
73.702,5.83527,19.5892,2.774,17.4014,306,5,
73.7021,5.83588,19.5892,2.774,17.4014,306,5,
73.7021,5.83984,19.5877,2.774,17.4014,306,5,
73.7021,5.84076,19.5892,2.774,17.4014,306,5,
73.7022,5.84015,19.5877,2.774,17.4014,306,5,
73.7022,5.84076,19.5877,2.774,17.4014,306,5,
73.7022,5.84106,19.5892,2.774,17.4014,306,5,
73.7023,5.84076,19.5847,2.774,17.4014,306,5,
73.7023,5.84045,19.5847,2.774,17.4014,306,5,
73.7023,5.84106,19.5847,2.774,17.4014,306,5,
73.7024,5.84045,19.5923,2.774,17.4014,306,5,
73.7024,5.84564,19.5862,2.774,17.4014,306,5,
73.7024,5.84595,19.5862,2.774,17.4014,306,5,
73.7025,5.84595,19.5847,2.774,17.4014,306,5,
73.7025,5.84625,19.5908,2.774,17.4014,306,5,
73.7025,5.84595,19.5877,2.774,17.4014,306,5,
73.7026,5.84564,19.5877,2.774,17.4014,306,5,
73.7026,5.84564,19.5755,2.774,17.4014,307,5,
73.7026,5.84503,19.574,2.774,17.4014,307,5,
73.7027,5.84534,19.574,2.774,17.4014,307,5,
73.7027,5.84564,19.5755,2.774,17.4014,307,5,
73.7027,5.84564,19.5724,2.774,17.4014,307,5,
73.7028,5.85114,19.5786,2.774,17.4014,307,5,
73.7028,5.85083,19.5755,2.774,17.4014,307,5,
73.7028,5.85022,19.5755,2.774,17.4014,307,5,
73.7029,5.85114,19.577,2.774,17.4014,307,5,
73.7029,5.85083,19.574,2.774,17.4014,307,5,
73.7029,5.85114,19.5724,2.774,17.4014,307,5,
73.703,5.85114,19.577,2.774,17.4014,307,5,
73.703,5.85052,19.5724,2.774,17.4014,307,5,
73.703,5.85052,19.5755,2.774,17.4014,307,5,
73.7031,5.85083,19.574,2.774,17.4014,307,5,
73.7031,5.85052,19.574,2.774,17.4014,307,5,
73.7031,5.85083,19.5724,2.774,17.4014,307,5,
73.7032,5.85114,19.5755,2.774,17.4014,307,5,
73.7032,5.85114,19.574,2.774,17.4014,307,5,
73.7032,5.85327,19.574,2.774,17.4014,307,5,
73.7033,5.85632,19.5618,2.774,17.4014,307,5,
73.7033,5.8551,19.5648,2.774,17.4014,307,5,
73.7033,5.85541,19.5618,2.774,17.4014,307,5,
73.7034,5.85541,19.5633,2.774,17.4014,307,5,
73.7034,5.8551,19.5618,2.774,17.4014,307,5,
73.7034,5.8551,19.5618,2.774,17.4014,307,5,
73.7035,5.85602,19.5663,2.774,17.4014,307,5,
73.7035,5.85541,19.5618,2.774,17.4014,307,5,
73.7035,5.85571,19.5633,2.774,17.4014,307,5,
73.7036,5.85602,19.5633,2.774,17.4014,307,5,
73.7036,5.85541,19.5663,2.774,17.4014,307,5,
73.7036,5.8551,19.5602,2.774,17.4014,307,5,
73.7037,5.85541,19.5663,2.774,17.4014,307,5,
73.7037,5.85602,19.5663,2.774,17.4014,307,5,
73.7037,5.8551,19.5618,2.774,17.4014,307,5,
73.7038,5.85541,19.5633,2.774,17.4014,307,5,
73.7038,5.85541,19.5633,2.774,17.4014,307,5,
73.7038,5.85571,19.5618,2.774,17.4014,307,5,
73.7039,5.85571,19.5633,2.774,17.4014,307,5,
73.7039,5.85602,19.5633,2.774,17.4014,307,5,
73.7039,5.85602,19.5618,2.774,17.4014,307,5,
73.704,5.85602,19.5526,2.774,17.4014,307,5,
73.704,5.85602,19.5496,2.774,17.4014,307,5,
73.704,5.85541,19.5526,2.774,17.4014,307,5,
73.7041,5.85541,19.548,2.774,17.4014,307,5,
73.7041,5.85541,19.5496,2.774,17.4014,307,5,
73.7041,5.85541,19.5496,2.774,17.4014,307,5,
73.7042,5.85541,19.5511,2.774,17.4014,307,5,
73.7042,5.85571,19.548,2.774,17.4014,307,5,
73.7042,5.85541,19.5496,2.774,17.4014,307,5,
73.7043,5.85571,19.5541,2.774,17.4014,307,5,
73.7043,5.85602,19.5511,2.774,17.4014,307,5,
73.7043,5.85541,19.5496,2.774,17.4014,307,5,
73.7044,5.85541,19.5511,2.774,17.4014,307,5,
73.7044,5.85541,19.5541,2.774,17.4014,307,5,
73.7044,5.85571,19.5496,2.774,17.4014,307,5,
73.7045,5.8548,19.5496,2.774,17.4014,307,5,
73.7045,5.85632,19.5526,2.774,17.4014,307,5,
73.7045,5.85571,19.5496,2.774,17.4014,307,5,
73.7046,5.8551,19.5511,2.774,17.4014,307,5,
73.7046,5.85602,19.548,2.774,17.4014,307,5,
73.7046,5.85541,19.5374,2.774,17.4014,307,5,
73.7047,5.85541,19.5404,2.774,17.4014,307,5,
73.7047,5.85541,19.5389,2.774,17.4014,307,5,
73.7047,5.85541,19.5358,2.774,17.4014,307,5,
73.7048,5.8551,19.5374,2.774,17.4014,307,5,
73.7048,5.85632,19.5374,2.774,17.4014,307,5,
73.7048,5.8551,19.5389,2.774,17.4014,307,5,
73.7049,5.85541,19.5404,2.774,17.4014,307,5,
73.7049,5.85571,19.5389,2.774,17.4014,307,5,
73.7049,5.85541,19.5404,2.774,17.4014,307,5,
73.705,5.85571,19.5404,2.774,17.4014,307,5,
73.705,5.85571,19.5389,2.774,17.4014,307,5,
73.705,5.85571,19.5374,2.774,17.4014,307,5,
73.7051,5.85541,19.5374,2.774,17.4014,307,5,
73.7051,5.85541,19.5404,2.774,17.4014,307,5,
73.7051,5.85571,19.5404,2.774,17.4014,307,5,
73.7052,5.8551,19.5358,2.774,17.4014,307,5,
73.7052,5.8548,19.5251,2.774,17.4014,307,5,
73.7052,5.85632,19.5251,2.774,17.4014,307,5,
73.7053,5.85449,19.5251,2.774,17.4014,307,5,
73.7053,5.85541,19.5251,2.774,17.4014,307,5,
73.7053,5.85541,19.5251,2.774,17.4014,307,5,
73.7054,5.85541,19.5251,2.774,17.4014,307,5,
73.7054,5.8548,19.5267,2.774,17.4014,307,5,
73.7054,5.8551,19.5251,2.774,17.4014,307,5,
73.7055,5.85602,19.5267,2.774,17.4014,307,5,
73.7055,5.8551,19.5251,2.774,17.4014,307,5,
73.7055,5.85114,19.5282,2.774,17.4014,307,5,
73.7056,5.85022,19.5267,2.774,17.4014,307,5,
73.7056,5.85083,19.5282,2.774,17.4014,307,5,
73.7056,5.85083,19.5267,2.774,17.4014,307,5,
73.7057,5.85083,19.5236,2.774,17.4014,307,5,
73.7057,5.85052,19.516,2.774,17.4014,307,5,
73.7057,5.85114,19.5129,2.774,17.4014,307,5,
73.7058,5.85083,19.5145,2.774,17.4014,307,5,
73.7058,5.85083,19.5129,2.774,17.4014,307,5,
73.7058,5.85114,19.5114,2.774,17.4014,307,5,
73.7059,5.85052,19.5114,2.774,17.4014,307,5,
73.7059,5.85144,19.516,2.774,17.4014,307,5,
73.7059,5.85052,19.5145,2.774,17.4014,307,5,
73.706,5.85114,19.5114,2.774,17.4014,307,5,
73.706,5.85052,19.5145,2.774,17.4014,307,5,
73.706,5.85144,19.5129,2.774,17.4014,307,5,
73.7061,5.85114,19.5145,2.774,17.4014,307,5,
73.7061,5.85083,19.5145,2.774,17.4014,307,5,
73.7061,5.85114,19.516,2.774,17.4014,307,5,
73.7062,5.85144,19.5145,2.774,17.4014,307,5,
73.7062,5.85114,19.5023,2.774,17.4014,307,5,
73.7062,5.85114,19.5038,2.774,17.4014,307,5,
73.7063,5.84564,19.4977,2.774,17.4014,307,5,
73.7063,5.84564,19.5023,2.774,17.4014,307,5,
73.7063,5.84564,19.5007,2.774,17.4014,307,5,
73.7064,5.84564,19.5038,2.774,17.4014,307,5,
73.7064,5.84534,19.5007,2.774,17.4014,307,5,
73.7064,5.84564,19.5053,2.774,17.4014,307,5,
73.7065,5.84564,19.5023,2.774,17.4014,307,5,
73.7065,5.84595,19.4977,2.774,17.4014,307,5,
73.7065,5.84564,19.5023,2.774,17.4014,307,5,
73.7066,5.84534,19.5023,2.774,17.4014,307,5,
73.7066,5.84564,19.5038,2.774,17.4014,307,5,
73.7066,5.84473,19.4992,2.774,17.4014,307,5,
73.7067,5.84534,19.5023,2.774,17.4014,307,5,
73.7067,5.84534,19.4885,2.774,17.4014,307,5,
73.7067,5.84534,19.4901,2.774,17.4014,307,5,
73.7068,5.84595,19.4885,2.774,17.4014,307,5,
73.7068,5.84503,19.4885,2.774,17.4014,307,5,
73.7068,5.84534,19.4885,2.774,17.4014,307,5,
73.7069,5.84137,19.4885,2.774,17.4014,307,5,
73.7069,5.84015,19.4885,2.774,17.4014,307,5,
73.7069,5.84076,19.4901,2.774,17.4014,307,5,
73.707,5.84076,19.4885,2.774,17.4014,307,5,
73.707,5.84076,19.4901,2.774,17.4014,307,5,
73.707,5.84015,19.4916,2.774,17.4014,307,5,
73.7071,5.84045,19.487,2.774,17.4014,307,5,
73.7071,5.84106,19.4901,2.774,17.4014,307,5,
73.7071,5.84076,19.4885,2.774,17.4014,307,5,
73.7072,5.84045,19.4901,2.774,17.4014,307,5,
73.7072,5.84076,19.4901,2.774,17.4014,307,5,
73.7072,5.84015,19.4901,2.774,17.4014,307,5,
73.7073,5.84076,19.4763,2.774,17.4014,307,5,
73.7073,5.84076,19.4733,2.774,17.4014,307,5,
73.7073,5.83984,19.4794,2.774,17.4014,307,5,
73.7074,5.8371,19.4778,2.774,17.4014,307,5,
73.7074,5.83588,19.4809,2.774,17.4014,307,5,
73.7074,5.83557,19.4748,2.774,17.4014,307,5,
73.7075,5.83527,19.4794,2.774,17.4014,307,5,
73.7075,5.83649,19.4778,2.774,17.4014,307,5,
73.7075,5.83496,19.4778,2.774,17.4014,307,5,
73.7076,5.83618,19.4763,2.774,17.4014,307,5,
73.7076,5.83618,19.4748,2.774,17.4014,307,5,
73.7076,5.83588,19.4794,2.774,17.4014,307,5,
73.7077,5.83618,19.4763,2.774,17.4014,307,5,
73.7077,5.83588,19.4763,2.774,17.4014,307,5,
73.7077,5.83618,19.4778,2.774,17.4014,307,5,
73.7078,5.83557,19.4733,2.774,17.4014,307,5,
73.7078,5.83527,19.4794,2.774,17.4014,307,5,
73.7078,5.83344,19.4641,2.774,17.4014,307,5,
73.7079,5.83069,19.4641,2.774,17.4014,307,5,
73.7079,5.83099,19.4672,2.774,17.4014,307,5,
73.7079,5.83099,19.4626,2.774,17.4014,307,5,
73.708,5.83099,19.4672,2.774,17.4014,307,5,
73.708,5.8313,19.4626,2.774,17.4014,307,5,
73.708,5.83099,19.4656,2.774,17.4014,307,5,
73.7081,5.83099,19.4656,2.774,17.4014,307,5,
73.7081,5.8316,19.4687,2.774,17.4014,307,5,
73.7081,5.8316,19.4656,2.774,17.4014,307,5,
73.7082,5.83099,19.4672,2.774,17.4014,307,5,
73.7082,5.8313,19.4672,2.774,17.4014,307,5,
73.7082,5.8313,19.4656,2.774,17.4014,307,5,
73.7083,5.83038,19.4656,2.774,17.4014,307,5,
73.7083,5.8255,19.4672,2.774,17.4014,307,5,
73.7083,5.82642,19.4641,2.774,17.4014,307,5,
73.7084,5.82642,19.4672,2.774,17.4014,307,5,
73.7084,5.82642,19.4656,2.774,17.4014,307,5,
73.7084,5.82642,19.4534,2.774,17.4014,307,5,
73.7085,5.82581,19.455,2.774,17.4014,307,5,
73.7085,5.82642,19.4519,2.774,17.4014,307,5,
73.7085,5.82611,19.4519,2.774,17.4014,307,5,
73.7086,5.82581,19.4534,2.774,17.4014,307,5,
73.7086,5.82581,19.4534,2.774,17.4014,307,5,
73.7086,5.82642,19.4519,2.774,17.4014,307,5,
73.7087,5.82581,19.4534,2.774,17.4014,307,5,
73.7087,5.82092,19.455,2.774,17.4014,307,5,
73.7087,5.82123,19.4519,2.774,17.4014,307,5,
73.7088,5.82031,19.455,2.774,17.4014,307,5,
73.7088,5.82092,19.4504,2.774,17.4014,307,5,
73.7088,5.82062,19.4534,2.774,17.4014,307,5,
73.7089,5.82092,19.4519,2.774,17.4014,307,5,
73.7089,5.82153,19.4534,2.774,17.4014,307,5,
73.7089,5.82214,19.4519,2.774,17.4014,307,5,
73.709,5.82123,19.4519,2.774,17.4014,307,5,
73.709,5.82062,19.4534,2.774,17.4014,307,5,
73.709,5.82153,19.4519,2.774,17.4014,307,5,
73.7091,5.81665,19.4428,1.294,17.4014,307,5,
73.7091,5.81635,19.4428,1.294,17.4014,307,5,
73.7091,5.81604,19.4412,1.294,17.4014,307,5,
73.7092,5.81665,19.4412,1.294,17.4014,307,5,
73.7092,5.81604,19.4382,1.294,17.4014,307,5,
73.7092,5.81665,19.4428,1.294,17.4014,307,5,
73.7093,5.81573,19.4412,1.294,17.4014,307,5,
73.7093,5.81665,19.4382,1.294,17.4014,307,5,
73.7093,5.81635,19.4382,1.294,17.4014,307,5,
73.7094,5.81604,19.4397,1.294,17.4014,307,5,
73.7094,5.81665,19.4428,1.294,17.4014,307,5,
73.7094,5.81116,19.4412,1.294,17.4014,307,5,
73.7095,5.81146,19.4397,1.294,17.4014,307,5,
73.7095,5.81146,19.4397,1.294,17.4014,307,5,
73.7095,5.81085,19.4412,1.294,17.4014,307,5,
73.7096,5.81085,19.4428,1.294,17.4014,307,5,
73.7096,5.81177,19.4397,1.294,17.4014,307,5,
73.7096,5.81146,19.4397,1.294,17.4014,307,5,
73.7097,5.81146,19.4412,1.294,17.4014,307,5,
73.7097,5.81177,19.4244,1.294,17.4014,307,5,
73.7097,5.81116,19.4305,1.294,17.4014,307,5,
73.7098,5.80688,19.429,1.294,17.4014,307,5,
73.7098,5.80658,19.4275,1.294,17.4014,307,5,
73.7098,5.80627,19.429,1.294,17.4014,307,5,
73.7099,5.80658,19.4275,1.294,17.4014,307,5,
73.7099,5.80658,19.426,1.294,17.4014,307,5,
73.7099,5.80688,19.4305,1.294,17.4014,307,5,
73.71,5.80688,19.429,1.294,17.4014,307,5,
73.71,5.80597,19.4275,1.294,17.4014,307,5,
73.71,5.80627,19.4321,1.294,17.4014,307,5,
73.7101,5.80627,19.4244,1.294,17.4014,307,5,
73.7101,5.80139,19.4305,1.294,17.4014,307,5,
73.7101,5.80139,19.426,1.294,17.4014,307,5,
73.7102,5.80078,19.429,1.294,17.4014,307,5,
73.7102,5.80109,19.4275,1.294,17.4014,307,5,
73.7102,5.802,19.429,1.294,17.4014,307,5,
73.7103,5.8017,19.4275,1.294,17.4014,307,5,
73.7103,5.80139,19.4138,1.294,17.4014,307,5,
73.7103,5.8017,19.4168,1.294,17.4014,307,5,
73.7104,5.8017,19.4138,1.294,17.4014,307,5,
73.7104,5.7962,19.4138,1.294,17.4014,307,5,
73.7104,5.7962,19.4168,1.294,17.4014,307,5,
73.7105,5.7962,19.4168,1.294,17.4014,307,5,
73.7105,5.79651,19.4153,1.294,17.4014,307,5,
73.7105,5.7962,19.4183,1.294,17.4014,307,5,
73.7106,5.79712,19.4138,1.294,17.4014,307,5,
73.7106,5.79651,19.4153,1.294,17.4014,307,5,
73.7106,5.79681,19.4183,1.294,17.4014,307,5,
73.7107,5.7962,19.4183,1.294,17.4014,307,5,
73.7107,5.79163,19.4183,1.294,17.4014,307,5,
73.7107,5.79163,19.4153,1.294,17.4014,307,5,
73.7108,5.79285,19.4168,1.294,17.4014,307,5,
73.7108,5.79193,19.4153,1.294,17.4014,307,5,
73.7108,5.79193,19.4138,1.294,17.4014,307,5,
73.7109,5.79163,19.4153,1.294,17.4014,307,5,
73.7109,5.79163,19.4031,1.294,17.4014,307,5,
73.7109,5.79132,19.4031,1.294,17.4014,307,5,
73.711,5.79163,19.4046,1.294,17.4014,307,5,
73.711,5.78766,19.4,1.294,17.4014,307,5,
73.711,5.78644,19.4046,1.294,17.4014,307,5,
73.7111,5.78674,19.4031,1.294,17.4014,307,5,
73.7111,5.78644,19.4061,1.294,17.4014,307,5,
73.7111,5.78644,19.4031,1.294,17.4014,307,5,
73.7112,5.78613,19.4031,1.294,17.4014,307,5,
73.7112,5.78705,19.4031,1.294,17.4014,307,5,
73.7112,5.78674,19.4016,1.294,17.4014,307,5,
73.7113,5.78674,19.4031,1.294,17.4014,307,5,
73.7113,5.78247,19.4046,1.294,17.4014,307,5,
73.7113,5.78217,19.4031,1.294,17.4014,307,5,
73.7114,5.78186,19.4031,1.294,17.4014,307,5,
73.7114,5.78156,19.4046,1.294,17.4014,307,5,
73.7114,5.78247,19.4046,1.294,17.4014,307,5,
73.7115,5.78247,19.4031,1.294,17.4014,307,5,
73.7115,5.78156,19.3954,1.294,17.4014,307,5,
73.7115,5.78186,19.3909,1.294,17.4014,307,5,
73.7116,5.78186,19.3893,1.294,17.4014,307,5,
73.7116,5.77728,19.3893,1.294,17.4014,307,5,
73.7116,5.77728,19.3893,1.294,17.4014,307,5,
73.7117,5.77667,19.3924,1.294,17.4014,307,5,
73.7117,5.77728,19.3909,1.294,17.4014,307,5,
73.7117,5.77759,19.3909,1.294,17.4014,307,5,
73.7118,5.77728,19.3909,1.294,17.4014,307,5,
73.7118,5.77698,19.3924,1.294,17.4014,307,5,
73.7118,5.77728,19.3909,1.294,17.4014,307,5,
73.7119,5.77728,19.3878,1.294,17.4014,307,5,
73.7119,5.77423,19.3878,1.294,17.4014,307,5,
73.7119,5.77179,19.3893,1.294,17.4014,307,5,
73.712,5.7724,19.3893,1.294,17.4014,307,5,
73.712,5.77209,19.3924,1.294,17.4014,307,5,
73.712,5.77148,19.3939,1.294,17.4014,307,5,
73.7121,5.77209,19.3878,1.294,17.4014,307,5,
73.7121,5.77209,19.3802,1.294,17.4014,307,5,
73.7121,5.7724,19.3756,1.294,17.4014,307,5,
73.7122,5.77179,19.3787,1.294,17.4014,307,5,
73.7122,5.77209,19.3802,1.294,17.4014,307,5,
73.7122,5.76721,19.3787,1.294,17.4014,307,5,
73.7123,5.76721,19.3817,1.294,17.4014,307,5,
73.7123,5.76782,19.3787,1.294,17.4014,307,5,
73.7123,5.76691,19.3756,1.294,17.4014,307,5,
73.7124,5.76752,19.3756,1.294,17.4014,307,5,
73.7124,5.76752,19.3787,1.294,17.4014,307,5,
73.7124,5.76691,19.3787,1.294,17.4014,307,5,
73.7125,5.7666,19.3771,1.294,17.4014,307,5,
73.7125,5.76752,19.3756,1.294,17.4014,307,5,
73.7125,5.76447,19.3771,1.294,17.4014,307,5,
73.7126,5.76294,19.3771,1.294,17.4014,307,5,
73.7126,5.76233,19.3787,1.294,17.4014,307,5,
73.7126,5.76202,19.3832,1.294,17.4014,307,5,
73.7127,5.76233,19.3787,1.294,17.4014,307,5,
73.7127,5.76263,19.368,1.294,17.4014,307,5,
73.7127,5.76324,19.3665,1.294,17.4014,307,5,
73.7128,5.76263,19.3665,1.294,17.4014,307,5,
73.7128,5.76324,19.3649,1.294,17.4014,307,5,
73.7128,5.76324,19.3665,1.294,17.4014,307,5,
73.7129,5.76172,19.3634,1.294,17.4014,307,5,
73.7129,5.75775,19.368,1.294,17.4014,307,5,
73.7129,5.75836,19.3649,1.294,17.4014,307,5,
73.713,5.75775,19.368,1.294,17.4014,307,5,
73.713,5.75806,19.3619,1.294,17.4014,307,5,
73.713,5.75806,19.3665,1.294,17.4014,307,5,
73.7131,5.75714,19.368,1.294,17.4014,307,5,
73.7131,5.75775,19.3649,1.294,17.4014,307,5,
73.7131,5.75745,19.3649,1.294,17.4014,307,5,
73.7132,5.75806,19.368,1.294,17.4014,307,5,
73.7132,5.75714,19.3649,1.294,17.4014,307,5,
73.7132,5.75806,19.3695,1.294,17.4014,307,5,
73.7133,5.75256,19.3558,1.294,17.4014,307,5,
73.7133,5.75317,19.3527,1.294,17.4014,307,5,
73.7133,5.75287,19.3542,1.294,17.4014,307,5,
73.7134,5.75287,19.3573,1.294,17.4014,307,5,
73.7134,5.75256,19.3573,1.294,17.4014,307,5,
73.7134,5.75287,19.3542,1.294,17.4014,307,5,
73.7135,5.75317,19.3542,1.294,17.4014,307,5,
73.7135,5.75287,19.3542,1.294,17.4014,307,5,
73.7135,5.75287,19.3558,1.294,17.4014,307,5,
73.7136,5.75226,19.3558,1.294,17.4014,307,5,
73.7136,5.75287,19.3558,1.294,17.4014,307,5,
73.7136,5.74829,19.3542,1.294,17.4014,307,5,
73.7137,5.74707,19.3542,1.294,17.4014,307,5,
73.7137,5.74768,19.3542,1.294,17.4014,307,5,
73.7137,5.74799,19.3558,1.294,17.4014,307,5,
73.7138,5.74829,19.3542,1.294,17.4014,307,5,
73.7138,5.74829,19.3573,1.294,17.4014,307,5,
73.7138,5.74768,19.3542,1.294,17.4014,307,5,
73.7139,5.74829,19.3405,1.294,17.4014,307,5,
73.7139,5.74799,19.342,1.294,17.4014,307,5,
73.7139,5.74829,19.342,1.294,17.4014,307,5,
73.714,5.74768,19.3405,1.294,17.4014,307,5,
73.714,5.74829,19.342,1.294,17.4014,307,5,
73.714,5.74432,19.3436,1.294,17.4014,307,5,
73.7141,5.74341,19.3436,1.294,17.4014,307,5,
73.7141,5.7431,19.342,1.294,17.4014,307,5,
73.7141,5.7428,19.3436,1.294,17.4014,307,5,
73.7142,5.7431,19.342,1.294,17.4014,307,5,
73.7142,5.74249,19.342,1.294,17.4014,307,5,
73.7142,5.7431,19.342,1.294,17.4014,307,5,
73.7143,5.7428,19.342,1.294,17.4014,307,5,
73.7143,5.7431,19.342,1.294,17.4014,307,5,
73.7143,5.74249,19.339,1.294,17.4014,307,5,
73.7144,5.7431,19.3436,1.294,17.4014,307,5,
73.7144,5.74219,19.342,1.294,17.4014,307,5,
73.7144,5.7431,19.3405,1.294,17.4014,307,5,
73.7145,5.74341,19.3298,1.294,17.4014,307,5,
73.7145,5.73792,19.3314,1.294,17.4014,307,5,
73.7145,5.73792,19.3298,1.294,17.4014,307,5,
73.7146,5.73792,19.3268,1.294,17.4014,307,5,
73.7146,5.73761,19.3314,1.294,17.4014,307,5,
73.7146,5.73761,19.3298,1.294,17.4014,307,5,
73.7147,5.73792,19.3298,1.294,17.4014,307,5,
73.7147,5.73822,19.3298,1.294,17.4014,307,5,
73.7147,5.73822,19.3298,1.294,17.4014,307,5,
73.7148,5.73792,19.3283,1.294,17.4014,307,5,
73.7148,5.73822,19.3283,1.294,17.4014,307,5,
73.7148,5.73792,19.3268,1.294,17.4014,307,5,
73.7149,5.73822,19.3314,1.294,17.4014,307,5,
73.7149,5.73792,19.3314,1.294,17.4014,307,5,
73.7149,5.737,19.3298,1.294,17.4014,307,5,
73.715,5.73517,19.3298,1.294,17.4014,307,5,
73.715,5.73364,19.3283,1.294,17.4014,307,5,
73.715,5.73334,19.3192,1.294,17.4014,307,5,
73.7151,5.73334,19.3176,1.294,17.4014,307,5,
73.7151,5.73334,19.3161,1.294,17.4014,307,5,
73.7151,5.73303,19.3176,1.294,17.4014,307,5,
73.7152,5.73334,19.3161,1.294,17.4014,307,5,
73.7152,5.73334,19.3207,1.294,17.4014,307,5,
73.7152,5.73334,19.3207,1.294,17.4014,307,5,
73.7153,5.73273,19.3176,1.294,17.4014,307,5,
73.7153,5.73303,19.3207,1.294,17.4014,307,5,
73.7153,5.73334,19.3222,1.294,17.4014,307,5,
73.7154,5.73303,19.3176,1.294,17.4014,307,5,
73.7154,5.73273,19.3176,1.294,17.4014,307,5,
73.7154,5.73303,19.3222,1.294,17.4014,307,5,
73.7155,5.73334,19.3176,1.294,17.4014,307,5,
73.7155,5.73273,19.3161,1.294,17.4014,307,5,
73.7155,5.72784,19.3161,1.294,17.4014,307,5,
73.7156,5.72815,19.3161,1.294,17.4014,307,5,
73.7156,5.72845,19.3146,1.294,17.4014,307,5,
73.7156,5.72845,19.3039,1.294,17.4014,307,5,
73.7157,5.72876,19.3085,1.294,17.4014,307,5,
73.7157,5.72845,19.3069,1.294,17.4014,307,5,
73.7157,5.72784,19.3085,1.294,17.4014,307,5,
73.7158,5.72906,19.3024,1.294,17.4014,307,5,
73.7158,5.72876,19.3069,1.294,17.4014,307,5,
73.7158,5.72876,19.3085,1.294,17.4014,307,5,
73.7159,5.72876,19.3069,1.294,17.4014,307,5,
73.7159,5.72845,19.3069,1.294,17.4014,307,5,
73.7159,5.72906,19.3054,1.294,17.4014,307,5,
73.716,5.72815,19.3085,1.294,17.4014,307,5,
73.716,5.72876,19.3069,1.294,17.4014,307,5,
73.716,5.72876,19.3069,1.294,17.4014,307,5,
73.7161,5.72845,19.3085,1.294,17.4014,307,5,
73.7161,5.72845,19.3008,1.294,17.4014,307,5,
73.7161,5.72754,19.2947,1.294,17.4014,307,5,
73.7162,5.72357,19.2963,1.294,17.4014,307,5,
73.7162,5.72357,19.2932,1.294,17.4014,307,5,
73.7162,5.72205,19.2917,1.294,17.4014,307,5,
73.7163,5.72327,19.2932,1.294,17.4014,307,5,
73.7163,5.72357,19.2917,1.294,17.4014,307,5,
73.7163,5.72266,19.2917,1.294,17.4014,307,5,
73.7164,5.72296,19.2947,1.294,17.4014,307,5,
73.7164,5.72296,19.2932,1.294,17.4014,307,5,
73.7164,5.72327,19.2932,1.294,17.4014,307,5,
73.7165,5.72266,19.2917,1.294,17.4014,307,5,
73.7165,5.72266,19.2917,1.294,17.4014,307,5,
73.7165,5.72296,19.2917,1.294,17.4014,307,5,
73.7166,5.72327,19.2947,1.294,17.4014,307,5,
73.7166,5.72296,19.2947,1.294,17.4014,307,5,
73.7166,5.72296,19.2978,1.294,17.4014,307,5,
73.7167,5.72327,19.281,1.294,17.4014,307,5,
73.7167,5.72296,19.2795,1.294,17.4014,307,5,
73.7167,5.72357,19.2841,1.294,17.4014,307,5,
73.7168,5.72357,19.2825,1.294,17.4014,307,5,
73.7168,5.72083,19.281,1.294,17.4014,307,5,
73.7168,5.71777,19.278,1.294,17.4014,307,5,
73.7169,5.71838,19.2825,1.294,17.4014,307,5,
73.7169,5.71838,19.281,1.294,17.4014,307,5,
73.7169,5.71747,19.2825,1.294,17.4014,307,5,
73.717,5.71838,19.281,1.294,17.4014,307,5,
73.717,5.71838,19.2841,1.294,17.4014,307,5,
73.717,5.71808,19.281,1.294,17.4014,307,5,
73.7171,5.71777,19.278,1.294,17.4014,307,5,
73.7171,5.71808,19.2825,1.294,17.4014,307,5,
73.7171,5.71777,19.2795,1.294,17.4014,307,5,
73.7172,5.71869,19.281,1.294,17.4014,307,5,
73.7172,5.71808,19.2825,1.294,17.4014,307,5,
73.7172,5.71838,19.2825,1.294,17.4014,307,5,
73.7173,5.71899,19.2764,1.294,17.4014,307,5,
73.7173,5.71808,19.2688,1.294,17.4014,307,5,
73.7173,5.71838,19.2673,1.294,17.4014,307,5,
73.7174,5.71808,19.2673,1.294,17.4014,307,5,
73.7174,5.71838,19.2688,1.294,17.4014,307,5,
73.7174,5.71838,19.2688,1.294,17.4014,307,5,
73.7175,5.7135,19.2688,1.294,17.4014,307,5,
73.7175,5.7132,19.2688,1.294,17.4014,307,5,
