5600-SECPT.acq
2 msec/sample
6 channels
RSP, X, RSPEC-R
Volts
EDA, Y, PPGED-R
microsiemens
ECG R-R
Seconds
Respiration Rate
BPM
C7 - EDR
Peaks
C14 - Control
Volts
sec,CH1,CH14,CH40,CH42,CH47,CH54,
,32835,32835,32835,32835,32835,32835,
12863.6,6.11115,0.199891,2.258,11.0254,722,0,
12863.6,6.11115,0.199891,2.258,11.0254,722,0,
12863.6,6.11084,0.199891,2.258,11.0254,722,0,
12863.6,6.11023,0.202943,2.258,11.0254,722,0,
12863.6,6.11084,0.199891,2.258,11.0254,722,0,
12863.6,6.11115,0.199891,2.258,11.0254,722,0,
12863.6,6.11053,0.202943,2.258,11.0254,722,0,
12863.6,6.11053,0.199891,2.258,11.0254,722,0,
12863.6,6.11145,0.199891,2.258,11.0254,722,0,
12863.6,6.11115,0.202943,2.258,11.0254,722,0,
12863.6,6.10657,0.198365,2.258,11.0254,722,0,
12863.6,6.10626,0.202943,2.258,11.0254,722,0,
12863.6,6.10626,0.201417,2.258,11.0254,722,0,
12863.6,6.10657,0.201417,2.258,11.0254,722,0,
12863.6,6.10657,0.204469,2.258,11.0254,722,0,
12863.6,6.10626,0.202943,2.258,11.0254,722,0,
12863.6,6.10657,0.198365,2.258,11.0254,722,0,
12863.6,6.10565,0.199891,2.258,11.0254,722,0,
12863.6,6.10626,0.202943,2.258,11.0254,722,0,
12863.6,6.10535,0.201417,2.258,11.0254,722,0,
12863.6,6.10596,0.202943,2.258,11.0254,722,0,
12863.6,6.10626,0.204469,2.258,11.0254,722,0,
12863.6,6.10565,0.202943,2.258,11.0254,722,0,
12863.6,6.10565,0.202943,2.258,11.0254,722,0,
12863.6,6.10626,0.204469,2.258,11.0254,722,0,
12863.6,6.10535,0.204469,2.258,11.0254,722,0,
12863.6,6.10626,0.202943,2.258,11.0254,722,0,
12863.6,6.10138,0.201417,2.258,11.0254,722,0,
12863.6,6.10077,0.201417,2.258,11.0254,722,0,
12863.6,6.10107,0.201417,2.258,11.0254,722,0,
12863.6,6.10077,0.199891,2.258,11.0254,722,0,
12863.6,6.10138,0.202943,2.258,11.0254,722,0,
12863.6,6.10138,0.201417,2.258,11.0254,722,0,
12863.6,6.10107,0.199891,2.258,11.0254,722,0,
12863.6,6.10138,0.199891,2.258,11.0254,722,0,
12863.6,6.10138,0.202943,2.258,11.0254,722,0,
12863.6,6.10138,0.202943,2.258,11.0254,722,0,
12863.6,6.10046,0.202943,2.258,11.0254,722,0,
12863.6,6.10168,0.201417,2.258,11.0254,722,0,
12863.6,6.10077,0.202943,2.258,11.0254,722,0,
12863.6,6.10107,0.199891,2.258,11.0254,722,0,
12863.6,6.10168,0.202943,2.258,11.0254,722,0,
12863.6,6.10107,0.198365,2.258,11.0254,722,0,
12863.7,6.10077,0.202943,2.258,11.0254,722,0,
12863.7,6.09985,0.201417,2.258,11.0254,722,0,
12863.7,6.09711,0.201417,2.258,11.0254,722,0,
12863.7,6.09589,0.202943,2.258,11.0254,722,0,
12863.7,6.09711,0.199891,2.258,11.0254,722,0,
12863.7,6.0965,0.199891,2.258,11.0254,722,0,
12863.7,6.09711,0.202943,2.258,11.0254,722,0,
12863.7,6.09772,0.199891,2.258,11.0254,722,0,
12863.7,6.0965,0.199891,2.258,11.0254,722,0,
12863.7,6.0965,0.202943,2.258,11.0254,722,0,
12863.7,6.09711,0.201417,2.258,11.0254,722,0,
12863.7,6.0968,0.201417,2.258,11.0254,722,0,
12863.7,6.09711,0.201417,2.258,11.0254,722,0,
12863.7,6.0968,0.201417,2.258,11.0254,722,0,
12863.7,6.0968,0.198365,2.258,11.0254,722,0,
12863.7,6.0968,0.199891,2.258,11.0254,722,0,
12863.7,6.0968,0.201417,2.258,11.0254,722,0,
12863.7,6.0968,0.201417,2.258,11.0254,722,0,
12863.7,6.09619,0.201417,2.258,11.0254,722,0,
12863.7,6.09161,0.199891,2.258,11.0254,722,0,
12863.7,6.0907,0.199891,2.258,11.0254,722,0,
12863.7,6.09131,0.199891,2.258,11.0254,722,0,
12863.7,6.09131,0.201417,2.258,11.0254,722,0,
12863.7,6.0907,0.202943,2.258,11.0254,722,0,
12863.7,6.0907,0.198365,2.258,11.0254,722,0,
12863.7,6.09039,0.199891,2.258,11.0254,722,0,
12863.7,6.0907,0.202943,2.258,11.0254,722,0,
12863.7,6.09131,0.202943,2.258,11.0254,722,0,
12863.7,6.09131,0.204469,2.258,11.0254,722,0,
12863.7,6.0907,0.201417,2.258,11.0254,722,0,
12863.7,6.09131,0.198365,2.258,11.0254,722,0,
12863.7,6.09039,0.202943,2.258,11.0254,722,0,
12863.7,6.091,0.202943,2.258,11.0254,722,0,
12863.7,6.091,0.202943,2.258,11.0254,722,0,
12863.7,6.09161,0.201417,2.258,11.0254,722,0,
12863.7,6.09161,0.199891,2.258,11.0254,722,0,
12863.7,6.08673,0.202943,2.258,11.0254,722,0,
12863.7,6.08551,0.202943,2.258,11.0254,722,0,
12863.7,6.08612,0.198365,2.258,11.0254,722,0,
12863.7,6.08612,0.204469,2.258,11.0254,722,0,
12863.7,6.08643,0.199891,2.258,11.0254,722,0,
12863.7,6.08704,0.201417,2.258,11.0254,722,0,
12863.7,6.08612,0.199891,2.258,11.0254,722,0,
12863.7,6.08612,0.201417,2.258,11.0254,722,0,
12863.7,6.08612,0.201417,2.258,11.0254,722,0,
12863.7,6.08612,0.202943,2.258,11.0254,722,0,
12863.7,6.08673,0.198365,2.258,11.0254,722,0,
12863.7,6.08643,0.201417,2.258,11.0254,722,0,
12863.7,6.08673,0.199891,2.258,11.0254,722,0,
12863.8,6.08673,0.199891,2.258,11.0254,722,0,
12863.8,6.08612,0.201417,2.258,11.0254,722,0,
12863.8,6.08673,0.196839,2.258,11.0254,722,0,
12863.8,6.08673,0.201417,2.258,11.0254,722,0,
12863.8,6.08612,0.201417,2.258,11.0254,722,0,
12863.8,6.08154,0.204469,2.258,11.0254,722,0,
12863.8,6.08154,0.198365,2.258,11.0254,722,0,
12863.8,6.08154,0.201417,2.258,11.0254,722,0,
12863.8,6.08124,0.199891,2.258,11.0254,722,0,
12863.8,6.08215,0.198365,2.258,11.0254,722,0,
12863.8,6.08185,0.201417,2.258,11.0254,722,0,
12863.8,6.08154,0.201417,2.258,11.0254,722,0,
12863.8,6.08185,0.202943,2.258,11.0254,722,0,
12863.8,6.08246,0.201417,2.258,11.0254,722,0,
12863.8,6.08124,0.204469,2.258,11.0254,722,0,
12863.8,6.08185,0.199891,2.258,11.0254,722,0,
12863.8,6.08124,0.201417,2.258,11.0254,722,0,
12863.8,6.08154,0.201417,2.258,11.0254,722,0,
12863.8,6.08154,0.201417,2.258,11.0254,722,0,
12863.8,6.08154,0.202943,2.258,11.0254,722,0,
12863.8,6.08124,0.201417,2.258,11.0254,722,0,
12863.8,6.08154,0.202943,2.258,11.0254,722,0,
12863.8,6.08215,0.201417,2.258,11.0254,722,0,
12863.8,6.07727,0.198365,2.258,11.0254,722,0,
12863.8,6.07666,0.199891,2.258,11.0254,722,0,
12863.8,6.07666,0.204469,2.258,11.0254,722,0,
12863.8,6.07605,0.204469,2.258,11.0254,722,0,
12863.8,6.07666,0.201417,2.258,11.0254,722,0,
12863.8,6.07635,0.202943,2.258,11.0254,722,0,
12863.8,6.07697,0.201417,2.258,11.0254,722,0,
12863.8,6.07605,0.201417,2.258,11.0254,722,0,
12863.8,6.07727,0.201417,2.258,11.0254,722,0,
12863.8,6.07574,0.201417,2.258,11.0254,722,0,
12863.8,6.07697,0.201417,2.258,11.0254,722,0,
12863.8,6.07635,0.199891,2.258,11.0254,722,0,
12863.8,6.07635,0.199891,2.258,11.0254,722,0,
12863.8,6.07666,0.202943,2.258,11.0254,722,0,
12863.8,6.07666,0.199891,2.258,11.0254,722,0,
12863.8,6.07666,0.199891,2.258,11.0254,722,0,
12863.8,6.07697,0.198365,2.258,11.0254,722,0,
12863.8,6.07697,0.201417,2.258,11.0254,722,0,
12863.8,6.07697,0.199891,2.258,11.0254,722,0,
12863.8,6.07697,0.199891,2.258,11.0254,722,0,
12863.8,6.07178,0.198365,2.258,11.0254,722,0,
12863.8,6.07178,0.204469,2.258,11.0254,722,0,
12863.8,6.07147,0.202943,2.258,11.0254,722,0,
12863.8,6.07147,0.202943,2.258,11.0254,722,0,
12863.8,6.07147,0.202943,2.258,11.0254,722,0,
12863.8,6.07178,0.202943,2.258,11.0254,722,0,
12863.8,6.07208,0.201417,2.258,11.0254,722,0,
12863.9,6.07208,0.201417,2.258,11.0254,722,0,
12863.9,6.07086,0.199891,2.258,11.0254,722,0,
12863.9,6.07178,0.199891,2.258,11.0254,722,0,
12863.9,6.07147,0.198365,2.258,11.0254,722,0,
12863.9,6.07208,0.202943,2.258,11.0254,722,0,
12863.9,6.07147,0.201417,2.258,11.0254,722,0,
12863.9,6.07208,0.201417,2.258,11.0254,722,0,
12863.9,6.07178,0.202943,2.258,11.0254,722,0,
12863.9,6.07208,0.198365,2.258,11.0254,722,0,
12863.9,6.07208,0.202943,2.258,11.0254,722,0,
12863.9,6.07117,0.202943,2.258,11.0254,722,0,
12863.9,6.07178,0.202943,2.258,11.0254,722,0,
12863.9,6.07178,0.202943,2.258,11.0254,722,0,
12863.9,6.07208,0.202943,2.258,11.0254,722,0,
12863.9,6.07117,0.201417,2.258,11.0254,722,0,
12863.9,6.07208,0.202943,2.258,11.0254,722,0,
12863.9,6.07117,0.201417,2.258,11.0254,722,0,
12863.9,6.0675,0.201417,2.258,11.0254,722,0,
12863.9,6.06659,0.202943,2.258,11.0254,722,0,
12863.9,6.06689,0.201417,2.258,11.0254,722,0,
12863.9,6.0672,0.199891,2.258,11.0254,722,0,
12863.9,6.06598,0.201417,2.258,11.0254,722,0,
12863.9,6.06628,0.199891,2.258,11.0254,722,0,
12863.9,6.06689,0.201417,2.258,11.0254,722,0,
12863.9,6.0675,0.201417,2.258,11.0254,722,0,
12863.9,6.0672,0.202943,2.258,11.0254,722,0,
12863.9,6.06659,0.202943,2.258,11.0254,722,0,
12863.9,6.06689,0.201417,2.258,11.0254,722,0,
12863.9,6.0672,0.199891,2.258,11.0254,722,0,
12863.9,6.06659,0.201417,2.258,11.0254,722,0,
12863.9,6.06659,0.198365,2.258,11.0254,722,0,
12863.9,6.06689,0.201417,2.258,11.0254,722,0,
12863.9,6.0672,0.201417,2.258,11.0254,722,0,
12863.9,6.06689,0.201417,2.258,11.0254,722,0,
12863.9,6.06689,0.202943,2.258,11.0254,722,0,
12863.9,6.06689,0.199891,2.258,11.0254,722,0,
12863.9,6.06628,0.204469,2.258,11.0254,722,0,
12863.9,6.0672,0.205995,2.258,11.0254,722,0,
12863.9,6.0672,0.198365,2.258,11.0254,722,0,
12863.9,6.0672,0.198365,2.258,11.0254,722,0,
12863.9,6.0672,0.199891,2.258,11.0254,722,0,
12863.9,6.0672,0.198365,2.258,11.0254,722,0,
12863.9,6.06781,0.201417,2.258,11.0254,722,0,
12863.9,6.06689,0.201417,2.258,11.0254,722,0,
12863.9,6.06689,0.201417,2.258,11.0254,722,0,
12863.9,6.0672,0.199891,2.258,11.0254,722,0,
12863.9,6.0672,0.201417,2.258,11.0254,722,0,
12863.9,6.06812,0.202943,2.258,11.0254,722,0,
12863.9,6.0675,0.202943,2.258,11.0254,722,0,
12863.9,6.06689,0.199891,2.258,11.0254,722,0,
12864,6.0672,0.199891,2.258,11.0254,722,0,
12864,6.06659,0.199891,2.258,11.0254,722,0,
12864,6.0672,0.202943,2.258,11.0254,722,0,
12864,6.06659,0.201417,2.258,11.0254,722,0,
12864,6.0672,0.202943,2.258,11.0254,722,0,
12864,6.0675,0.199891,2.258,11.0254,722,0,
12864,6.06689,0.201417,2.258,11.0254,722,0,
12864,6.0672,0.201417,2.258,11.0254,722,0,
12864,6.06689,0.199891,2.258,11.0254,722,0,
12864,6.06659,0.201417,2.258,11.0254,722,0,
12864,6.06659,0.202943,2.258,11.0254,722,0,
12864,6.06293,0.198365,2.258,11.0254,722,0,
12864,6.0614,0.202943,2.258,11.0254,722,0,
12864,6.06293,0.201417,2.258,11.0254,722,0,
12864,6.06262,0.198365,2.258,11.0254,722,0,
12864,6.06293,0.198365,2.258,11.0254,722,0,
12864,6.06262,0.202943,2.258,11.0254,722,0,
12864,6.06171,0.199891,2.258,11.0254,722,0,
12864,6.06232,0.199891,2.258,11.0254,722,0,
12864,6.06201,0.198365,2.258,11.0254,722,0,
12864,6.06293,0.199891,2.258,11.0254,722,0,
12864,6.06293,0.199891,2.258,11.0254,722,0,
12864,6.06262,0.198365,2.258,11.0254,722,0,
12864,6.06262,0.198365,2.258,11.0254,722,0,
12864,6.06262,0.202943,2.258,11.0254,722,0,
12864,6.06201,0.199891,2.258,11.0254,722,0,
12864,6.06201,0.196839,2.258,11.0254,722,0,
12864,6.06293,0.201417,2.258,11.0254,722,0,
12864,6.06201,0.196839,2.258,11.0254,722,0,
12864,6.06201,0.201417,2.258,11.0254,722,0,
12864,6.06201,0.198365,2.258,11.0254,722,0,
12864,6.06262,0.201417,2.258,11.0254,722,0,
12864,6.06201,0.201417,2.258,11.0254,722,0,
12864,6.06232,0.201417,2.258,11.0254,722,0,
12864,6.06201,0.199891,2.258,11.0254,722,0,
12864,6.06201,0.198365,2.258,11.0254,722,0,
12864,6.06232,0.199891,2.258,11.0254,722,0,
12864,6.06171,0.202943,2.258,11.0254,722,0,
12864,6.06171,0.199891,2.258,11.0254,722,0,
12864,6.06201,0.199891,2.258,11.0254,722,0,
12864,6.0614,0.199891,2.258,11.0254,722,0,
12864,6.06171,0.202943,2.258,11.0254,722,0,
12864,6.06171,0.201417,2.258,11.0254,722,0,
12864,6.06201,0.199891,2.258,11.0254,722,0,
12864,6.06201,0.202943,2.258,11.0254,722,0,
12864,6.06232,0.201417,2.258,11.0254,722,0,
12864,6.06262,0.205995,2.258,11.0254,722,0,
12864,6.06171,0.201417,2.258,11.0254,722,0,
12864,6.0614,0.204469,2.258,11.0254,722,0,
12864,6.06201,0.196839,2.258,11.0254,722,0,
12864,6.06171,0.198365,2.258,11.0254,722,0,
12864.1,6.0614,0.201417,2.258,11.0254,722,0,
12864.1,6.06232,0.201417,2.258,11.0254,722,0,
12864.1,6.06232,0.201417,2.258,11.0254,722,0,
12864.1,6.06201,0.198365,2.258,11.0254,722,0,
12864.1,6.06201,0.199891,2.258,11.0254,722,0,
12864.1,6.06171,0.199891,2.258,11.0254,722,0,
12864.1,6.06201,0.202943,2.258,11.0254,722,0,
12864.1,6.06232,0.202943,2.258,11.0254,722,0,
12864.1,6.0614,0.201417,2.258,11.0254,722,0,
12864.1,6.06201,0.198365,2.258,11.0254,722,0,
12864.1,6.06201,0.201417,2.258,11.0254,722,0,
12864.1,6.06232,0.201417,2.258,11.0254,722,0,
12864.1,6.05682,0.199891,2.258,11.0254,722,0,
12864.1,6.05774,0.199891,2.258,11.0254,722,0,
12864.1,6.05743,0.201417,2.258,11.0254,722,0,
12864.1,6.05652,0.199891,2.258,11.0254,722,0,
12864.1,6.05774,0.202943,2.258,11.0254,722,0,
12864.1,6.05713,0.199891,2.258,11.0254,722,0,
12864.1,6.05713,0.201417,2.258,11.0254,722,0,
12864.1,6.05743,0.202943,2.258,11.0254,722,0,
12864.1,6.05743,0.198365,2.258,11.0254,722,0,
12864.1,6.05713,0.202943,2.258,11.0254,722,0,
12864.1,6.05743,0.201417,2.258,11.0254,722,0,
12864.1,6.05743,0.199891,2.258,11.0254,722,0,
12864.1,6.05743,0.201417,2.258,11.0254,722,0,
12864.1,6.05743,0.199891,2.258,11.0254,722,0,
12864.1,6.05713,0.201417,2.258,11.0254,722,0,
12864.1,6.05713,0.199891,2.258,11.0254,722,0,
12864.1,6.05713,0.201417,2.258,11.0254,722,0,
12864.1,6.05774,0.201417,2.258,11.0254,722,0,
12864.1,6.05713,0.198365,2.258,11.0254,722,0,
12864.1,6.05713,0.201417,2.258,11.0254,722,0,
12864.1,6.05774,0.201417,2.258,11.0254,722,0,
12864.1,6.05743,0.202943,2.258,11.0254,722,0,
12864.1,6.05713,0.198365,2.258,11.0254,722,0,
12864.1,6.05743,0.196839,2.258,11.0254,722,0,
12864.1,6.05682,0.201417,2.258,11.0254,722,0,
12864.1,6.05682,0.201417,2.258,11.0254,722,0,
12864.1,6.05682,0.198365,2.258,11.0254,722,0,
12864.1,6.05225,0.201417,2.258,11.0254,722,0,
12864.1,6.05286,0.199891,2.258,11.0254,722,0,
12864.1,6.05286,0.198365,2.258,11.0254,722,0,
12864.1,6.05225,0.205995,2.258,11.0254,722,0,
12864.1,6.05286,0.198365,2.258,11.0254,722,0,
12864.1,6.05225,0.201417,2.258,11.0254,722,0,
12864.1,6.05194,0.198365,2.258,11.0254,722,0,
12864.1,6.05194,0.201417,2.258,11.0254,722,0,
12864.1,6.05194,0.198365,2.258,11.0254,722,0,
12864.1,6.05225,0.201417,2.258,11.0254,722,0,
12864.1,6.05164,0.199891,2.258,11.0254,722,0,
12864.2,6.05225,0.199891,2.258,11.0254,722,0,
12864.2,6.05225,0.199891,2.258,11.0254,722,0,
12864.2,6.05286,0.201417,2.258,11.0254,722,0,
12864.2,6.05316,0.198365,2.258,11.0254,722,0,
12864.2,6.05194,0.201417,2.258,11.0254,722,0,
12864.2,6.05255,0.202943,2.258,11.0254,722,0,
12864.2,6.05255,0.202943,2.258,11.0254,722,0,
12864.2,6.05194,0.202943,2.258,11.0254,722,0,
12864.2,6.05225,0.201417,2.258,11.0254,722,0,
12864.2,6.05255,0.201417,2.258,11.0254,722,0,
12864.2,6.04706,0.199891,2.258,11.0254,722,0,
12864.2,6.04645,0.201417,2.258,11.0254,722,0,
12864.2,6.04797,0.202943,2.258,11.0254,722,0,
12864.2,6.04736,0.199891,2.258,11.0254,722,0,
12864.2,6.04767,0.201417,2.258,11.0254,722,0,
12864.2,6.04767,0.201417,2.258,11.0254,722,0,
12864.2,6.04767,0.202943,2.258,11.0254,722,0,
12864.2,6.04736,0.196839,2.258,11.0254,722,0,
12864.2,6.04706,0.201417,2.258,11.0254,722,0,
12864.2,6.04736,0.202943,2.258,11.0254,722,0,
12864.2,6.04706,0.201417,2.258,11.0254,722,0,
12864.2,6.04706,0.199891,2.258,11.0254,722,0,
12864.2,6.04767,0.204469,2.258,11.0254,722,0,
12864.2,6.04736,0.205995,2.258,11.0254,722,0,
12864.2,6.04736,0.201417,2.258,11.0254,722,0,
12864.2,6.04614,0.199891,2.258,11.0254,722,0,
12864.2,6.04736,0.201417,2.258,11.0254,722,0,
12864.2,6.04218,0.202943,2.258,11.0254,722,0,
12864.2,6.04187,0.201417,2.258,11.0254,722,0,
12864.2,6.04279,0.202943,2.258,11.0254,722,0,
12864.2,6.04218,0.201417,2.258,11.0254,722,0,
12864.2,6.04156,0.199891,2.258,11.0254,722,0,
12864.2,6.04218,0.204469,2.258,11.0254,722,0,
12864.2,6.04248,0.201417,2.258,11.0254,722,0,
12864.2,6.04279,0.199891,2.258,11.0254,722,0,
12864.2,6.04248,0.199891,2.258,11.0254,722,0,
12864.2,6.04248,0.201417,2.258,11.0254,722,0,
12864.2,6.04279,0.201417,2.258,11.0254,722,0,
12864.2,6.04218,0.202943,2.258,11.0254,722,0,
12864.2,6.04218,0.201417,2.258,11.0254,722,0,
12864.2,6.04218,0.202943,2.258,11.0254,722,0,
12864.2,6.04248,0.204469,2.258,11.0254,722,0,
12864.2,6.04248,0.202943,2.258,11.0254,722,0,
12864.2,6.03729,0.202943,2.258,11.0254,722,0,
12864.2,6.0376,0.199891,2.258,11.0254,722,0,
12864.2,6.03729,0.199891,2.258,11.0254,722,0,
12864.2,6.03699,0.199891,2.258,11.0254,722,0,
12864.2,6.03699,0.199891,2.258,11.0254,722,0,
12864.2,6.03699,0.201417,2.258,11.0254,722,0,
12864.2,6.0376,0.201417,2.258,11.0254,722,0,
12864.3,6.0376,0.204469,2.258,11.0254,722,0,
12864.3,6.03699,0.195313,2.258,11.0254,722,0,
12864.3,6.0379,0.198365,2.258,11.0254,722,0,
12864.3,6.03699,0.201417,2.258,11.0254,722,0,
12864.3,6.03729,0.199891,2.258,11.0254,722,0,
12864.3,6.0376,0.201417,2.258,11.0254,722,0,
12864.3,6.03729,0.201417,2.258,11.0254,722,0,
12864.3,6.0376,0.201417,2.258,11.0254,722,0,
12864.3,6.03546,0.201417,2.258,11.0254,722,0,
12864.3,6.03271,0.202943,2.258,11.0254,722,0,
12864.3,6.03302,0.202943,2.258,11.0254,722,0,
12864.3,6.03241,0.196839,2.258,11.0254,722,0,
12864.3,6.03302,0.201417,2.258,11.0254,722,0,
12864.3,6.03271,0.201417,2.258,11.0254,722,0,
12864.3,6.03241,0.199891,2.258,11.0254,722,0,
12864.3,6.0321,0.199891,2.258,11.0254,722,0,
12864.3,6.03302,0.202943,2.258,11.0254,722,0,
12864.3,6.0321,0.202943,2.258,11.0254,722,0,
12864.3,6.03333,0.202943,2.258,11.0254,722,0,
12864.3,6.03271,0.204469,2.258,11.0254,722,0,
12864.3,6.03271,0.205995,2.258,11.0254,722,0,
12864.3,6.03333,0.198365,2.258,11.0254,722,0,
12864.3,6.03241,0.199891,2.258,11.0254,722,0,
12864.3,6.03271,0.202943,2.258,11.0254,722,0,
12864.3,6.02905,0.202943,2.258,11.0254,722,0,
12864.3,6.02783,0.199891,2.258,11.0254,722,0,
12864.3,6.02783,0.201417,2.258,11.0254,722,0,
12864.3,6.02722,0.199891,2.258,11.0254,722,0,
12864.3,6.02753,0.199891,2.258,11.0254,722,0,
12864.3,6.02753,0.201417,2.258,11.0254,722,0,
12864.3,6.02844,0.198365,2.258,11.0254,722,0,
12864.3,6.02753,0.201417,2.258,11.0254,722,0,
12864.3,6.02753,0.201417,2.258,11.0254,722,0,
12864.3,6.02783,0.202943,2.258,11.0254,722,0,
12864.3,6.02753,0.199891,2.258,11.0254,722,0,
12864.3,6.02722,0.201417,2.258,11.0254,722,0,
12864.3,6.02753,0.201417,2.258,11.0254,722,0,
12864.3,6.02722,0.199891,2.258,11.0254,722,0,
12864.3,6.02814,0.201417,2.258,11.0254,722,0,
12864.3,6.02722,0.202943,2.258,11.0254,722,0,
12864.3,6.02234,0.202943,2.258,11.0254,722,0,
12864.3,6.02295,0.202943,2.258,11.0254,722,0,
12864.3,6.02325,0.199891,2.258,11.0254,722,0,
12864.3,6.02325,0.198365,2.258,11.0254,722,0,
12864.3,6.02234,0.204469,2.258,11.0254,722,0,
12864.3,6.02325,0.198365,2.258,11.0254,722,0,
12864.3,6.02264,0.199891,2.258,11.0254,722,0,
12864.3,6.02325,0.201417,2.258,11.0254,722,0,
12864.3,6.02203,0.198365,2.258,11.0254,722,0,
12864.4,6.02264,0.201417,2.258,11.0254,722,0,
12864.4,6.02356,0.198365,2.258,11.0254,722,0,
12864.4,6.02356,0.198365,2.258,11.0254,722,0,
12864.4,6.02234,0.201417,2.258,11.0254,722,0,
12864.4,6.02264,0.202943,2.258,11.0254,722,0,
12864.4,6.02325,0.204469,2.258,11.0254,722,0,
12864.4,6.02234,0.198365,2.258,11.0254,722,0,
12864.4,6.02081,0.202943,2.258,11.0254,722,0,
12864.4,6.01807,0.198365,2.258,11.0254,722,0,
12864.4,6.01807,0.199891,2.258,11.0254,722,0,
12864.4,6.01837,0.201417,2.258,11.0254,722,0,
12864.4,6.01746,0.198365,2.258,11.0254,722,0,
12864.4,6.01776,0.201417,2.258,11.0254,722,0,
12864.4,6.01776,0.199891,2.258,11.0254,722,0,
12864.4,6.01746,0.201417,2.258,11.0254,722,0,
12864.4,6.01807,0.199891,2.258,11.0254,722,0,
12864.4,6.01868,0.202943,2.258,11.0254,722,0,
12864.4,6.01837,0.198365,2.258,11.0254,722,0,
12864.4,6.01776,0.199891,2.258,11.0254,722,0,
12864.4,6.01776,0.202943,2.258,11.0254,722,0,
12864.4,6.01776,0.201417,2.258,11.0254,722,0,
12864.4,6.01837,0.201417,2.258,11.0254,722,0,
12864.4,6.01746,0.202943,2.258,11.0254,722,0,
12864.4,6.01746,0.201417,2.258,11.0254,722,0,
12864.4,6.01868,0.198365,2.258,11.0254,722,0,
12864.4,6.01318,0.202943,2.258,11.0254,722,0,
12864.4,6.01318,0.199891,2.258,11.0254,722,0,
12864.4,6.01257,0.198365,2.258,11.0254,722,0,
12864.4,6.01318,0.199891,2.258,11.0254,722,0,
12864.4,6.01318,0.201417,2.258,11.0254,722,0,
12864.4,6.01318,0.199891,2.258,11.0254,722,0,
12864.4,6.01288,0.201417,2.258,11.0254,722,0,
12864.4,6.01288,0.201417,2.258,11.0254,722,0,
12864.4,6.01288,0.202943,2.258,11.0254,722,0,
12864.4,6.01349,0.199891,2.258,11.0254,722,0,
12864.4,6.01349,0.199891,2.258,11.0254,722,0,
12864.4,6.01349,0.201417,2.258,11.0254,722,0,
12864.4,6.01349,0.204469,2.258,11.0254,722,0,
12864.4,6.01349,0.199891,2.258,11.0254,722,0,
12864.4,6.01288,0.195313,2.258,11.0254,722,0,
12864.4,6.01349,0.201417,2.258,11.0254,722,0,
12864.4,6.01349,0.201417,2.258,11.0254,722,0,
12864.4,6.01318,0.198365,2.258,11.0254,722,0,
12864.4,6.00922,0.204469,2.258,11.0254,722,0,
12864.4,6.00891,0.199891,2.258,11.0254,722,0,
12864.4,6.00922,0.201417,2.258,11.0254,722,0,
12864.4,6.00861,0.201417,2.258,11.0254,722,0,
12864.4,6.00891,0.199891,2.258,11.0254,722,0,
12864.4,6.00861,0.204469,2.258,11.0254,722,0,
12864.4,6.00861,0.199891,2.258,11.0254,722,0,
12864.5,6.0083,0.201417,2.258,11.0254,722,0,
12864.5,6.0083,0.202943,2.258,11.0254,722,0,
12864.5,6.00861,0.199891,2.258,11.0254,722,0,
12864.5,6.00769,0.204469,2.258,11.0254,722,0,
12864.5,6.00861,0.199891,2.258,11.0254,722,0,
12864.5,6.00861,0.201417,2.258,11.0254,722,0,
12864.5,6.00769,0.196839,2.258,11.0254,722,0,
12864.5,6.00708,0.201417,2.258,11.0254,722,0,
12864.5,6.00769,0.204469,2.258,11.0254,722,0,
12864.5,6.008,0.196839,2.258,11.0254,722,0,
12864.5,6.00769,0.198365,2.258,11.0254,722,0,
12864.5,6.00769,0.201417,2.258,11.0254,722,0,
12864.5,6.00555,0.198365,2.258,11.0254,722,0,
12864.5,6.00342,0.201417,2.258,11.0254,722,0,
12864.5,6.00342,0.201417,2.258,11.0254,722,0,
12864.5,6.00372,0.201417,2.258,11.0254,722,0,
12864.5,6.00311,0.198365,2.258,11.0254,722,0,
12864.5,6.00311,0.205995,2.258,11.0254,722,0,
12864.5,6.0025,0.199891,2.258,11.0254,722,0,
12864.5,6.00311,0.196839,2.258,11.0254,722,0,
12864.5,6.00281,0.202943,2.258,11.0254,722,0,
12864.5,6.00342,0.201417,2.258,11.0254,722,0,
12864.5,6.0025,0.199891,2.258,11.0254,722,0,
12864.5,6.00311,0.199891,2.258,11.0254,722,0,
12864.5,6.00372,0.201417,2.258,11.0254,722,0,
12864.5,6.00342,0.201417,2.258,11.0254,722,0,
12864.5,6.00311,0.199891,2.258,11.0254,722,0,
12864.5,6.00281,0.201417,2.258,11.0254,722,0,
12864.5,6.00311,0.202943,2.258,11.0254,722,0,
12864.5,6.00281,0.199891,2.258,11.0254,722,0,
12864.5,6.00342,0.199891,2.258,11.0254,722,0,
12864.5,6.00311,0.199891,2.258,11.0254,722,0,
12864.5,5.99884,0.201417,2.258,11.0254,722,0,
12864.5,5.99823,0.198365,2.258,11.0254,722,0,
12864.5,5.99792,0.201417,2.258,11.0254,722,0,
12864.5,5.99854,0.201417,2.258,11.0254,722,0,
12864.5,5.99823,0.199891,2.258,11.0254,722,0,
12864.5,5.99854,0.201417,2.258,11.0254,722,0,
12864.5,5.99792,0.202943,2.258,11.0254,722,0,
12864.5,5.99823,0.199891,2.258,11.0254,722,0,
12864.5,5.99823,0.201417,2.258,11.0254,722,0,
12864.5,5.99823,0.201417,2.258,11.0254,722,0,
12864.5,5.99823,0.201417,2.258,11.0254,722,0,
12864.5,5.99854,0.196839,2.258,11.0254,722,0,
12864.5,5.99823,0.201417,2.258,11.0254,722,0,
12864.5,5.99854,0.199891,2.258,11.0254,722,0,
12864.5,5.99823,0.201417,2.258,11.0254,722,0,
12864.5,5.99854,0.202943,2.258,11.0254,722,0,
12864.5,5.99823,0.201417,2.258,11.0254,722,0,
12864.5,5.99823,0.202943,2.258,11.0254,722,0,
12864.5,5.99792,0.201417,2.258,11.0254,722,0,
12864.6,5.99884,0.198365,2.258,11.0254,722,0,
12864.6,5.99854,0.201417,2.258,11.0254,722,0,
12864.6,5.99335,0.199891,2.258,11.0254,722,0,
12864.6,5.99243,0.199891,2.258,11.0254,722,0,
12864.6,5.99243,0.199891,2.258,11.0254,722,0,
12864.6,5.99396,0.201417,2.258,11.0254,722,0,
12864.6,5.99335,0.202943,2.258,11.0254,722,0,
12864.6,5.99304,0.199891,2.258,11.0254,722,0,
12864.6,5.99335,0.199891,2.258,11.0254,722,0,
12864.6,5.99396,0.199891,2.258,11.0254,722,0,
12864.6,5.99304,0.196839,2.258,11.0254,722,0,
12864.6,5.99335,0.201417,2.258,11.0254,722,0,
12864.6,5.99304,0.201417,2.258,11.0254,722,0,
12864.6,5.99304,0.199891,2.258,11.0254,722,0,
12864.6,5.99335,0.201417,2.258,11.0254,722,0,
12864.6,5.99335,0.201417,2.258,11.0254,722,0,
12864.6,5.99335,0.204469,2.258,11.0254,722,0,
12864.6,5.99304,0.202943,2.258,11.0254,722,0,
12864.6,5.99365,0.202943,2.258,11.0254,722,0,
12864.6,5.99335,0.198365,2.258,11.0254,722,0,
12864.6,5.99304,0.199891,2.258,11.0254,722,0,
12864.6,5.99335,0.199891,2.258,11.0254,722,0,
12864.6,5.99152,0.199891,2.258,11.0254,722,0,
12864.6,5.98846,0.199891,2.258,11.0254,722,0,
12864.6,5.98846,0.202943,2.258,11.0254,722,0,
12864.6,5.98785,0.202943,2.258,11.0254,722,0,
12864.6,5.98938,0.198365,2.258,11.0254,722,0,
12864.6,5.98907,0.202943,2.258,11.0254,722,0,
12864.6,5.98846,0.201417,2.258,11.0254,722,0,
12864.6,5.98877,0.202943,2.258,11.0254,722,0,
12864.6,5.98846,0.199891,2.258,11.0254,722,0,
12864.6,5.98877,0.199891,2.258,11.0254,722,0,
12864.6,5.98846,0.201417,2.258,11.0254,722,0,
12864.6,5.98816,0.201417,2.258,11.0254,722,0,
12864.6,5.98877,0.199891,2.258,11.0254,722,0,
12864.6,5.98785,0.201417,2.258,11.0254,722,0,
12864.6,5.98907,0.198365,2.258,11.0254,722,0,
12864.6,5.98785,0.199891,2.258,11.0254,722,0,
12864.6,5.98816,0.202943,2.258,11.0254,722,0,
12864.6,5.98907,0.202943,2.258,11.0254,722,0,
12864.6,5.98816,0.202943,2.258,11.0254,722,0,
12864.6,5.98846,0.199891,2.258,11.0254,722,0,
12864.6,5.98419,0.202943,2.258,11.0254,722,0,
12864.6,5.98328,0.199891,2.258,11.0254,722,0,
12864.6,5.98419,0.202943,2.258,11.0254,722,0,
12864.6,5.98358,0.202943,2.258,11.0254,722,0,
12864.6,5.98358,0.202943,2.258,11.0254,722,0,
12864.6,5.98389,0.199891,2.258,11.0254,722,0,
12864.6,5.98358,0.199891,2.258,11.0254,722,0,
12864.6,5.98389,0.202943,2.258,11.0254,722,0,
12864.7,5.98419,0.199891,2.258,11.0254,722,0,
12864.7,5.98328,0.199891,2.258,11.0254,722,0,
12864.7,5.98358,0.202943,2.258,11.0254,722,0,
12864.7,5.98358,0.198365,2.258,11.0254,722,0,
12864.7,5.98297,0.201417,2.258,11.0254,722,0,
12864.7,5.98389,0.201417,2.258,11.0254,722,0,
12864.7,5.98328,0.201417,2.258,11.0254,722,0,
12864.7,5.98267,0.201417,2.258,11.0254,722,0,
12864.7,5.98419,0.199891,2.258,11.0254,722,0,
12864.7,5.97931,0.201417,2.258,11.0254,722,0,
12864.7,5.9787,0.201417,2.258,11.0254,722,0,
12864.7,5.9787,0.201417,2.258,11.0254,722,0,
12864.7,5.979,0.204469,2.258,11.0254,722,0,
12864.7,5.979,0.198365,2.258,11.0254,722,0,
12864.7,5.979,0.201417,2.258,11.0254,722,0,
12864.7,5.97839,0.201417,2.258,11.0254,722,0,
12864.7,5.97839,0.204469,2.258,11.0254,722,0,
12864.7,5.979,0.202943,2.258,11.0254,722,0,
12864.7,5.97839,0.202943,2.258,11.0254,722,0,
12864.7,5.9787,0.202943,2.258,11.0254,722,0,
12864.7,5.9787,0.201417,2.258,11.0254,722,0,
12864.7,5.97839,0.202943,2.258,11.0254,722,0,
12864.7,5.9787,0.201417,2.258,11.0254,722,0,
12864.7,5.9787,0.202943,2.258,11.0254,722,0,
12864.7,5.979,0.199891,2.258,11.0254,722,0,
12864.7,5.97382,0.201417,2.258,11.0254,722,0,
12864.7,5.97412,0.201417,2.258,11.0254,722,0,
12864.7,5.97412,0.202943,2.258,11.0254,722,0,
12864.7,5.97382,0.198365,2.258,11.0254,722,0,
12864.7,5.97504,0.201417,2.258,11.0254,722,0,
12864.7,5.97321,0.204469,2.258,11.0254,722,0,
12864.7,5.97412,0.199891,2.258,11.0254,722,0,
12864.7,5.97412,0.202943,2.258,11.0254,722,0,
12864.7,5.97321,0.202943,2.258,11.0254,722,0,
12864.7,5.97321,0.198365,2.258,11.0254,722,0,
12864.7,5.97351,0.199891,2.258,11.0254,722,0,
12864.7,5.97321,0.201417,2.258,11.0254,722,0,
12864.7,5.97382,0.201417,2.258,11.0254,722,0,
12864.7,5.97351,0.198365,2.258,11.0254,722,0,
12864.7,5.97107,0.204469,2.258,11.0254,722,0,
12864.7,5.96893,0.201417,2.258,11.0254,722,0,
12864.7,5.96954,0.201417,2.258,11.0254,722,0,
12864.7,5.96924,0.199891,2.258,11.0254,722,0,
12864.7,5.96893,0.201417,2.258,11.0254,722,0,
12864.7,5.96893,0.202943,2.258,11.0254,722,0,
12864.7,5.96954,0.201417,2.258,11.0254,722,0,
12864.7,5.96924,0.202943,2.258,11.0254,722,0,
12864.7,5.96863,0.199891,2.258,11.0254,722,0,
12864.7,5.96924,0.198365,2.258,11.0254,722,0,
12864.8,5.96893,0.204469,2.258,11.0254,722,0,
12864.8,5.96954,0.196839,2.258,11.0254,722,0,
12864.8,5.96832,0.202943,2.258,11.0254,722,0,
12864.8,5.96863,0.201417,2.258,11.0254,722,0,
12864.8,5.96954,0.201417,2.258,11.0254,722,0,
12864.8,5.96619,0.199891,2.258,11.0254,722,0,
12864.8,5.96375,0.201417,2.258,11.0254,722,0,
12864.8,5.96436,0.202943,2.258,11.0254,722,0,
12864.8,5.96436,0.202943,2.258,11.0254,722,0,
12864.8,5.96375,0.201417,2.258,11.0254,722,0,
12864.8,5.96375,0.202943,2.258,11.0254,722,0,
12864.8,5.96344,0.201417,2.258,11.0254,722,0,
12864.8,5.96344,0.201417,2.258,11.0254,722,0,
12864.8,5.96344,0.199891,2.258,11.0254,722,0,
12864.8,5.96436,0.199891,2.258,11.0254,722,0,
12864.8,5.96497,0.201417,2.258,11.0254,722,0,
12864.8,5.96405,0.202943,2.258,11.0254,722,0,
12864.8,5.96375,0.198365,2.258,11.0254,722,0,
12864.8,5.96375,0.199891,2.258,11.0254,722,0,
12864.8,5.96436,0.199891,2.258,11.0254,722,0,
12864.8,5.95978,0.204469,2.258,11.0254,722,0,
12864.8,5.95886,0.201417,2.258,11.0254,722,0,
12864.8,5.95886,0.199891,2.258,11.0254,722,0,
12864.8,5.95825,0.202943,2.258,11.0254,722,0,
12864.8,5.95978,0.201417,2.258,11.0254,722,0,
12864.8,5.95917,0.201417,2.258,11.0254,722,0,
12864.8,5.95917,0.198365,2.258,11.0254,722,0,
12864.8,5.95917,0.201417,2.258,11.0254,722,0,
12864.8,5.95917,0.205995,2.258,11.0254,722,0,
12864.8,5.95886,0.202943,2.258,11.0254,722,0,
12864.8,5.95978,0.198365,2.258,11.0254,722,0,
12864.8,5.95917,0.199891,2.258,11.0254,722,0,
12864.8,5.95886,0.201417,2.258,11.0254,722,0,
12864.8,5.95947,0.199891,2.258,11.0254,722,0,
12864.8,5.95917,0.198365,2.258,11.0254,722,0,
12864.8,5.9549,0.202943,2.258,11.0254,722,0,
12864.8,5.95367,0.199891,2.258,11.0254,722,0,
12864.8,5.95428,0.201417,2.258,11.0254,722,0,
12864.8,5.95367,0.202943,2.258,11.0254,722,0,
12864.8,5.95367,0.201417,2.258,11.0254,722,0,
12864.8,5.95398,0.201417,2.258,11.0254,722,0,
12864.8,5.95428,0.201417,2.258,11.0254,722,0,
12864.8,5.95398,0.201417,2.258,11.0254,722,0,
12864.8,5.95428,0.202943,2.258,11.0254,722,0,
12864.8,5.95428,0.201417,2.258,11.0254,722,0,
12864.8,5.95428,0.201417,2.258,11.0254,722,0,
12864.8,5.95428,0.201417,2.258,11.0254,722,0,
12864.8,5.95428,0.199891,2.258,11.0254,722,0,
12864.8,5.95459,0.198365,2.258,11.0254,722,0,
12864.8,5.95337,0.201417,2.258,11.0254,722,0,
12864.9,5.9494,0.202943,2.258,11.0254,722,0,
12864.9,5.94879,0.198365,2.258,11.0254,722,0,
12864.9,5.9494,0.201417,2.258,11.0254,722,0,
12864.9,5.94971,0.199891,2.258,11.0254,722,0,
12864.9,5.9491,0.201417,2.258,11.0254,722,0,
12864.9,5.94971,0.199891,2.258,11.0254,722,0,
12864.9,5.9494,0.201417,2.258,11.0254,722,0,
12864.9,5.9491,0.199891,2.258,11.0254,722,0,
12864.9,5.9491,0.202943,2.258,11.0254,722,0,
12864.9,5.9491,0.204469,2.258,11.0254,722,0,
12864.9,5.9494,0.205995,2.258,11.0254,722,0,
12864.9,5.9494,0.199891,2.258,11.0254,722,0,
12864.9,5.94849,0.199891,2.258,11.0254,722,0,
12864.9,5.9491,0.202943,2.258,11.0254,722,0,
12864.9,5.9491,0.199891,2.258,11.0254,722,0,
12864.9,5.94879,0.201417,2.258,11.0254,722,0,
12864.9,5.94452,0.201417,2.258,11.0254,722,0,
12864.9,5.94391,0.202943,2.258,11.0254,722,0,
12864.9,5.94452,0.199891,2.258,11.0254,722,0,
12864.9,5.94482,0.204469,2.258,11.0254,722,0,
12864.9,5.94452,0.198365,2.258,11.0254,722,0,
12864.9,5.94452,0.199891,2.258,11.0254,722,0,
12864.9,5.9436,0.199891,2.258,11.0254,722,0,
12864.9,5.94452,0.199891,2.258,11.0254,722,0,
12864.9,5.94391,0.201417,2.258,11.0254,722,0,
12864.9,5.94421,0.198365,2.258,11.0254,722,0,
12864.9,5.94421,0.202943,2.258,11.0254,722,0,
12864.9,5.94421,0.201417,2.258,11.0254,722,0,
12864.9,5.94452,0.198365,2.258,11.0254,722,0,
12864.9,5.94452,0.199891,2.258,11.0254,722,0,
12864.9,5.94421,0.201417,2.258,11.0254,722,0,
12864.9,5.94421,0.198365,2.258,11.0254,722,0,
12864.9,5.94421,0.201417,2.258,11.0254,722,0,
12864.9,5.94452,0.199891,2.258,11.0254,722,0,
12864.9,5.94421,0.199891,2.258,11.0254,722,0,
12864.9,5.93994,0.199891,2.258,11.0254,722,0,
12864.9,5.94025,0.199891,2.258,11.0254,722,0,
12864.9,5.93903,0.198365,2.258,11.0254,722,0,
12864.9,5.93964,0.202943,2.258,11.0254,722,0,
12864.9,5.93964,0.202943,2.258,11.0254,722,0,
12864.9,5.93933,0.202943,2.258,11.0254,722,0,
12864.9,5.93994,0.202943,2.258,11.0254,722,0,
12864.9,5.93994,0.196839,2.258,11.0254,722,0,
12864.9,5.93994,0.201417,2.258,11.0254,722,0,
12864.9,5.93933,0.199891,2.258,11.0254,722,0,
12864.9,5.93994,0.201417,2.258,11.0254,722,0,
12864.9,5.93994,0.202943,2.258,11.0254,722,0,
12864.9,5.93903,0.201417,2.258,11.0254,722,0,
12864.9,5.93994,0.202943,2.258,11.0254,722,0,
12864.9,5.93903,0.201417,2.258,11.0254,722,0,
12865,5.93964,0.201417,2.258,11.0254,722,0,
12865,5.94025,0.202943,2.258,11.0254,722,0,
12865,5.93964,0.201417,2.258,11.0254,722,0,
12865,5.93933,0.201417,2.258,11.0254,722,0,
12865,5.93933,0.202943,2.258,11.0254,722,0,
12865,5.93933,0.201417,2.258,11.0254,722,0,
12865,5.93933,0.202943,2.258,11.0254,722,0,
12865,5.93964,0.202943,2.258,11.0254,722,0,
12865,5.93964,0.198365,2.258,11.0254,722,0,
12865,5.93964,0.201417,2.258,11.0254,722,0,
12865,5.93994,0.201417,2.258,11.0254,722,0,
12865,5.93933,0.199891,2.258,11.0254,722,0,
12865,5.93872,0.201417,2.258,11.0254,722,0,
12865,5.93994,0.199891,2.258,11.0254,722,0,
12865,5.93964,0.198365,2.258,11.0254,722,0,
12865,5.93933,0.202943,2.258,11.0254,722,0,
12865,5.93994,0.202943,2.258,11.0254,722,0,
12865,5.93994,0.202943,2.258,11.0254,722,0,
12865,5.93933,0.201417,2.258,11.0254,722,0,
12865,5.94025,0.204469,2.258,11.0254,722,0,
12865,5.93903,0.201417,2.258,11.0254,722,0,
12865,5.93964,0.199891,2.258,11.0254,722,0,
12865,5.93964,0.199891,2.258,11.0254,722,0,
12865,5.93903,0.199891,2.258,11.0254,722,0,
12865,5.93994,0.201417,2.258,11.0254,722,0,
12865,5.93964,0.199891,2.258,11.0254,722,0,
12865,5.93994,0.199891,2.258,11.0254,722,0,
12865,5.93903,0.201417,2.258,11.0254,722,0,
12865,5.93872,0.199891,2.258,11.0254,722,0,
12865,5.93903,0.201417,2.258,11.0254,722,0,
12865,5.93872,0.201417,2.258,11.0254,722,0,
12865,5.93933,0.204469,2.258,11.0254,722,0,
12865,5.93933,0.201417,2.258,11.0254,722,0,
12865,5.93964,0.198365,2.258,11.0254,722,0,
12865,5.93903,0.202943,2.258,11.0254,722,0,
12865,5.93933,0.201417,2.258,11.0254,722,0,
12865,5.93994,0.201417,2.258,11.0254,722,0,
12865,5.93933,0.201417,2.258,11.0254,722,0,
12865,5.93964,0.202943,2.258,11.0254,722,0,
12865,5.93994,0.198365,2.258,11.0254,722,0,
12865,5.93964,0.205995,2.258,11.0254,722,0,
12865,5.93994,0.199891,2.258,11.0254,722,0,
12865,5.93872,0.199891,2.258,11.0254,722,0,
12865,5.93964,0.201417,2.258,11.0254,722,0,
12865,5.93964,0.201417,2.258,11.0254,722,0,
12865,5.93964,0.201417,2.258,11.0254,722,0,
12865,5.94025,0.199891,2.258,11.0254,722,0,
12865,5.93933,0.202943,2.258,11.0254,722,0,
12865,5.93994,0.202943,2.258,11.0254,722,0,
12865,5.93903,0.202943,2.258,11.0254,722,0,
12865,5.93964,0.196839,2.258,11.0254,722,0,
12865.1,5.93933,0.201417,2.258,11.0254,722,0,
12865.1,5.93964,0.196839,2.258,11.0254,722,0,
12865.1,5.93964,0.201417,2.258,11.0254,722,0,
12865.1,5.94025,0.199891,2.258,11.0254,722,0,
12865.1,5.94269,0.198365,2.258,11.0254,722,0,
12865.1,5.94482,0.199891,2.258,11.0254,722,0,
12865.1,5.94421,0.201417,2.258,11.0254,722,0,
12865.1,5.94452,0.201417,2.258,11.0254,722,0,
12865.1,5.94421,0.201417,2.258,11.0254,722,0,
12865.1,5.94452,0.201417,2.258,11.0254,722,0,
12865.1,5.94452,0.202943,2.258,11.0254,722,0,
12865.1,5.94421,0.199891,2.258,11.0254,722,0,
12865.1,5.94452,0.201417,2.258,11.0254,722,0,
12865.1,5.94391,0.202943,2.258,11.0254,722,0,
12865.1,5.94421,0.201417,2.258,11.0254,722,0,
12865.1,5.94391,0.202943,2.258,11.0254,722,0,
12865.1,5.94482,0.202943,2.258,11.0254,722,0,
12865.1,5.9494,0.201417,2.258,11.0254,722,0,
12865.1,5.9491,0.202943,2.258,11.0254,722,0,
12865.1,5.94971,0.198365,2.258,11.0254,722,0,
12865.1,5.94879,0.202943,2.258,11.0254,722,0,
12865.1,5.94971,0.199891,2.258,11.0254,722,0,
12865.1,5.9491,0.201417,2.258,11.0254,722,0,
12865.1,5.9491,0.202943,2.258,11.0254,722,0,
12865.1,5.9491,0.202943,2.258,11.0254,722,0,
12865.1,5.94971,0.198365,2.258,11.0254,722,0,
12865.1,5.95398,0.199891,2.258,11.0254,722,0,
12865.1,5.95337,0.199891,2.258,11.0254,722,0,
12865.1,5.9549,0.205995,2.258,11.0254,722,0,
12865.1,5.95428,0.201417,2.258,11.0254,722,0,
12865.1,5.95428,0.199891,2.258,11.0254,722,0,
12865.1,5.95428,0.201417,2.258,11.0254,722,0,
12865.1,5.95428,0.202943,2.258,11.0254,722,0,
12865.1,5.95398,0.199891,2.258,11.0254,722,0,
12865.1,5.95764,0.199891,2.258,11.0254,722,0,
12865.1,5.95947,0.202943,2.258,11.0254,722,0,
12865.1,5.95886,0.201417,2.258,11.0254,722,0,
12865.1,5.95917,0.201417,2.258,11.0254,722,0,
12865.1,5.95886,0.199891,2.258,11.0254,722,0,
12865.1,5.95886,0.201417,2.258,11.0254,722,0,
12865.1,5.95917,0.201417,2.258,11.0254,722,0,
12865.1,5.95886,0.201417,2.258,11.0254,722,0,
12865.1,5.96405,0.198365,2.258,11.0254,722,0,
12865.1,5.96436,0.201417,2.258,11.0254,722,0,
12865.1,5.96436,0.198365,2.258,11.0254,722,0,
12865.1,5.96375,0.201417,2.258,11.0254,722,0,
12865.1,5.96375,0.199891,2.258,11.0254,722,0,
12865.1,5.96375,0.205995,2.258,11.0254,722,0,
12865.1,5.96375,0.201417,2.258,11.0254,722,0,
12865.1,5.96863,0.201417,2.258,11.0254,722,0,
12865.2,5.96893,0.199891,2.258,11.0254,722,0,
12865.2,5.96832,0.199891,2.258,11.0254,722,0,
12865.2,5.96893,0.201417,2.258,11.0254,722,0,
12865.2,5.96893,0.199891,2.258,11.0254,722,0,
12865.2,5.96863,0.202943,2.258,11.0254,722,0,
12865.2,5.97046,0.198365,2.258,11.0254,722,0,
12865.2,5.97382,0.204469,2.258,11.0254,722,0,
12865.2,5.97382,0.198365,2.258,11.0254,722,0,
12865.2,5.97351,0.199891,2.258,11.0254,722,0,
12865.2,5.97321,0.199891,2.258,11.0254,722,0,
12865.2,5.97382,0.202943,2.258,11.0254,722,0,
12865.2,5.97412,0.198365,2.258,11.0254,722,0,
12865.2,5.97931,0.199891,2.258,11.0254,722,0,
12865.2,5.9787,0.201417,2.258,11.0254,722,0,
12865.2,5.97931,0.202943,2.258,11.0254,722,0,
12865.2,5.9787,0.202943,2.258,11.0254,722,0,
12865.2,5.97931,0.201417,2.258,11.0254,722,0,
12865.2,5.98145,0.199891,2.258,11.0254,722,0,
12865.2,5.9845,0.201417,2.258,11.0254,722,0,
12865.2,5.98419,0.202943,2.258,11.0254,722,0,
12865.2,5.98389,0.201417,2.258,11.0254,722,0,
12865.2,5.98419,0.201417,0,11.0254,722,0,
12865.2,5.9845,0.201417,0,11.0254,722,0,
12865.2,5.98755,0.202943,0,11.0254,722,0,
12865.2,5.98907,0.199891,0,11.0254,722,0,
12865.2,5.98969,0.202943,0,11.0254,722,0,
12865.2,5.98907,0.204469,0,11.0254,722,0,
12865.2,5.98969,0.199891,0,11.0254,722,0,
12865.2,5.98846,0.199891,0,11.0254,722,0,
12865.2,5.99304,0.199891,0,11.0254,722,0,
12865.2,5.99274,0.202943,0,11.0254,722,0,
12865.2,5.99304,0.199891,0,11.0254,722,0,
12865.2,5.99335,0.201417,0,11.0254,722,0,
12865.2,5.99396,0.201417,0,11.0254,722,0,
12865.2,5.99762,0.202943,0,11.0254,722,0,
12865.2,5.99762,0.201417,0,11.0254,722,0,
12865.2,5.99854,0.204469,0,11.0254,722,0,
12865.2,5.99792,0.201417,0,11.0254,722,0,
12865.2,5.99762,0.202943,0,11.0254,722,0,
12865.2,6.00037,0.205995,0,11.0254,722,0,
12865.2,6.00281,0.201417,0,11.0254,722,0,
12865.2,6.00342,0.205995,0,11.0254,722,0,
12865.2,6.00311,0.202943,0,11.0254,722,0,
12865.2,6.00342,0.198365,0,11.0254,722,0,
12865.2,6.00281,0.201417,0,11.0254,722,0,
12865.2,6.008,0.202943,0,11.0254,722,0,
12865.2,6.0083,0.201417,0,11.0254,722,0,
12865.2,6.00708,0.201417,0,11.0254,722,0,
12865.2,6.00769,0.201417,0,11.0254,722,0,
12865.2,6.008,0.199891,0,11.0254,722,0,
12865.3,6.01379,0.201417,0,11.0254,722,0,
12865.3,6.01288,0.202943,0,11.0254,722,0,
12865.3,6.01318,0.199891,0,11.0254,722,0,
12865.3,6.01318,0.202943,0,11.0254,722,0,
12865.3,6.01318,0.201417,0,11.0254,722,0,
12865.3,6.01746,0.202943,0,11.0254,722,0,
12865.3,6.01776,0.199891,0,11.0254,722,0,
12865.3,6.01776,0.198365,0,11.0254,722,0,
12865.3,6.01837,0.199891,0,11.0254,722,0,
12865.3,6.01807,0.199891,0,11.0254,722,0,
12865.3,6.02295,0.201417,0,11.0254,722,0,
12865.3,6.02264,0.199891,0,11.0254,722,0,
12865.3,6.02264,0.199891,0,11.0254,722,0,
12865.3,6.02264,0.201417,0,11.0254,722,0,
12865.3,6.026,0.202943,0,11.0254,722,0,
12865.3,6.02783,0.199891,0,11.0254,722,0,
12865.3,6.02783,0.202943,0,11.0254,722,0,
12865.3,6.02753,0.204469,0,11.0254,722,0,
12865.3,6.02783,0.202943,0,11.0254,722,0,
12865.3,6.0321,0.201417,0,11.0254,722,0,
12865.3,6.03302,0.202943,0,11.0254,722,0,
12865.3,6.03241,0.202943,0,11.0254,722,0,
12865.3,6.03302,0.199891,0,11.0254,722,0,
12865.3,6.0321,0.199891,0,11.0254,722,0,
12865.3,6.03729,0.201417,0,11.0254,722,0,
12865.3,6.0376,0.198365,0,11.0254,722,0,
12865.3,6.0376,0.202943,0,11.0254,722,0,
12865.3,6.03729,0.198365,0,11.0254,722,0,
12865.3,6.03668,0.199891,0,11.0254,722,0,
12865.3,6.04279,0.202943,0,11.0254,722,0,
12865.3,6.04126,0.201417,0,11.0254,722,0,
12865.3,6.04248,0.201417,0,11.0254,722,0,
12865.3,6.04248,0.198365,0,11.0254,722,0,
12865.3,6.04492,0.199891,0,11.0254,722,0,
12865.3,6.04736,0.201417,0,11.0254,722,0,
12865.3,6.04736,0.199891,0,11.0254,722,0,
12865.3,6.04736,0.199891,0,11.0254,722,0,
12865.3,6.04767,0.201417,0,11.0254,722,0,
12865.3,6.05194,0.199891,0,11.0254,722,0,
12865.3,6.05164,0.199891,0,11.0254,722,0,
12865.3,6.05225,0.199891,0,11.0254,722,0,
12865.3,6.05194,0.201417,0,11.0254,722,0,
12865.3,6.05499,0.199891,0,11.0254,722,0,
12865.3,6.05713,0.202943,0,11.0254,722,0,
12865.3,6.05743,0.198365,0,11.0254,722,0,
12865.3,6.05713,0.201417,0,11.0254,722,0,
12865.3,6.05713,0.199891,0,11.0254,722,0,
12865.3,6.0614,0.198365,0,11.0254,722,0,
12865.3,6.06201,0.201417,0,11.0254,722,0,
12865.4,6.0614,0.202943,0,11.0254,722,0,
12865.4,6.06201,0.199891,0,11.0254,722,0,
12865.4,6.06628,0.199891,0,11.0254,722,0,
12865.4,6.0672,0.201417,0,11.0254,722,0,
12865.4,6.0672,0.198365,0,11.0254,722,0,
12865.4,6.0672,0.199891,0,11.0254,722,0,
12865.4,6.06964,0.202943,0,11.0254,722,0,
12865.4,6.07178,0.198365,0,11.0254,722,0,
12865.4,6.07147,0.199891,0,11.0254,722,0,
12865.4,6.07208,0.199891,0,11.0254,722,0,
12865.4,6.07208,0.198365,0,11.0254,722,0,
12865.4,6.07635,0.199891,0,11.0254,722,0,
12865.4,6.07574,0.201417,0,11.0254,722,0,
12865.4,6.07635,0.202943,0,11.0254,722,0,
12865.4,6.07697,0.202943,0,11.0254,722,0,
12865.4,6.08154,0.202943,0,11.0254,722,0,
12865.4,6.08185,0.201417,0,11.0254,722,0,
12865.4,6.08185,0.204469,0,11.0254,722,0,
12865.4,6.08215,0.201417,0,11.0254,722,0,
12865.4,6.08551,0.199891,0,11.0254,722,0,
12865.4,6.08704,0.202943,0,11.0254,722,0,
12865.4,6.08643,0.201417,0,11.0254,722,0,
12865.4,6.08643,0.201417,0,11.0254,722,0,
12865.4,6.091,0.201417,0,11.0254,722,0,
12865.4,6.09161,0.201417,0,11.0254,722,0,
12865.4,6.09131,0.199891,0,11.0254,722,0,
12865.4,6.0907,0.201417,0,11.0254,722,0,
12865.4,6.09375,0.196839,0,11.0254,722,0,
12865.4,6.0965,0.201417,0,11.0254,722,0,
12865.4,6.09589,0.204469,0,11.0254,722,0,
12865.4,6.09711,0.199891,0,11.0254,722,0,
12865.4,6.09894,0.199891,0,11.0254,722,0,
12865.4,6.10107,0.202943,0,11.0254,722,0,
12865.4,6.10138,0.202943,0,11.0254,722,0,
12865.4,6.10077,0.201417,0,11.0254,722,0,
12865.4,6.10352,0.199891,0,11.0254,722,0,
12865.4,6.10626,0.202943,0,11.0254,722,0,
12865.4,6.10626,0.199891,0,11.0254,722,0,
12865.4,6.10626,0.202943,0,11.0254,722,0,
12865.4,6.10901,0.199891,0,11.0254,722,0,
12865.4,6.11084,0.196839,0,11.0254,722,0,
12865.4,6.11053,0.201417,0,11.0254,722,0,
12865.4,6.11115,0.199891,0,11.0254,722,0,
12865.4,6.11359,0.201417,0,11.0254,722,0,
12865.4,6.11542,0.202943,0,11.0254,722,0,
12865.4,6.11572,0.201417,0,11.0254,722,0,
12865.4,6.11572,0.201417,0,11.0254,722,0,
12865.4,6.11847,0.202943,0,11.0254,722,0,
12865.4,6.12122,0.199891,0,11.0254,722,0,
12865.4,6.1203,0.198365,0,11.0254,722,0,
12865.5,6.12122,0.198365,0,11.0254,722,0,
12865.5,6.12366,0.201417,0,11.0254,722,0,
12865.5,6.12549,0.201417,0,11.0254,722,0,
12865.5,6.1261,0.199891,0,11.0254,722,0,
12865.5,6.1261,0.199891,0,11.0254,722,0,
12865.5,6.12885,0.199891,0,11.0254,722,0,
12865.5,6.13068,0.202943,0,11.0254,722,0,
12865.5,6.13068,0.202943,0,11.0254,722,0,
12865.5,6.13068,0.199891,0,11.0254,722,0,
12865.5,6.13434,0.201417,0,11.0254,722,0,
12865.5,6.13525,0.202943,0,11.0254,722,0,
12865.5,6.13556,0.201417,0,11.0254,722,0,
12865.5,6.13525,0.202943,0,11.0254,722,0,
12865.5,6.14014,0.199891,0,11.0254,722,0,
12865.5,6.13983,0.201417,0,11.0254,722,0,
12865.5,6.14014,0.202943,0,11.0254,722,0,
12865.5,6.14105,0.201417,0,11.0254,722,0,
12865.5,6.14471,0.201417,0,11.0254,722,0,
12865.5,6.14563,0.201417,0,11.0254,722,0,
12865.5,6.14532,0.202943,0,11.0254,722,0,
12865.5,6.14777,0.199891,0,11.0254,722,0,
12865.5,6.15051,0.199891,0,11.0254,722,0,
12865.5,6.15021,0.199891,0,11.0254,722,0,
12865.5,6.1499,0.202943,0,11.0254,722,0,
12865.5,6.15356,0.201417,0,11.0254,722,0,
12865.5,6.15479,0.202943,0,11.0254,722,0,
12865.5,6.15509,0.199891,0,11.0254,722,0,
12865.5,6.15448,0.198365,0,11.0254,722,0,
12865.5,6.15936,0.199891,0,11.0254,722,0,
12865.5,6.15997,0.198365,0,11.0254,722,0,
12865.5,6.15967,0.199891,0,11.0254,722,0,
12865.5,6.15997,0.199891,0,11.0254,722,0,
12865.5,6.16516,0.202943,0,11.0254,722,0,
12865.5,6.16516,0.201417,0,11.0254,722,0,
12865.5,6.16455,0.199891,0,11.0254,722,0,
12865.5,6.16425,0.198365,0,11.0254,722,0,
12865.5,6.16974,0.198365,0,11.0254,722,0,
12865.5,6.16974,0.199891,0,11.0254,722,0,
12865.5,6.16974,0.201417,0,11.0254,722,0,
12865.5,6.17157,0.201417,0,11.0254,722,0,
12865.5,6.17493,0.201417,0,11.0254,722,0,
12865.5,6.17493,0.199891,0,11.0254,722,0,
12865.5,6.17554,0.202943,0,11.0254,722,0,
12865.5,6.1792,0.202943,0,11.0254,722,0,
12865.5,6.1795,0.202943,0,11.0254,722,0,
12865.5,6.17981,0.199891,0,11.0254,722,0,
12865.5,6.18042,0.201417,0,11.0254,722,0,
12865.5,6.185,0.199891,0,11.0254,722,0,
12865.5,6.18469,0.201417,0,11.0254,722,0,
12865.5,6.18439,0.198365,0,11.0254,722,0,
12865.5,6.18439,0.201417,0,11.0254,722,0,
12865.6,6.19019,0.201417,0,11.0254,722,0,
12865.6,6.18927,0.202943,0,11.0254,722,0,
12865.6,6.18958,0.199891,0,11.0254,722,0,
12865.6,6.18958,0.201417,0,11.0254,722,0,
12865.6,6.19415,0.199891,0,11.0254,722,0,
12865.6,6.19415,0.199891,0,11.0254,722,0,
12865.6,6.19415,0.201417,0,11.0254,722,0,
12865.6,6.19446,0.202943,0,11.0254,722,0,
12865.6,6.19904,0.201417,0,11.0254,722,0,
12865.6,6.19934,0.199891,0,11.0254,722,0,
12865.6,6.19904,0.199891,0,11.0254,722,0,
12865.6,6.19904,0.201417,0,11.0254,722,0,
12865.6,6.20392,0.201417,0,11.0254,722,0,
12865.6,6.20392,0.199891,0,11.0254,722,0,
12865.6,6.20392,0.201417,0,11.0254,722,0,
12865.6,6.20392,0.199891,0,11.0254,722,0,
12865.6,6.20941,0.201417,0,11.0254,722,0,
12865.6,6.20911,0.202943,0,11.0254,722,0,
12865.6,6.2088,0.204469,0,11.0254,722,0,
12865.6,6.20911,0.201417,0,11.0254,722,0,
12865.6,6.21368,0.198365,0,11.0254,722,0,
12865.6,6.21399,0.201417,0,11.0254,722,0,
12865.6,6.21368,0.201417,0,11.0254,722,0,
12865.6,6.21338,0.202943,0,11.0254,722,0,
12865.6,6.21857,0.201417,0,11.0254,722,0,
12865.6,6.21857,0.202943,0,11.0254,722,0,
12865.6,6.21857,0.199891,0,11.0254,722,0,
12865.6,6.21857,0.201417,0,11.0254,722,0,
12865.6,6.22375,0.201417,0,11.0254,722,0,
12865.6,6.22375,0.196839,0,11.0254,722,0,
12865.6,6.22437,0.199891,0,11.0254,722,0,
12865.6,6.22375,0.202943,0,11.0254,722,0,
12865.6,6.22772,0.201417,0,11.0254,722,0,
12865.6,6.22864,0.201417,0,11.0254,722,0,
12865.6,6.22833,0.199891,0,11.0254,722,0,
12865.6,6.22803,0.199891,0,11.0254,722,0,
12865.6,6.22955,0.199891,0,11.0254,722,0,
12865.6,6.23322,0.202943,0,11.0254,722,0,
12865.6,6.23322,0.202943,0,11.0254,722,0,
12865.6,6.2326,0.198365,0,11.0254,722,0,
12865.6,6.23322,0.199891,0,11.0254,722,0,
12865.6,6.23779,0.198365,0,11.0254,722,0,
12865.6,6.2381,0.199891,0,11.0254,722,0,
12865.6,6.23871,0.201417,0,11.0254,722,0,
12865.6,6.2384,0.201417,0,11.0254,722,0,
12865.6,6.24176,0.202943,0,11.0254,722,0,
12865.6,6.24329,0.201417,0,11.0254,722,0,
12865.6,6.24298,0.201417,0,11.0254,722,0,
12865.6,6.24237,0.202943,0,11.0254,722,0,
12865.6,6.24298,0.201417,0,11.0254,722,0,
12865.7,6.24725,0.199891,0,11.0254,722,0,
12865.7,6.24725,0.202943,0,11.0254,722,0,
12865.7,6.24878,0.202943,0,11.0254,722,0,
12865.7,6.24817,0.199891,0,11.0254,722,0,
12865.7,6.24786,0.198365,0,11.0254,722,0,
12865.7,6.25275,0.199891,0,11.0254,722,0,
12865.7,6.25214,0.204469,0,11.0254,722,0,
12865.7,6.25305,0.198365,0,11.0254,722,0,
12865.7,6.25275,0.201417,0,11.0254,722,0,
12865.7,6.25366,0.202943,0,11.0254,722,0,
12865.7,6.25763,0.202943,0,11.0254,722,0,
12865.7,6.25763,0.198365,0,11.0254,722,0,
12865.7,6.25732,0.198365,0,11.0254,722,0,
12865.7,6.25763,0.201417,0,11.0254,722,0,
12865.7,6.25824,0.204469,0,11.0254,722,0,
12865.7,6.2619,0.198365,0,11.0254,722,0,
12865.7,6.26221,0.204469,0,11.0254,722,0,
12865.7,6.26251,0.202943,0,11.0254,722,0,
12865.7,6.26343,0.201417,0,11.0254,722,0,
12865.7,6.26343,0.199891,0,11.0254,722,0,
12865.7,6.26556,0.204469,0,11.0254,722,0,
12865.7,6.2677,0.204469,0,11.0254,722,0,
12865.7,6.2677,0.199891,0,11.0254,722,0,
12865.7,6.2674,0.202943,0,11.0254,722,0,
12865.7,6.26709,0.202943,0,11.0254,722,0,
12865.7,6.26801,0.201417,0,11.0254,722,0,
12865.7,6.27289,0.202943,0,11.0254,722,0,
12865.7,6.27319,0.204469,0,11.0254,722,0,
12865.7,6.2735,0.202943,0,11.0254,722,0,
12865.7,6.27228,0.201417,0,11.0254,722,0,
12865.7,6.27258,0.201417,0,11.0254,722,0,
12865.7,6.27655,0.201417,0,11.0254,722,0,
12865.7,6.27747,0.198365,0,11.0254,722,0,
12865.7,6.27808,0.202943,0,11.0254,722,0,
12865.7,6.27716,0.201417,0,11.0254,722,0,
12865.7,6.27747,0.199891,0,11.0254,722,0,
12865.7,6.27777,0.199891,0,11.0254,722,0,
12865.7,6.28204,0.201417,0,11.0254,722,0,
12865.7,6.28204,0.201417,0,11.0254,722,0,
12865.7,6.28235,0.202943,0,11.0254,722,0,
12865.7,6.28204,0.202943,0,11.0254,722,0,
12865.7,6.28265,0.202943,0,11.0254,722,0,
12865.7,6.28601,0.201417,0,11.0254,722,0,
12865.7,6.28754,0.201417,0,11.0254,722,0,
12865.7,6.28723,0.202943,0,11.0254,722,0,
12865.7,6.28754,0.201417,0,11.0254,722,0,
12865.7,6.28693,0.199891,0,11.0254,722,0,
12865.7,6.28723,0.202943,0,11.0254,722,0,
12865.7,6.29181,0.201417,0,11.0254,722,0,
12865.8,6.29211,0.201417,0,11.0254,722,0,
12865.8,6.29211,0.198365,0,11.0254,722,0,
12865.8,6.29181,0.199891,0,11.0254,722,0,
12865.8,6.29211,0.201417,0,11.0254,722,0,
12865.8,6.29181,0.199891,0,11.0254,722,0,
12865.8,6.2973,0.198365,0,11.0254,722,0,
12865.8,6.29669,0.202943,0,11.0254,722,0,
12865.8,6.297,0.202943,0,11.0254,722,0,
12865.8,6.297,0.202943,0,11.0254,722,0,
12865.8,6.2973,0.202943,0,11.0254,722,0,
12865.8,6.29761,0.202943,0,11.0254,722,0,
12865.8,6.30219,0.198365,0,11.0254,722,0,
12865.8,6.30219,0.198365,0,11.0254,722,0,
12865.8,6.30219,0.199891,0,11.0254,722,0,
12865.8,6.30157,0.202943,0,11.0254,722,0,
12865.8,6.30219,0.202943,0,11.0254,722,0,
12865.8,6.3028,0.199891,0,11.0254,722,0,
12865.8,6.30737,0.204469,0,11.0254,722,0,
12865.8,6.30676,0.204469,0,11.0254,722,0,
12865.8,6.30676,0.202943,0,11.0254,722,0,
12865.8,6.30707,0.201417,0,11.0254,722,0,
12865.8,6.30707,0.196839,0,11.0254,722,0,
12865.8,6.30676,0.199891,0,11.0254,722,0,
12865.8,6.31195,0.202943,0,11.0254,722,0,
12865.8,6.31134,0.196839,0,11.0254,722,0,
12865.8,6.31226,0.199891,0,11.0254,722,0,
12865.8,6.31226,0.202943,0,11.0254,722,0,
12865.8,6.31226,0.202943,0,11.0254,722,0,
12865.8,6.31195,0.201417,0,11.0254,722,0,
12865.8,6.31653,0.199891,0,11.0254,722,0,
12865.8,6.31714,0.202943,0,11.0254,722,0,
12865.8,6.31622,0.199891,0,11.0254,722,0,
12865.8,6.31683,0.199891,0,11.0254,722,0,
12865.8,6.31653,0.198365,0,11.0254,722,0,
12865.8,6.31714,0.202943,0,11.0254,722,0,
12865.8,6.3208,0.202943,0,11.0254,722,0,
12865.8,6.32172,0.199891,0,11.0254,722,0,
12865.8,6.32202,0.201417,0,11.0254,722,0,
12865.8,6.32141,0.199891,0,11.0254,722,0,
12865.8,6.32202,0.202943,0,11.0254,722,0,
12865.8,6.32233,0.201417,0,11.0254,722,0,
12865.8,6.32141,0.202943,0,11.0254,722,0,
12865.8,6.32599,0.199891,0,11.0254,722,0,
12865.8,6.3269,0.199891,0,11.0254,722,0,
12865.8,6.3266,0.201417,0,11.0254,722,0,
12865.8,6.32599,0.201417,0,11.0254,722,0,
12865.8,6.3266,0.201417,0,11.0254,722,0,
12865.8,6.3266,0.201417,0,11.0254,722,0,
12865.8,6.33057,0.202943,0,11.0254,722,0,
12865.8,6.33148,0.202943,0,11.0254,722,0,
12865.9,6.33148,0.199891,0,11.0254,722,0,
12865.9,6.33087,0.204469,0,11.0254,722,0,
12865.9,6.33118,0.202943,0,11.0254,722,0,
12865.9,6.33118,0.198365,0,11.0254,722,0,
12865.9,6.33118,0.199891,0,11.0254,722,0,
12865.9,6.33545,0.201417,0,11.0254,722,0,
12865.9,6.33636,0.199891,0,11.0254,722,0,
12865.9,6.33636,0.199891,0,11.0254,722,0,
12865.9,6.33606,0.202943,0,11.0254,722,0,
12865.9,6.33606,0.202943,0,11.0254,722,0,
12865.9,6.33667,0.199891,0,11.0254,722,0,
12865.9,6.33667,0.198365,0,11.0254,722,0,
12865.9,6.34064,0.205995,0,11.0254,722,0,
12865.9,6.34125,0.202943,0,11.0254,722,0,
12865.9,6.34094,0.202943,0,11.0254,722,0,
12865.9,6.34125,0.199891,0,11.0254,722,0,
12865.9,6.34094,0.201417,0,11.0254,722,0,
12865.9,6.34064,0.201417,0,11.0254,722,0,
12865.9,6.34094,0.201417,0,11.0254,722,0,
12865.9,6.34644,0.201417,0,11.0254,722,0,
12865.9,6.34552,0.202943,0,11.0254,722,0,
12865.9,6.34552,0.199891,0,11.0254,722,0,
12865.9,6.34644,0.202943,0,11.0254,722,0,
12865.9,6.34613,0.199891,0,11.0254,722,0,
12865.9,6.34583,0.201417,0,11.0254,722,0,
12865.9,6.34613,0.199891,0,11.0254,722,0,
12865.9,6.34888,0.199891,0,11.0254,722,0,
12865.9,6.35132,0.198365,0,11.0254,722,0,
12865.9,6.35162,0.202943,0,11.0254,722,0,
12865.9,6.35101,0.201417,0,11.0254,722,0,
12865.9,6.35162,0.196839,0,11.0254,722,0,
12865.9,6.35223,0.199891,0,11.0254,722,0,
12865.9,6.35223,0.201417,0,11.0254,722,0,
12865.9,6.35223,0.199891,0,11.0254,722,0,
12865.9,6.35406,0.201417,0,11.0254,722,0,
12865.9,6.35651,0.201417,0,11.0254,722,0,
12865.9,6.35712,0.199891,0,11.0254,722,0,
12865.9,6.3562,0.201417,0,11.0254,722,0,
12865.9,6.3562,0.201417,0,11.0254,722,0,
12865.9,6.3562,0.196839,0,11.0254,722,0,
12865.9,6.35651,0.202943,0,11.0254,722,0,
12865.9,6.35529,0.199891,0,11.0254,722,0,
12865.9,6.35651,0.202943,0,11.0254,722,0,
12865.9,6.36108,0.201417,0,11.0254,722,0,
12865.9,6.36108,0.201417,0,11.0254,722,0,
12865.9,6.36047,0.201417,0,11.0254,722,0,
12865.9,6.36108,0.201417,0,11.0254,722,0,
12865.9,6.35986,0.204469,0,11.0254,722,0,
12865.9,6.36108,0.202943,0,11.0254,722,0,
12865.9,6.36017,0.198365,0,11.0254,722,0,
12866,6.35956,0.201417,0,11.0254,722,0,
12866,6.36047,0.201417,0,11.0254,722,0,
12866,6.36566,0.199891,0,11.0254,722,0,
12866,6.36566,0.204469,0,11.0254,722,0,
12866,6.36566,0.201417,0,11.0254,722,0,
12866,6.36566,0.201417,0,11.0254,722,0,
12866,6.36566,0.202943,0,11.0254,722,0,
12866,6.36536,0.205995,0,11.0254,722,0,
12866,6.36536,0.198365,0,11.0254,722,0,
12866,6.36566,0.201417,0,11.0254,722,0,
12866,6.36566,0.202943,0,11.0254,722,0,
12866,6.36566,0.202943,0,11.0254,722,0,
12866,6.37024,0.201417,0,11.0254,722,0,
12866,6.36963,0.202943,0,11.0254,722,0,
12866,6.37054,0.201417,0,11.0254,722,0,
12866,6.37024,0.199891,0,11.0254,722,0,
12866,6.36993,0.201417,0,11.0254,722,0,
12866,6.37085,0.201417,0,11.0254,722,0,
12866,6.37115,0.202943,0,11.0254,722,0,
12866,6.37024,0.202943,0,11.0254,722,0,
12866,6.37054,0.201417,0,11.0254,722,0,
12866,6.37054,0.199891,0,11.0254,722,0,
12866,6.37024,0.199891,0,11.0254,722,0,
12866,6.37054,0.201417,0,11.0254,722,0,
12866,6.3739,0.201417,0,11.0254,722,0,
12866,6.37604,0.199891,0,11.0254,722,0,
12866,6.37543,0.199891,0,11.0254,722,0,
12866,6.37512,0.202943,0,11.0254,722,0,
12866,6.37543,0.199891,0,11.0254,722,0,
12866,6.37543,0.204469,0,11.0254,722,0,
12866,6.37512,0.199891,0,11.0254,722,0,
12866,6.37512,0.201417,0,11.0254,722,0,
12866,6.37573,0.199891,0,11.0254,722,0,
12866,6.37573,0.201417,0,11.0254,722,0,
12866,6.37512,0.205995,0,11.0254,722,0,
12866,6.37512,0.199891,0,11.0254,722,0,
12866,6.37543,0.199891,2.6,11.0254,722,0,
12866,6.37512,0.201417,2.6,11.0254,722,0,
12866,6.37512,0.199891,2.6,11.0254,722,0,
12866,6.37573,0.201417,2.6,11.0254,722,0,
12866,6.37878,0.201417,2.6,11.0254,722,0,
12866,6.38062,0.204469,2.6,11.0254,722,0,
12866,6.38,0.204469,2.6,11.0254,722,0,
12866,6.38,0.202943,2.6,11.0254,722,0,
12866,6.38031,0.201417,2.6,11.0254,722,0,
12866,6.3797,0.202943,2.6,11.0254,722,0,
12866,6.38,0.196839,2.6,11.0254,722,0,
12866,6.38,0.198365,2.6,11.0254,722,0,
12866,6.38,0.199891,2.6,11.0254,722,0,
12866,6.38031,0.196839,2.6,11.0254,722,0,
12866,6.38062,0.199891,2.6,11.0254,722,0,
12866.1,6.38,0.199891,2.6,11.0254,722,0,
12866.1,6.38062,0.202943,2.6,11.0254,722,0,
12866.1,6.38062,0.201417,2.6,11.0254,722,0,
12866.1,6.38,0.201417,2.6,11.0254,722,0,
12866.1,6.38,0.199891,2.6,11.0254,722,0,
12866.1,6.38062,0.199891,2.6,11.0254,722,0,
12866.1,6.38092,0.202943,2.6,11.0254,722,0,
12866.1,6.38062,0.201417,2.6,11.0254,722,0,
12866.1,6.38,0.201417,2.6,11.0254,722,0,
12866.1,6.38031,0.196839,2.6,11.0254,722,0,
12866.1,6.38,0.199891,2.6,11.0254,722,0,
12866.1,6.38092,0.198365,2.6,11.0254,722,0,
12866.1,6.38031,0.201417,2.6,11.0254,722,0,
12866.1,6.38031,0.201417,2.6,11.0254,722,0,
12866.1,6.38,0.201417,2.6,11.0254,722,0,
12866.1,6.38092,0.201417,2.6,11.0254,722,0,
12866.1,6.38489,0.202943,2.6,11.0254,722,0,
12866.1,6.38489,0.201417,2.6,11.0254,722,0,
12866.1,6.38489,0.199891,2.6,11.0254,722,0,
12866.1,6.38519,0.204469,2.6,11.0254,722,0,
12866.1,6.38519,0.202943,2.6,11.0254,722,0,
12866.1,6.3855,0.201417,2.6,11.0254,722,0,
12866.1,6.38611,0.196839,2.6,11.0254,722,0,
12866.1,6.3855,0.199891,2.6,11.0254,722,0,
12866.1,6.38489,0.202943,2.6,11.0254,722,0,
12866.1,6.38519,0.198365,2.6,11.0254,722,0,
12866.1,6.38489,0.199891,2.6,11.0254,722,0,
12866.1,6.3858,0.198365,2.6,11.0254,722,0,
12866.1,6.38489,0.198365,2.6,11.0254,722,0,
12866.1,6.38489,0.198365,2.6,11.0254,722,0,
12866.1,6.3858,0.201417,2.6,11.0254,722,0,
12866.1,6.3855,0.204469,2.6,11.0254,722,0,
12866.1,6.3858,0.202943,2.6,11.0254,722,0,
12866.1,6.38519,0.199891,2.6,11.0254,722,0,
12866.1,6.38519,0.201417,2.6,11.0254,722,0,
12866.1,6.3858,0.199891,2.6,11.0254,722,0,
12866.1,6.38519,0.198365,2.6,11.0254,722,0,
12866.1,6.38519,0.201417,2.6,11.0254,722,0,
12866.1,6.38519,0.199891,2.6,11.0254,722,0,
12866.1,6.3858,0.199891,2.6,11.0254,722,0,
12866.1,6.38458,0.202943,2.6,11.0254,722,0,
12866.1,6.38519,0.198365,2.6,11.0254,722,0,
12866.1,6.38519,0.201417,2.6,11.0254,722,0,
12866.1,6.3855,0.204469,2.6,11.0254,722,0,
12866.1,6.38489,0.202943,2.6,11.0254,722,0,
12866.1,6.38428,0.199891,2.6,11.0254,722,0,
12866.1,6.38519,0.202943,2.6,11.0254,722,0,
12866.1,6.38489,0.198365,2.6,11.0254,722,0,
12866.1,6.3855,0.204469,2.6,11.0254,722,0,
12866.1,6.3855,0.202943,2.6,11.0254,722,0,
12866.2,6.3858,0.198365,2.6,11.0254,722,0,
12866.2,6.38519,0.202943,2.6,11.0254,722,0,
12866.2,6.38519,0.201417,2.6,11.0254,722,0,
12866.2,6.3855,0.202943,2.6,11.0254,722,0,
12866.2,6.3855,0.199891,2.6,11.0254,722,0,
12866.2,6.38489,0.198365,2.6,11.0254,722,0,
12866.2,6.38489,0.202943,2.6,11.0254,722,0,
12866.2,6.3855,0.201417,2.6,11.0254,722,0,
12866.2,6.38489,0.199891,2.6,11.0254,722,0,
12866.2,6.38458,0.201417,2.6,11.0254,722,0,
12866.2,6.3855,0.201417,2.6,11.0254,722,0,
12866.2,6.3855,0.199891,2.6,11.0254,722,0,
12866.2,6.3858,0.202943,2.6,11.0254,722,0,
12866.2,6.38519,0.202943,2.6,11.0254,722,0,
12866.2,6.38519,0.199891,2.6,11.0254,722,0,
12866.2,6.38489,0.196839,2.6,11.0254,722,0,
12866.2,6.38611,0.201417,2.6,11.0254,722,0,
12866.2,6.38031,0.199891,2.6,11.0254,722,0,
12866.2,6.38031,0.199891,2.6,11.0254,722,0,
12866.2,6.38092,0.199891,2.6,11.0254,722,0,
12866.2,6.38031,0.201417,2.6,11.0254,722,0,
12866.2,6.37939,0.201417,2.6,11.0254,722,0,
12866.2,6.38031,0.199891,2.6,11.0254,722,0,
12866.2,6.38,0.201417,2.6,11.0254,722,0,
12866.2,6.38,0.198365,2.6,11.0254,722,0,
12866.2,6.38031,0.202943,2.6,11.0254,722,0,
12866.2,6.38062,0.201417,2.6,11.0254,722,0,
12866.2,6.38031,0.201417,2.6,11.0254,722,0,
12866.2,6.38,0.201417,2.6,11.0254,722,0,
12866.2,6.38031,0.202943,2.6,11.0254,722,0,
12866.2,6.38031,0.196839,2.6,11.0254,722,0,
12866.2,6.38031,0.202943,2.6,11.0254,722,0,
12866.2,6.38031,0.201417,2.6,11.0254,722,0,
12866.2,6.38062,0.198365,2.6,11.0254,722,0,
12866.2,6.38031,0.201417,2.6,11.0254,722,0,
12866.2,6.38,0.198365,2.6,11.0254,722,0,
12866.2,6.38092,0.199891,2.6,11.0254,722,0,
12866.2,6.3797,0.198365,2.6,11.0254,722,0,
12866.2,6.38062,0.202943,2.6,11.0254,722,0,
12866.2,6.38031,0.201417,2.6,11.0254,722,0,
12866.2,6.38031,0.199891,2.6,11.0254,722,0,
12866.2,6.38031,0.199891,2.6,11.0254,722,0,
12866.2,6.38092,0.201417,2.6,11.0254,722,0,
12866.2,6.38092,0.201417,2.6,11.0254,722,0,
12866.2,6.38031,0.199891,2.6,11.0254,722,0,
12866.2,6.38062,0.198365,2.6,11.0254,722,0,
12866.2,6.38092,0.196839,2.6,11.0254,722,0,
12866.2,6.38031,0.201417,2.6,11.0254,722,0,
12866.2,6.38062,0.202943,2.6,11.0254,722,0,
12866.2,6.38062,0.199891,2.6,11.0254,722,0,
12866.3,6.38031,0.198365,2.6,11.0254,722,0,
12866.3,6.38062,0.198365,2.6,11.0254,722,0,
12866.3,6.38031,0.201417,2.6,11.0254,722,0,
12866.3,6.37543,0.198365,2.6,11.0254,722,0,
12866.3,6.37543,0.202943,2.6,11.0254,722,0,
12866.3,6.37604,0.198365,2.6,11.0254,722,0,
12866.3,6.37634,0.199891,2.6,11.0254,722,0,
12866.3,6.37573,0.198365,2.6,11.0254,722,0,
12866.3,6.37543,0.201417,2.6,11.0254,722,0,
12866.3,6.37573,0.199891,2.6,11.0254,722,0,
12866.3,6.37482,0.199891,2.6,11.0254,722,0,
12866.3,6.37573,0.198365,2.6,11.0254,722,0,
12866.3,6.37573,0.204469,2.6,11.0254,722,0,
12866.3,6.37543,0.199891,2.6,11.0254,722,0,
12866.3,6.37512,0.199891,2.6,11.0254,722,0,
12866.3,6.37604,0.201417,2.6,11.0254,722,0,
12866.3,6.37512,0.199891,2.6,11.0254,722,0,
12866.3,6.37573,0.202943,2.6,11.0254,722,0,
12866.3,6.37573,0.199891,2.6,11.0254,722,0,
12866.3,6.37543,0.199891,2.6,11.0254,722,0,
12866.3,6.37543,0.199891,2.6,11.0254,722,0,
12866.3,6.37573,0.199891,2.6,11.0254,722,0,
12866.3,6.37573,0.201417,2.6,11.0254,722,0,
12866.3,6.37604,0.202943,2.6,11.0254,722,0,
12866.3,6.37573,0.198365,2.6,11.0254,722,0,
12866.3,6.37512,0.202943,2.6,11.0254,722,0,
12866.3,6.37543,0.199891,2.6,11.0254,722,0,
12866.3,6.37634,0.198365,2.6,11.0254,722,0,
12866.3,6.37115,0.202943,2.6,11.0254,722,0,
12866.3,6.37085,0.201417,2.6,11.0254,722,0,
12866.3,6.37085,0.201417,2.6,11.0254,722,0,
12866.3,6.37054,0.198365,2.6,11.0254,722,0,
12866.3,6.37024,0.202943,2.6,11.0254,722,0,
12866.3,6.37085,0.198365,2.6,11.0254,722,0,
12866.3,6.37146,0.201417,2.6,11.0254,722,0,
12866.3,6.37054,0.204469,2.6,11.0254,722,0,
12866.3,6.37024,0.201417,2.6,11.0254,722,0,
12866.3,6.37115,0.199891,2.6,11.0254,722,0,
12866.3,6.36993,0.199891,2.6,11.0254,722,0,
12866.3,6.37085,0.204469,2.6,11.0254,722,0,
12866.3,6.37085,0.198365,2.6,11.0254,722,0,
12866.3,6.37085,0.202943,2.6,11.0254,722,0,
12866.3,6.37054,0.199891,2.6,11.0254,722,0,
12866.3,6.37115,0.204469,2.6,11.0254,722,0,
12866.3,6.37024,0.198365,2.6,11.0254,722,0,
12866.3,6.37024,0.199891,2.6,11.0254,722,0,
12866.3,6.37054,0.198365,2.6,11.0254,722,0,
12866.3,6.37054,0.201417,2.6,11.0254,722,0,
12866.3,6.37085,0.196839,2.6,11.0254,722,0,
12866.4,6.37054,0.201417,2.6,11.0254,722,0,
12866.4,6.37054,0.198365,2.6,11.0254,722,0,
12866.4,6.37054,0.201417,2.6,11.0254,722,0,
12866.4,6.3678,0.201417,2.6,11.0254,722,0,
12866.4,6.36475,0.201417,2.6,11.0254,722,0,
12866.4,6.36597,0.199891,2.6,11.0254,722,0,
12866.4,6.36536,0.199891,2.6,11.0254,722,0,
12866.4,6.36566,0.201417,2.6,11.0254,722,0,
12866.4,6.36597,0.205995,2.6,11.0254,722,0,
12866.4,6.36627,0.201417,2.6,11.0254,722,0,
12866.4,6.36566,0.199891,2.6,11.0254,722,0,
12866.4,6.36505,0.202943,2.6,11.0254,722,0,
12866.4,6.36597,0.201417,2.6,11.0254,722,0,
12866.4,6.36597,0.199891,2.6,11.0254,722,0,
12866.4,6.36566,0.199891,2.6,11.0254,722,0,
12866.4,6.36566,0.202943,2.6,11.0254,722,0,
12866.4,6.36566,0.199891,2.6,11.0254,722,0,
12866.4,6.36536,0.201417,2.6,11.0254,722,0,
12866.4,6.36566,0.201417,2.6,11.0254,722,0,
12866.4,6.36566,0.201417,2.6,11.0254,722,0,
12866.4,6.36566,0.202943,2.6,11.0254,722,0,
12866.4,6.36536,0.199891,2.6,11.0254,722,0,
12866.4,6.36627,0.201417,2.6,11.0254,722,0,
12866.4,6.36566,0.199891,2.6,11.0254,722,0,
12866.4,6.36505,0.201417,2.6,11.0254,722,0,
12866.4,6.36597,0.201417,2.6,11.0254,722,0,
12866.4,6.36536,0.201417,2.6,11.0254,722,0,
12866.4,6.36536,0.201417,2.6,11.0254,722,0,
12866.4,6.36292,0.199891,2.6,11.0254,722,0,
12866.4,6.36017,0.199891,2.6,11.0254,722,0,
12866.4,6.36139,0.199891,2.6,11.0254,722,0,
12866.4,6.36047,0.199891,2.6,11.0254,722,0,
12866.4,6.36078,0.199891,2.6,11.0254,722,0,
12866.4,6.36047,0.201417,2.6,11.0254,722,0,
12866.4,6.36108,0.201417,2.6,11.0254,722,0,
12866.4,6.36078,0.201417,2.6,11.0254,722,0,
12866.4,6.36017,0.202943,2.6,11.0254,722,0,
12866.4,6.36047,0.202943,2.6,11.0254,722,0,
12866.4,6.36047,0.201417,2.6,11.0254,722,0,
12866.4,6.36047,0.202943,2.6,11.0254,722,0,
12866.4,6.36078,0.201417,2.6,11.0254,722,0,
12866.4,6.36108,0.199891,2.6,11.0254,722,0,
12866.4,6.36017,0.199891,2.6,11.0254,722,0,
12866.4,6.36017,0.198365,2.6,11.0254,722,0,
12866.4,6.36169,0.199891,2.6,11.0254,722,0,
12866.4,6.36108,0.202943,2.6,11.0254,722,0,
12866.4,6.36139,0.199891,2.6,11.0254,722,0,
12866.4,6.36047,0.201417,2.6,11.0254,722,0,
12866.4,6.36047,0.201417,2.6,11.0254,722,0,
12866.4,6.36108,0.202943,2.6,11.0254,722,0,
12866.5,6.36108,0.199891,2.6,11.0254,722,0,
12866.5,6.36108,0.201417,2.6,11.0254,722,0,
12866.5,6.36139,0.202943,2.6,11.0254,722,0,
12866.5,6.36047,0.199891,2.6,11.0254,722,0,
12866.5,6.36078,0.199891,2.6,11.0254,722,0,
12866.5,6.35742,0.199891,2.6,11.0254,722,0,
12866.5,6.35529,0.198365,2.6,11.0254,722,0,
12866.5,6.3559,0.201417,2.6,11.0254,722,0,
12866.5,6.35559,0.202943,2.6,11.0254,722,0,
12866.5,6.35651,0.201417,2.6,11.0254,722,0,
12866.5,6.35559,0.202943,2.6,11.0254,722,0,
12866.5,6.3559,0.198365,2.6,11.0254,722,0,
12866.5,6.3559,0.201417,2.6,11.0254,722,0,
12866.5,6.35681,0.202943,2.6,11.0254,722,0,
12866.5,6.35559,0.204469,2.6,11.0254,722,0,
12866.5,6.3559,0.202943,2.6,11.0254,722,0,
12866.5,6.3562,0.198365,2.6,11.0254,722,0,
12866.5,6.3562,0.199891,2.6,11.0254,722,0,
12866.5,6.3562,0.204469,2.6,11.0254,722,0,
12866.5,6.3559,0.199891,2.6,11.0254,722,0,
12866.5,6.3562,0.201417,2.6,11.0254,722,0,
12866.5,6.3562,0.199891,2.6,11.0254,722,0,
12866.5,6.3562,0.204469,2.6,11.0254,722,0,
12866.5,6.3562,0.202943,2.6,11.0254,722,0,
12866.5,6.3559,0.199891,2.6,11.0254,722,0,
12866.5,6.3559,0.204469,2.6,11.0254,722,0,
12866.5,6.35559,0.202943,2.6,11.0254,722,0,
12866.5,6.35559,0.199891,2.6,11.0254,722,0,
12866.5,6.3562,0.201417,2.6,11.0254,722,0,
12866.5,6.35651,0.199891,2.6,11.0254,722,0,
12866.5,6.3559,0.201417,2.6,11.0254,722,0,
12866.5,6.3559,0.199891,2.6,11.0254,722,0,
12866.5,6.35071,0.199891,2.6,11.0254,722,0,
12866.5,6.35132,0.201417,2.6,11.0254,722,0,
12866.5,6.35101,0.198365,2.6,11.0254,722,0,
12866.5,6.35101,0.202943,2.6,11.0254,722,0,
12866.5,6.35071,0.199891,2.6,11.0254,722,0,
12866.5,6.35101,0.198365,2.6,11.0254,722,0,
12866.5,6.35101,0.198365,2.6,11.0254,722,0,
12866.5,6.35162,0.199891,2.6,11.0254,722,0,
12866.5,6.35071,0.201417,2.6,11.0254,722,0,
12866.5,6.35101,0.202943,2.6,11.0254,722,0,
12866.5,6.3504,0.198365,2.6,11.0254,722,0,
12866.5,6.35071,0.202943,2.6,11.0254,722,0,
12866.5,6.35132,0.198365,2.6,11.0254,722,0,
12866.5,6.3504,0.201417,2.6,11.0254,722,0,
12866.5,6.35162,0.201417,2.6,11.0254,722,0,
12866.5,6.35132,0.202943,2.6,11.0254,722,0,
12866.5,6.35071,0.196839,2.6,11.0254,722,0,
12866.5,6.35101,0.205995,2.6,11.0254,722,0,
12866.5,6.35101,0.199891,2.6,11.0254,722,0,
12866.6,6.3504,0.199891,2.6,11.0254,722,0,
12866.6,6.35193,0.199891,2.6,11.0254,722,0,
12866.6,6.35132,0.199891,2.6,11.0254,722,0,
12866.6,6.35132,0.199891,2.6,11.0254,722,0,
12866.6,6.35071,0.202943,2.6,11.0254,722,0,
12866.6,6.35071,0.199891,2.6,11.0254,722,0,
12866.6,6.35132,0.202943,2.6,11.0254,722,0,
12866.6,6.34644,0.201417,2.6,11.0254,722,0,
12866.6,6.34644,0.201417,2.6,11.0254,722,0,
12866.6,6.34644,0.201417,2.6,11.0254,722,0,
12866.6,6.34613,0.201417,2.6,11.0254,722,0,
12866.6,6.34552,0.201417,2.6,11.0254,722,0,
12866.6,6.34613,0.201417,2.6,11.0254,722,0,
12866.6,6.34552,0.202943,2.6,11.0254,722,0,
12866.6,6.34613,0.204469,2.6,11.0254,722,0,
12866.6,6.34644,0.199891,2.6,11.0254,722,0,
12866.6,6.34552,0.202943,2.6,11.0254,722,0,
12866.6,6.34644,0.201417,2.6,11.0254,722,0,
12866.6,6.34644,0.201417,2.6,11.0254,722,0,
12866.6,6.34583,0.202943,2.6,11.0254,722,0,
12866.6,6.34644,0.202943,2.6,11.0254,722,0,
12866.6,6.34644,0.199891,2.6,11.0254,722,0,
12866.6,6.34521,0.199891,2.6,11.0254,722,0,
12866.6,6.34613,0.202943,2.6,11.0254,722,0,
12866.6,6.34644,0.202943,2.6,11.0254,722,0,
12866.6,6.34705,0.201417,2.6,11.0254,722,0,
12866.6,6.34613,0.199891,2.6,11.0254,722,0,
12866.6,6.34674,0.201417,2.6,11.0254,722,0,
12866.6,6.34644,0.201417,2.6,11.0254,722,0,
12866.6,6.34644,0.199891,2.6,11.0254,722,0,
12866.6,6.34644,0.199891,2.6,11.0254,722,0,
12866.6,6.34155,0.198365,2.6,11.0254,722,0,
12866.6,6.34125,0.201417,2.6,11.0254,722,0,
12866.6,6.34186,0.201417,2.6,11.0254,722,0,
12866.6,6.34125,0.202943,2.6,11.0254,722,0,
12866.6,6.34125,0.201417,2.6,11.0254,722,0,
12866.6,6.34155,0.199891,2.6,11.0254,722,0,
12866.6,6.34155,0.198365,2.6,11.0254,722,0,
12866.6,6.34125,0.201417,2.6,11.0254,722,0,
12866.6,6.34216,0.199891,2.6,11.0254,722,0,
12866.6,6.34125,0.201417,2.6,11.0254,722,0,
12866.6,6.34125,0.201417,2.6,11.0254,722,0,
12866.6,6.34216,0.201417,2.6,11.0254,722,0,
12866.6,6.34186,0.199891,2.6,11.0254,722,0,
12866.6,6.34186,0.202943,2.6,11.0254,722,0,
12866.6,6.34125,0.198365,2.6,11.0254,722,0,
12866.6,6.34125,0.201417,2.6,11.0254,722,0,
12866.6,6.34125,0.201417,2.6,11.0254,722,0,
12866.6,6.34033,0.201417,2.6,11.0254,722,0,
12866.6,6.33942,0.202943,2.6,11.0254,722,0,
12866.7,6.33606,0.199891,2.6,11.0254,722,0,
12866.7,6.33636,0.202943,2.6,11.0254,722,0,
12866.7,6.33636,0.198365,2.6,11.0254,722,0,
12866.7,6.33575,0.201417,2.6,11.0254,722,0,
12866.7,6.33636,0.201417,2.6,11.0254,722,0,
12866.7,6.33606,0.201417,2.6,11.0254,722,0,
12866.7,6.33636,0.198365,2.6,11.0254,722,0,
12866.7,6.33575,0.201417,2.6,11.0254,722,0,
12866.7,6.33575,0.201417,2.6,11.0254,722,0,
12866.7,6.33606,0.202943,2.6,11.0254,722,0,
12866.7,6.33636,0.198365,2.6,11.0254,722,0,
12866.7,6.33606,0.201417,2.6,11.0254,722,0,
12866.7,6.33636,0.198365,2.6,11.0254,722,0,
12866.7,6.33575,0.199891,2.6,11.0254,722,0,
12866.7,6.3324,0.199891,2.6,11.0254,722,0,
12866.7,6.33148,0.202943,2.6,11.0254,722,0,
12866.7,6.33179,0.199891,2.6,11.0254,722,0,
12866.7,6.33118,0.202943,2.6,11.0254,722,0,
12866.7,6.33087,0.204469,2.6,11.0254,722,0,
12866.7,6.33118,0.202943,2.6,11.0254,722,0,
12866.7,6.33057,0.201417,2.6,11.0254,722,0,
12866.7,6.33118,0.202943,2.6,11.0254,722,0,
12866.7,6.33118,0.199891,2.6,11.0254,722,0,
12866.7,6.33179,0.201417,2.6,11.0254,722,0,
12866.7,6.33179,0.201417,2.6,11.0254,722,0,
12866.7,6.33179,0.199891,2.6,11.0254,722,0,
12866.7,6.32904,0.202943,2.6,11.0254,722,0,
12866.7,6.3266,0.202943,2.6,11.0254,722,0,
12866.7,6.32629,0.199891,2.6,11.0254,722,0,
12866.7,6.32721,0.201417,2.6,11.0254,722,0,
12866.7,6.32629,0.201417,2.6,11.0254,722,0,
12866.7,6.3266,0.201417,2.6,11.0254,722,0,
12866.7,6.32629,0.201417,2.6,11.0254,722,0,
12866.7,6.32629,0.202943,2.6,11.0254,722,0,
12866.7,6.32629,0.199891,2.6,11.0254,722,0,
12866.7,6.32599,0.199891,2.6,11.0254,722,0,
12866.7,6.3269,0.201417,2.6,11.0254,722,0,
12866.7,6.32233,0.198365,2.6,11.0254,722,0,
12866.7,6.32202,0.199891,2.6,11.0254,722,0,
12866.7,6.32141,0.198365,2.6,11.0254,722,0,
12866.7,6.32172,0.199891,2.6,11.0254,722,0,
12866.7,6.32202,0.202943,2.6,11.0254,722,0,
12866.7,6.32172,0.201417,2.6,11.0254,722,0,
12866.7,6.32202,0.199891,2.6,11.0254,722,0,
12866.7,6.32172,0.202943,2.6,11.0254,722,0,
12866.7,6.32202,0.202943,2.6,11.0254,722,0,
12866.7,6.32141,0.202943,2.6,11.0254,722,0,
12866.7,6.31683,0.199891,2.6,11.0254,722,0,
12866.7,6.31653,0.202943,2.6,11.0254,722,0,
12866.8,6.31653,0.198365,2.6,11.0254,722,0,
12866.8,6.31622,0.199891,2.6,11.0254,722,0,
12866.8,6.31622,0.199891,2.6,11.0254,722,0,
12866.8,6.31622,0.201417,2.6,11.0254,722,0,
12866.8,6.31653,0.201417,2.6,11.0254,722,0,
12866.8,6.31622,0.199891,2.6,11.0254,722,0,
12866.8,6.31714,0.202943,2.6,11.0254,722,0,
12866.8,6.31653,0.199891,2.6,11.0254,722,0,
12866.8,6.31134,0.202943,2.6,11.0254,722,0,
12866.8,6.31104,0.201417,2.6,11.0254,722,0,
12866.8,6.31165,0.202943,2.6,11.0254,722,0,
12866.8,6.31165,0.201417,2.6,11.0254,722,0,
12866.8,6.31134,0.201417,2.6,11.0254,722,0,
12866.8,6.31195,0.201417,2.6,11.0254,722,0,
12866.8,6.31256,0.202943,2.6,11.0254,722,0,
12866.8,6.31195,0.202943,2.6,11.0254,722,0,
12866.8,6.31104,0.201417,2.6,11.0254,722,0,
12866.8,6.30707,0.202943,2.6,11.0254,722,0,
12866.8,6.30707,0.201417,2.6,11.0254,722,0,
12866.8,6.30615,0.201417,2.6,11.0254,722,0,
12866.8,6.30676,0.199891,2.6,11.0254,722,0,
12866.8,6.30676,0.201417,2.6,11.0254,722,0,
12866.8,6.30707,0.199891,2.6,11.0254,722,0,
12866.8,6.30768,0.202943,2.6,11.0254,722,0,
12866.8,6.30646,0.202943,2.6,11.0254,722,0,
12866.8,6.30646,0.202943,2.6,11.0254,722,0,
12866.8,6.30157,0.201417,2.6,11.0254,722,0,
12866.8,6.30249,0.201417,2.6,11.0254,722,0,
12866.8,6.30188,0.201417,2.6,11.0254,722,0,
12866.8,6.30188,0.199891,2.6,11.0254,722,0,
12866.8,6.30219,0.198365,2.6,11.0254,722,0,
12866.8,6.3028,0.201417,2.6,11.0254,722,0,
12866.8,6.30188,0.204469,2.6,11.0254,722,0,
12866.8,6.30188,0.201417,2.6,11.0254,722,0,
12866.8,6.29761,0.204469,2.6,11.0254,722,0,
12866.8,6.297,0.199891,2.6,11.0254,722,0,
12866.8,6.2973,0.199891,2.6,11.0254,722,0,
12866.8,6.29761,0.201417,2.6,11.0254,722,0,
12866.8,6.29639,0.202943,2.6,11.0254,722,0,
12866.8,6.2973,0.202943,2.6,11.0254,722,0,
12866.8,6.29669,0.201417,2.6,11.0254,722,0,
12866.8,6.2973,0.201417,2.6,11.0254,722,0,
12866.8,6.29272,0.202943,2.6,11.0254,722,0,
12866.8,6.29211,0.202943,2.6,11.0254,722,0,
12866.8,6.29211,0.198365,2.6,11.0254,722,0,
12866.8,6.29272,0.202943,2.6,11.0254,722,0,
12866.8,6.29211,0.202943,2.6,11.0254,722,0,
12866.8,6.29181,0.199891,2.6,11.0254,722,0,
12866.8,6.29242,0.199891,2.6,11.0254,722,0,
12866.8,6.29272,0.202943,2.6,11.0254,722,0,
12866.9,6.28754,0.202943,2.6,11.0254,722,0,
12866.9,6.28693,0.204469,2.6,11.0254,722,0,
12866.9,6.28693,0.199891,2.6,11.0254,722,0,
12866.9,6.28723,0.201417,2.6,11.0254,722,0,
12866.9,6.28693,0.199891,2.6,11.0254,722,0,
12866.9,6.28693,0.201417,2.6,11.0254,722,0,
12866.9,6.28723,0.199891,2.6,11.0254,722,0,
12866.9,6.28448,0.202943,2.6,11.0254,722,0,
12866.9,6.28296,0.202943,2.6,11.0254,722,0,
12866.9,6.28235,0.199891,2.6,11.0254,722,0,
12866.9,6.28296,0.201417,2.6,11.0254,722,0,
12866.9,6.28204,0.205995,2.6,11.0254,722,0,
12866.9,6.28265,0.201417,2.6,11.0254,722,0,
12866.9,6.28174,0.201417,2.6,11.0254,722,0,
12866.9,6.28204,0.201417,2.6,11.0254,722,0,
12866.9,6.27777,0.199891,2.6,11.0254,722,0,
12866.9,6.27747,0.199891,2.6,11.0254,722,0,
12866.9,6.27716,0.204469,2.6,11.0254,722,0,
12866.9,6.27747,0.201417,2.6,11.0254,722,0,
12866.9,6.27716,0.201417,2.6,11.0254,722,0,
12866.9,6.27777,0.202943,2.6,11.0254,722,0,
12866.9,6.27502,0.199891,2.6,11.0254,722,0,
12866.9,6.27289,0.201417,2.6,11.0254,722,0,
12866.9,6.27319,0.201417,2.6,11.0254,722,0,
12866.9,6.27228,0.199891,2.6,11.0254,722,0,
12866.9,6.27197,0.201417,2.6,11.0254,722,0,
12866.9,6.27289,0.198365,2.6,11.0254,722,0,
12866.9,6.27228,0.201417,2.6,11.0254,722,0,
12866.9,6.26801,0.201417,2.6,11.0254,722,0,
12866.9,6.2677,0.201417,2.6,11.0254,722,0,
12866.9,6.2677,0.199891,2.6,11.0254,722,0,
12866.9,6.2674,0.202943,2.6,11.0254,722,0,
12866.9,6.2677,0.204469,2.6,11.0254,722,0,
12866.9,6.26801,0.201417,2.6,11.0254,722,0,
12866.9,6.26282,0.199891,2.6,11.0254,722,0,
12866.9,6.26312,0.201417,2.6,11.0254,722,0,
12866.9,6.26251,0.199891,2.6,11.0254,722,0,
12866.9,6.26343,0.199891,2.6,11.0254,722,0,
12866.9,6.26251,0.198365,2.6,11.0254,722,0,
12866.9,6.26282,0.202943,2.6,11.0254,722,0,
12866.9,6.25793,0.201417,2.6,11.0254,722,0,
12866.9,6.25793,0.202943,2.6,11.0254,722,0,
12866.9,6.25824,0.201417,2.6,11.0254,722,0,
12866.9,6.25763,0.202943,2.6,11.0254,722,0,
12866.9,6.25824,0.202943,2.6,11.0254,722,0,
12866.9,6.25519,0.199891,2.6,11.0254,722,0,
12866.9,6.25305,0.199891,2.6,11.0254,722,0,
12866.9,6.25336,0.198365,2.6,11.0254,722,0,
12866.9,6.25305,0.199891,2.6,11.0254,722,0,
12866.9,6.25244,0.202943,2.6,11.0254,722,0,
12867,6.25336,0.199891,2.6,11.0254,722,0,
12867,6.24817,0.201417,2.6,11.0254,722,0,
12867,6.24847,0.199891,2.6,11.0254,722,0,
12867,6.24878,0.201417,2.6,11.0254,722,0,
12867,6.24847,0.199891,2.6,11.0254,722,0,
12867,6.24695,0.202943,2.6,11.0254,722,0,
12867,6.2442,0.196839,2.6,11.0254,722,0,
12867,6.24329,0.202943,2.6,11.0254,722,0,
12867,6.24329,0.202943,2.6,11.0254,722,0,
12867,6.24359,0.202943,2.6,11.0254,722,0,
12867,6.24298,0.199891,2.6,11.0254,722,0,
12867,6.24115,0.199891,2.6,11.0254,722,0,
12867,6.2384,0.201417,2.6,11.0254,722,0,
12867,6.23901,0.201417,2.6,11.0254,722,0,
12867,6.23871,0.202943,2.6,11.0254,722,0,
12867,6.2384,0.202943,2.6,11.0254,722,0,
12867,6.23505,0.201417,2.6,11.0254,722,0,
12867,6.23383,0.201417,2.6,11.0254,722,0,
12867,6.23322,0.202943,2.6,11.0254,722,0,
12867,6.23383,0.202943,2.6,11.0254,722,0,
12867,6.23291,0.202943,2.6,11.0254,722,0,
12867,6.23077,0.201417,2.6,11.0254,722,0,
12867,6.22864,0.202943,2.6,11.0254,722,0,
12867,6.22864,0.199891,2.6,11.0254,722,0,
12867,6.22833,0.201417,2.6,11.0254,722,0,
12867,6.22833,0.199891,2.6,11.0254,722,0,
12867,6.22467,0.202943,2.6,11.0254,722,0,
12867,6.22345,0.202943,2.6,11.0254,722,0,
12867,6.22406,0.198365,2.6,11.0254,722,0,
12867,6.22375,0.201417,2.6,11.0254,722,0,
12867,6.22375,0.201417,2.6,11.0254,722,0,
12867,6.21948,0.198365,2.6,11.0254,722,0,
12867,6.21857,0.199891,2.6,11.0254,722,0,
12867,6.21887,0.204469,2.6,11.0254,722,0,
12867,6.21887,0.199891,2.6,11.0254,722,0,
12867,6.21887,0.202943,2.6,11.0254,722,0,
12867,6.21399,0.199891,2.6,11.0254,722,0,
12867,6.21429,0.202943,2.6,11.0254,722,0,
12867,6.21429,0.202943,2.6,11.0254,722,0,
12867,6.21399,0.202943,2.6,11.0254,722,0,
12867,6.21368,0.201417,2.6,11.0254,722,0,
12867,6.20911,0.202943,2.6,11.0254,722,0,
12867,6.2088,0.201417,2.6,11.0254,722,0,
12867,6.20911,0.202943,2.6,11.0254,722,0,
12867,6.20941,0.202943,2.6,11.0254,722,0,
12867,6.20483,0.201417,2.6,11.0254,722,0,
12867,6.20392,0.202943,2.6,11.0254,722,0,
12867,6.20422,0.201417,2.6,11.0254,722,0,
12867,6.20422,0.201417,2.6,11.0254,722,0,
12867,6.20392,0.199891,2.6,11.0254,722,0,
12867,6.19904,0.202943,2.6,11.0254,722,0,
12867.1,6.19965,0.204469,2.6,11.0254,722,0,
12867.1,6.19934,0.199891,2.6,11.0254,722,0,
12867.1,6.19904,0.199891,2.6,11.0254,722,0,
12867.1,6.1969,0.202943,2.6,11.0254,722,0,
12867.1,6.19415,0.201417,2.6,11.0254,722,0,
12867.1,6.19476,0.199891,2.6,11.0254,722,0,
12867.1,6.19415,0.202943,2.6,11.0254,722,0,
12867.1,6.19446,0.201417,2.6,11.0254,722,0,
12867.1,6.18958,0.201417,2.6,11.0254,722,0,
12867.1,6.18988,0.199891,2.6,11.0254,722,0,
12867.1,6.18958,0.201417,2.6,11.0254,722,0,
12867.1,6.18866,0.201417,2.6,11.0254,722,0,
12867.1,6.18713,0.202943,2.6,11.0254,722,0,
12867.1,6.185,0.204469,2.6,11.0254,722,0,
12867.1,6.18378,0.199891,2.6,11.0254,722,0,
12867.1,6.18439,0.202943,2.6,11.0254,722,0,
12867.1,6.185,0.199891,2.6,11.0254,722,0,
12867.1,6.1792,0.201417,2.6,11.0254,722,0,
12867.1,6.1795,0.202943,2.6,11.0254,722,0,
12867.1,6.18011,0.199891,2.6,11.0254,722,0,
12867.1,6.18011,0.201417,2.6,11.0254,722,0,
12867.1,6.17706,0.201417,2.6,11.0254,722,0,
12867.1,6.17493,0.201417,2.6,11.0254,722,0,
12867.1,6.17432,0.199891,2.6,11.0254,722,0,
12867.1,6.17523,0.199891,2.6,11.0254,722,0,
12867.1,6.17493,0.199891,2.6,11.0254,722,0,
12867.1,6.17004,0.202943,2.6,11.0254,722,0,
12867.1,6.17065,0.201417,2.6,11.0254,722,0,
12867.1,6.17004,0.201417,2.6,11.0254,722,0,
12867.1,6.17004,0.202943,2.6,11.0254,722,0,
12867.1,6.16577,0.201417,2.6,11.0254,722,0,
12867.1,6.16486,0.199891,2.6,11.0254,722,0,
12867.1,6.16516,0.204469,2.6,11.0254,722,0,
12867.1,6.16547,0.199891,2.6,11.0254,722,0,
12867.1,6.16486,0.199891,2.6,11.0254,722,0,
12867.1,6.15967,0.202943,2.6,11.0254,722,0,
12867.1,6.15997,0.201417,2.6,11.0254,722,0,
12867.1,6.16058,0.202943,2.6,11.0254,722,0,
12867.1,6.16028,0.205995,2.6,11.0254,722,0,
12867.1,6.15479,0.204469,2.6,11.0254,722,0,
12867.1,6.15509,0.199891,2.6,11.0254,722,0,
12867.1,6.1554,0.201417,2.6,11.0254,722,0,
12867.1,6.15479,0.199891,2.6,11.0254,722,0,
12867.1,6.15234,0.202943,2.6,11.0254,722,0,
12867.1,6.15051,0.202943,2.6,11.0254,722,0,
12867.1,6.14929,0.201417,2.6,11.0254,722,0,
12867.1,6.15021,0.202943,2.6,11.0254,722,0,
12867.1,6.1499,0.198365,2.6,11.0254,722,0,
12867.1,6.14532,0.202943,2.6,11.0254,722,0,
12867.1,6.14532,0.198365,2.6,11.0254,722,0,
12867.2,6.14532,0.199891,2.6,11.0254,722,0,
12867.2,6.14563,0.196839,2.6,11.0254,722,0,
12867.2,6.14105,0.196839,2.6,11.0254,722,0,
12867.2,6.14044,0.198365,2.6,11.0254,722,0,
12867.2,6.14075,0.202943,2.6,11.0254,722,0,
12867.2,6.13983,0.201417,2.6,11.0254,722,0,
12867.2,6.13983,0.199891,2.6,11.0254,722,0,
12867.2,6.13495,0.198365,2.6,11.0254,722,0,
12867.2,6.13556,0.202943,2.6,11.0254,722,0,
12867.2,6.13586,0.201417,2.6,11.0254,722,0,
12867.2,6.13556,0.201417,2.6,11.0254,722,0,
12867.2,6.13068,0.202943,2.6,11.0254,722,0,
12867.2,6.13037,0.199891,2.6,11.0254,722,0,
12867.2,6.13068,0.199891,2.6,11.0254,722,0,
12867.2,6.13068,0.198365,2.6,11.0254,722,0,
12867.2,6.12793,0.201417,2.6,11.0254,722,0,
12867.2,6.12579,0.198365,2.6,11.0254,722,0,
12867.2,6.12549,0.202943,2.6,11.0254,722,0,
12867.2,6.12579,0.202943,2.6,11.0254,722,0,
12867.2,6.12579,0.202943,2.6,11.0254,722,0,
12867.2,6.12091,0.201417,2.6,11.0254,722,0,
12867.2,6.1203,0.201417,2.6,11.0254,722,0,
12867.2,6.12061,0.205995,2.6,11.0254,722,0,
12867.2,6.1203,0.199891,2.6,11.0254,722,0,
12867.2,6.11816,0.199891,2.6,11.0254,722,0,
12867.2,6.11542,0.199891,2.6,11.0254,722,0,
12867.2,6.11603,0.202943,2.6,11.0254,722,0,
12867.2,6.11633,0.198365,2.6,11.0254,722,0,
12867.2,6.11511,0.199891,2.6,11.0254,722,0,
12867.2,6.11176,0.202943,2.6,11.0254,722,0,
12867.2,6.11084,0.199891,2.6,11.0254,722,0,
12867.2,6.11115,0.201417,2.6,11.0254,722,0,
12867.2,6.11115,0.202943,2.6,11.0254,722,0,
12867.2,6.1084,0.201417,2.6,11.0254,722,0,
12867.2,6.10657,0.20752,2.6,11.0254,722,0,
12867.2,6.10626,0.199891,2.6,11.0254,722,0,
12867.2,6.10596,0.201417,2.6,11.0254,722,0,
12867.2,6.10657,0.201417,2.6,11.0254,722,0,
12867.2,6.10199,0.201417,2.6,11.0254,722,0,
12867.2,6.10138,0.198365,2.6,11.0254,722,0,
12867.2,6.10107,0.204469,2.6,11.0254,722,0,
12867.2,6.10107,0.202943,2.6,11.0254,722,0,
12867.2,6.10138,0.199891,2.6,11.0254,722,0,
12867.2,6.09619,0.202943,2.6,11.0254,722,0,
12867.2,6.0965,0.202943,2.6,11.0254,722,0,
12867.2,6.09619,0.199891,2.6,11.0254,722,0,
12867.2,6.0965,0.202943,2.6,11.0254,722,0,
12867.2,6.09344,0.198365,2.6,11.0254,722,0,
12867.2,6.09131,0.199891,2.6,11.0254,722,0,
12867.2,6.091,0.202943,2.6,11.0254,722,0,
12867.3,6.09131,0.201417,2.6,11.0254,722,0,
12867.3,6.09131,0.204469,2.6,11.0254,722,0,
12867.3,6.08734,0.201417,2.6,11.0254,722,0,
12867.3,6.08612,0.201417,2.6,11.0254,722,0,
12867.3,6.08612,0.205995,2.6,11.0254,722,0,
12867.3,6.08673,0.198365,2.6,11.0254,722,0,
12867.3,6.08612,0.198365,2.6,11.0254,722,0,
12867.3,6.08215,0.204469,2.6,11.0254,722,0,
12867.3,6.08124,0.204469,2.6,11.0254,722,0,
12867.3,6.08185,0.201417,2.6,11.0254,722,0,
12867.3,6.08154,0.202943,2.6,11.0254,722,0,
12867.3,6.08185,0.195313,2.6,11.0254,722,0,
12867.3,6.07635,0.199891,2.6,11.0254,722,0,
12867.3,6.07635,0.199891,2.6,11.0254,722,0,
12867.3,6.07605,0.199891,2.6,11.0254,722,0,
12867.3,6.07666,0.198365,2.6,11.0254,722,0,
12867.3,6.07666,0.199891,2.6,11.0254,722,0,
12867.3,6.07269,0.199891,2.6,11.0254,722,0,
12867.3,6.07178,0.201417,2.6,11.0254,722,0,
12867.3,6.07117,0.204469,2.6,11.0254,722,0,
12867.3,6.07208,0.198365,2.6,11.0254,722,0,
12867.3,6.07178,0.196839,2.6,11.0254,722,0,
12867.3,6.0675,0.204469,2.6,11.0254,722,0,
12867.3,6.0675,0.201417,2.6,11.0254,722,0,
12867.3,6.06781,0.202943,2.6,11.0254,722,0,
12867.3,6.06659,0.199891,2.6,11.0254,722,0,
12867.3,6.06689,0.199891,2.6,11.0254,722,0,
12867.3,6.06201,0.201417,2.6,11.0254,722,0,
12867.3,6.06232,0.202943,2.6,11.0254,722,0,
12867.3,6.06171,0.199891,2.6,11.0254,722,0,
12867.3,6.0614,0.202943,2.6,11.0254,722,0,
12867.3,6.06171,0.201417,2.6,11.0254,722,0,
12867.3,6.05743,0.201417,2.6,11.0254,722,0,
12867.3,6.05743,0.202943,2.6,11.0254,722,0,
12867.3,6.05713,0.202943,2.6,11.0254,722,0,
12867.3,6.05713,0.201417,2.6,11.0254,722,0,
12867.3,6.05713,0.202943,2.6,11.0254,722,0,
12867.3,6.05438,0.201417,2.6,11.0254,722,0,
12867.3,6.05225,0.201417,2.6,11.0254,722,0,
12867.3,6.05316,0.202943,2.6,11.0254,722,0,
12867.3,6.05164,0.199891,2.6,11.0254,722,0,
12867.3,6.05194,0.201417,2.6,11.0254,722,0,
12867.3,6.05255,0.201417,2.6,11.0254,722,0,
12867.3,6.04797,0.201417,2.6,11.0254,722,0,
12867.3,6.04736,0.202943,2.6,11.0254,722,0,
12867.3,6.04736,0.201417,2.6,11.0254,722,0,
12867.3,6.04736,0.201417,2.6,11.0254,722,0,
12867.3,6.04767,0.202943,2.6,11.0254,722,0,
12867.3,6.04309,0.199891,2.6,11.0254,722,0,
12867.4,6.0437,0.202943,2.6,11.0254,722,0,
12867.4,6.04279,0.202943,2.6,11.0254,722,0,
12867.4,6.0434,0.202943,2.6,11.0254,722,0,
12867.4,6.0437,0.199891,2.6,11.0254,722,0,
12867.4,6.03943,0.202943,2.6,11.0254,722,0,
12867.4,6.03821,0.199891,2.6,11.0254,722,0,
12867.4,6.03851,0.199891,2.6,11.0254,722,0,
12867.4,6.0376,0.201417,2.6,11.0254,722,0,
12867.4,6.03821,0.198365,2.6,11.0254,722,0,
12867.4,6.03851,0.201417,2.6,11.0254,722,0,
12867.4,6.03363,0.202943,2.6,11.0254,722,0,
12867.4,6.03333,0.202943,2.6,11.0254,722,0,
12867.4,6.03302,0.201417,2.6,11.0254,722,0,
12867.4,6.03271,0.201417,2.6,11.0254,722,0,
12867.4,6.03302,0.201417,2.6,11.0254,722,0,
12867.4,6.02966,0.201417,2.6,11.0254,722,0,
12867.4,6.02844,0.196839,2.6,11.0254,722,0,
12867.4,6.02753,0.202943,2.6,11.0254,722,0,
12867.4,6.02783,0.201417,2.6,11.0254,722,0,
12867.4,6.02783,0.202943,2.6,11.0254,722,0,
12867.4,6.02722,0.201417,2.6,11.0254,722,0,
12867.4,6.02325,0.198365,2.6,11.0254,722,0,
12867.4,6.02264,0.201417,2.6,11.0254,722,0,
12867.4,6.02234,0.199891,2.6,11.0254,722,0,
12867.4,6.02264,0.199891,2.6,11.0254,722,0,
12867.4,6.02295,0.204469,2.6,11.0254,722,0,
12867.4,6.02234,0.201417,2.6,11.0254,722,0,
12867.4,6.01837,0.199891,2.6,11.0254,722,0,
12867.4,6.01746,0.199891,2.6,11.0254,722,0,
12867.4,6.01807,0.201417,2.6,11.0254,722,0,
12867.4,6.01746,0.198365,2.6,11.0254,722,0,
12867.4,6.01776,0.199891,2.6,11.0254,722,0,
12867.4,6.01776,0.199891,2.6,11.0254,722,0,
12867.4,6.01349,0.202943,2.6,11.0254,722,0,
12867.4,6.01288,0.198365,2.6,11.0254,722,0,
12867.4,6.01349,0.199891,2.6,11.0254,722,0,
12867.4,6.01318,0.204469,2.6,11.0254,722,0,
12867.4,6.01288,0.199891,2.6,11.0254,722,0,
12867.4,6.01318,0.199891,2.6,11.0254,722,0,
12867.4,6.00769,0.201417,2.6,11.0254,722,0,
12867.4,6.00708,0.201417,2.6,11.0254,722,0,
12867.4,6.0083,0.199891,2.6,11.0254,722,0,
12867.4,6.008,0.199891,2.6,11.0254,722,0,
12867.4,6.00861,0.198365,2.6,11.0254,722,0,
12867.4,6.00739,0.198365,2.6,11.0254,722,0,
12867.4,6.00372,0.198365,2.6,11.0254,722,0,
12867.4,6.00311,0.202943,2.6,11.0254,722,0,
12867.4,6.00311,0.201417,2.6,11.0254,722,0,
12867.4,6.00372,0.201417,2.6,11.0254,722,0,
12867.4,6.00311,0.204469,2.6,11.0254,722,0,
12867.5,6.00311,0.201417,2.6,11.0254,722,0,
12867.5,5.99884,0.198365,2.6,11.0254,722,0,
12867.5,5.99792,0.199891,2.6,11.0254,722,0,
12867.5,5.99823,0.201417,2.6,11.0254,722,0,
12867.5,5.99884,0.199891,2.6,11.0254,722,0,
12867.5,5.99854,0.204469,2.6,11.0254,722,0,
12867.5,5.99823,0.199891,2.6,11.0254,722,0,
12867.5,5.99548,0.199891,2.6,11.0254,722,0,
12867.5,5.99365,0.202943,2.6,11.0254,722,0,
12867.5,5.99365,0.198365,2.6,11.0254,722,0,
12867.5,5.99396,0.201417,2.6,11.0254,722,0,
12867.5,5.99335,0.201417,2.6,11.0254,722,0,
12867.5,5.99365,0.201417,2.6,11.0254,722,0,
12867.5,5.99396,0.199891,2.6,11.0254,722,0,
12867.5,5.98877,0.201417,2.6,11.0254,722,0,
12867.5,5.98877,0.201417,2.6,11.0254,722,0,
12867.5,5.98907,0.204469,2.6,11.0254,722,0,
12867.5,5.98846,0.199891,2.6,11.0254,722,0,
12867.5,5.98907,0.199891,2.6,11.0254,722,0,
12867.5,5.98877,0.199891,2.6,11.0254,722,0,
12867.5,5.98785,0.201417,2.6,11.0254,722,0,
12867.5,5.98389,0.201417,2.6,11.0254,722,0,
12867.5,5.98358,0.199891,2.6,11.0254,722,0,
12867.5,5.98389,0.198365,2.6,11.0254,722,0,
12867.5,5.98419,0.198365,2.6,11.0254,722,0,
12867.5,5.98389,0.199891,2.6,11.0254,722,0,
12867.5,5.98328,0.201417,2.6,11.0254,722,0,
12867.5,5.98358,0.201417,2.6,11.0254,722,0,
12867.5,5.98022,0.201417,2.6,11.0254,722,0,
12867.5,5.9787,0.199891,2.6,11.0254,722,0,
12867.5,5.979,0.201417,2.6,11.0254,722,0,
12867.5,5.9787,0.199891,2.6,11.0254,722,0,
12867.5,5.97839,0.201417,2.6,11.0254,722,0,
12867.5,5.979,0.199891,2.6,11.0254,722,0,
12867.5,5.97931,0.202943,2.6,11.0254,722,0,
12867.5,5.97839,0.198365,2.6,11.0254,722,0,
12867.5,5.97412,0.198365,2.6,11.0254,722,0,
12867.5,5.97321,0.201417,2.6,11.0254,722,0,
12867.5,5.97382,0.201417,2.6,11.0254,722,0,
12867.5,5.97351,0.198365,2.6,11.0254,722,0,
12867.5,5.97412,0.204469,2.6,11.0254,722,0,
12867.5,5.9729,0.201417,2.6,11.0254,722,0,
12867.5,5.9729,0.198365,2.6,11.0254,722,0,
12867.5,5.97168,0.201417,2.6,11.0254,722,0,
12867.5,5.96893,0.201417,2.6,11.0254,722,0,
12867.5,5.96893,0.201417,2.6,11.0254,722,0,
12867.5,5.96893,0.199891,2.6,11.0254,722,0,
12867.5,5.96924,0.201417,2.6,11.0254,722,0,
12867.5,5.96924,0.198365,2.6,11.0254,722,0,
12867.5,5.96863,0.201417,2.6,11.0254,722,0,
12867.5,5.96863,0.204469,2.6,11.0254,722,0,
12867.6,5.96466,0.202943,2.6,11.0254,722,0,
12867.6,5.96405,0.199891,2.6,11.0254,722,0,
12867.6,5.96405,0.201417,2.6,11.0254,722,0,
12867.6,5.96405,0.199891,2.6,11.0254,722,0,
12867.6,5.96466,0.199891,2.6,11.0254,722,0,
12867.6,5.96405,0.201417,2.6,11.0254,722,0,
12867.6,5.96436,0.204469,2.6,11.0254,722,0,
12867.6,5.96375,0.201417,2.6,11.0254,722,0,
12867.6,5.96039,0.201417,2.6,11.0254,722,0,
12867.6,5.95886,0.202943,2.6,11.0254,722,0,
12867.6,5.95947,0.202943,2.6,11.0254,722,0,
12867.6,5.95886,0.199891,2.6,11.0254,722,0,
12867.6,5.95856,0.199891,2.6,11.0254,722,0,
12867.6,5.96008,0.201417,2.6,11.0254,722,0,
12867.6,5.95947,0.199891,2.6,11.0254,722,0,
12867.6,5.95917,0.198365,2.6,11.0254,722,0,
12867.6,5.95612,0.201417,2.6,11.0254,722,0,
12867.6,5.95459,0.201417,2.6,11.0254,722,0,
12867.6,5.95428,0.201417,2.6,11.0254,722,0,
12867.6,5.95459,0.202943,2.6,11.0254,722,0,
12867.6,5.95398,0.199891,2.6,11.0254,722,0,
12867.6,5.9549,0.201417,2.6,11.0254,722,0,
12867.6,5.95398,0.201417,2.6,11.0254,722,0,
12867.6,5.95337,0.199891,2.6,11.0254,722,0,
12867.6,5.95398,0.201417,2.6,11.0254,722,0,
12867.6,5.94971,0.201417,2.6,11.0254,722,0,
12867.6,5.9491,0.201417,2.6,11.0254,722,0,
12867.6,5.9494,0.198365,2.6,11.0254,722,0,
12867.6,5.9491,0.199891,2.6,11.0254,722,0,
12867.6,5.94971,0.198365,2.6,11.0254,722,0,
12867.6,5.9494,0.202943,2.6,11.0254,722,0,
12867.6,5.9491,0.199891,2.6,11.0254,722,0,
12867.6,5.94971,0.201417,2.6,11.0254,722,0,
12867.6,5.94513,0.201417,2.6,11.0254,722,0,
12867.6,5.94421,0.201417,2.6,11.0254,722,0,
12867.6,5.94391,0.204469,2.6,11.0254,722,0,
12867.6,5.94391,0.202943,2.6,11.0254,722,0,
12867.6,5.9436,0.204469,2.6,11.0254,722,0,
12867.6,5.94421,0.201417,2.6,11.0254,722,0,
12867.6,5.94543,0.201417,2.6,11.0254,722,0,
12867.6,5.94391,0.199891,2.6,11.0254,722,0,
12867.6,5.94025,0.202943,2.6,11.0254,722,0,
12867.6,5.93933,0.202943,2.6,11.0254,722,0,
12867.6,5.93964,0.199891,2.6,11.0254,722,0,
12867.6,5.93933,0.202943,2.6,11.0254,722,0,
12867.6,5.93903,0.195313,2.6,11.0254,722,0,
12867.6,5.93964,0.201417,2.6,11.0254,722,0,
12867.6,5.93964,0.204469,2.6,11.0254,722,0,
12867.6,5.93933,0.201417,2.6,11.0254,722,0,
12867.6,5.93903,0.201417,2.6,11.0254,722,0,
12867.7,5.93414,0.201417,2.6,11.0254,722,0,
12867.7,5.93445,0.201417,2.6,11.0254,722,0,
12867.7,5.93445,0.201417,2.6,11.0254,722,0,
12867.7,5.93475,0.202943,2.6,11.0254,722,0,
12867.7,5.93506,0.202943,2.6,11.0254,722,0,
12867.7,5.93536,0.202943,2.6,11.0254,722,0,
12867.7,5.93414,0.201417,2.6,11.0254,722,0,
12867.7,5.93384,0.202943,2.6,11.0254,722,0,
12867.7,5.92957,0.201417,2.6,11.0254,722,0,
12867.7,5.92987,0.202943,2.6,11.0254,722,0,
12867.7,5.93048,0.202943,2.6,11.0254,722,0,
12867.7,5.92987,0.198365,2.6,11.0254,722,0,
12867.7,5.93018,0.199891,2.6,11.0254,722,0,
12867.7,5.92987,0.204469,2.6,11.0254,722,0,
12867.7,5.93048,0.202943,2.6,11.0254,722,0,
12867.7,5.92926,0.201417,2.6,11.0254,722,0,
12867.7,5.9256,0.201417,2.6,11.0254,722,0,
12867.7,5.92407,0.202943,2.6,11.0254,722,0,
12867.7,5.92529,0.202943,2.6,11.0254,722,0,
12867.7,5.92468,0.199891,2.6,11.0254,722,0,
12867.7,5.92529,0.199891,2.6,11.0254,722,0,
12867.7,5.92499,0.201417,2.6,11.0254,722,0,
12867.7,5.92499,0.201417,2.6,11.0254,722,0,
12867.7,5.92468,0.199891,2.6,11.0254,722,0,
12867.7,5.92499,0.202943,2.6,11.0254,722,0,
12867.7,5.9198,0.199891,2.6,11.0254,722,0,
12867.7,5.9198,0.199891,2.6,11.0254,722,0,
12867.7,5.9198,0.204469,2.6,11.0254,722,0,
12867.7,5.9201,0.198365,2.6,11.0254,722,0,
12867.7,5.91949,0.201417,2.6,11.0254,722,0,
12867.7,5.92041,0.201417,2.6,11.0254,722,0,
12867.7,5.9201,0.201417,2.6,11.0254,722,0,
12867.7,5.9198,0.202943,2.6,11.0254,722,0,
12867.7,5.91705,0.201417,2.6,11.0254,722,0,
12867.7,5.91522,0.201417,2.6,11.0254,722,0,
12867.7,5.91553,0.201417,2.6,11.0254,722,0,
12867.7,5.91553,0.204469,2.6,11.0254,722,0,
12867.7,5.91461,0.201417,2.6,11.0254,722,0,
12867.7,5.91492,0.202943,2.6,11.0254,722,0,
12867.7,5.91522,0.201417,2.6,11.0254,722,0,
12867.7,5.91461,0.199891,2.6,11.0254,722,0,
12867.7,5.91492,0.201417,2.6,11.0254,722,0,
12867.7,5.91492,0.201417,2.6,11.0254,722,0,
12867.7,5.91003,0.199891,2.6,11.0254,722,0,
12867.7,5.91034,0.201417,2.6,11.0254,722,0,
12867.7,5.91064,0.198365,2.6,11.0254,722,0,
12867.7,5.91034,0.202943,2.6,11.0254,722,0,
12867.7,5.90973,0.199891,2.6,11.0254,722,0,
12867.7,5.91034,0.201417,2.6,11.0254,722,0,
12867.8,5.91034,0.199891,2.6,11.0254,722,0,
12867.8,5.91034,0.198365,2.6,11.0254,722,0,
12867.8,5.91064,0.199891,2.6,11.0254,722,0,
12867.8,5.90546,0.201417,2.6,11.0254,722,0,
12867.8,5.90576,0.199891,2.6,11.0254,722,0,
12867.8,5.90576,0.201417,2.6,11.0254,722,0,
12867.8,5.90576,0.201417,2.6,11.0254,722,0,
12867.8,5.90546,0.204469,2.6,11.0254,722,0,
12867.8,5.90515,0.199891,2.6,11.0254,722,0,
12867.8,5.90485,0.202943,2.6,11.0254,722,0,
12867.8,5.90546,0.202943,2.6,11.0254,722,0,
12867.8,5.90546,0.201417,2.6,11.0254,722,0,
12867.8,5.90515,0.199891,2.6,11.0254,722,0,
12867.8,5.90027,0.202943,2.6,11.0254,722,0,
12867.8,5.90088,0.201417,2.6,11.0254,722,0,
12867.8,5.90027,0.198365,2.6,11.0254,722,0,
12867.8,5.90057,0.202943,2.6,11.0254,722,0,
12867.8,5.90027,0.201417,2.6,11.0254,722,0,
12867.8,5.90088,0.202943,2.6,11.0254,722,0,
12867.8,5.89996,0.201417,2.6,11.0254,722,0,
12867.8,5.90118,0.205995,2.6,11.0254,722,0,
12867.8,5.89996,0.202943,2.6,11.0254,722,0,
12867.8,5.90057,0.199891,0,11.0254,722,0,
12867.8,5.89844,0.201417,0,11.0254,722,0,
12867.8,5.89539,0.199891,0,11.0254,722,0,
12867.8,5.896,0.198365,0,11.0254,722,0,
12867.8,5.89539,0.202943,0,11.0254,722,0,
12867.8,5.8963,0.201417,0,11.0254,722,0,
12867.8,5.89508,0.202943,0,11.0254,722,0,
12867.8,5.89539,0.199891,0,11.0254,722,0,
12867.8,5.89569,0.202943,0,11.0254,722,0,
12867.8,5.89539,0.204469,0,11.0254,722,0,
12867.8,5.89539,0.199891,0,11.0254,722,0,
12867.8,5.896,0.201417,0,11.0254,722,0,
12867.8,5.89294,0.196839,0,11.0254,722,0,
12867.8,5.8905,0.202943,0,11.0254,722,0,
12867.8,5.89081,0.199891,0,11.0254,722,0,
12867.8,5.8905,0.201417,0,11.0254,722,0,
12867.8,5.8905,0.201417,0,11.0254,722,0,
12867.8,5.8905,0.201417,0,11.0254,722,0,
12867.8,5.8905,0.199891,0,11.0254,722,0,
12867.8,5.89111,0.201417,0,11.0254,722,0,
12867.8,5.8905,0.198365,0,11.0254,722,0,
12867.8,5.8905,0.204469,0,11.0254,722,0,
12867.8,5.89111,0.202943,0,11.0254,722,0,
12867.8,5.89172,0.201417,0,11.0254,722,0,
12867.8,5.88531,0.204469,0,11.0254,722,0,
12867.8,5.88593,0.202943,0,11.0254,722,0,
12867.8,5.88562,0.204469,0,11.0254,722,0,
12867.8,5.88531,0.199891,0,11.0254,722,0,
12867.9,5.88562,0.199891,0,11.0254,722,0,
12867.9,5.88531,0.196839,0,11.0254,722,0,
12867.9,5.88562,0.202943,0,11.0254,722,0,
12867.9,5.88562,0.204469,0,11.0254,722,0,
12867.9,5.88562,0.199891,0,11.0254,722,0,
12867.9,5.88593,0.202943,0,11.0254,722,0,
12867.9,5.88531,0.201417,0,11.0254,722,0,
12867.9,5.88165,0.201417,0,11.0254,722,0,
12867.9,5.88104,0.201417,0,11.0254,722,0,
12867.9,5.88135,0.202943,0,11.0254,722,0,
12867.9,5.88104,0.199891,0,11.0254,722,0,
12867.9,5.88074,0.199891,0,11.0254,722,0,
12867.9,5.88104,0.199891,0,11.0254,722,0,
12867.9,5.88104,0.201417,0,11.0254,722,0,
12867.9,5.88074,0.202943,0,11.0254,722,0,
12867.9,5.88043,0.202943,0,11.0254,722,0,
12867.9,5.88043,0.202943,0,11.0254,722,0,
12867.9,5.88104,0.201417,0,11.0254,722,0,
12867.9,5.88074,0.202943,0,11.0254,722,0,
12867.9,5.87646,0.199891,0,11.0254,722,0,
12867.9,5.87616,0.198365,0,11.0254,722,0,
12867.9,5.87616,0.198365,0,11.0254,722,0,
12867.9,5.87555,0.201417,0,11.0254,722,0,
12867.9,5.87585,0.201417,0,11.0254,722,0,
12867.9,5.87616,0.199891,0,11.0254,722,0,
12867.9,5.87555,0.202943,0,11.0254,722,0,
12867.9,5.87585,0.198365,0,11.0254,722,0,
12867.9,5.87585,0.201417,0,11.0254,722,0,
12867.9,5.87616,0.201417,0,11.0254,722,0,
12867.9,5.87585,0.201417,0,11.0254,722,0,
12867.9,5.87067,0.198365,0,11.0254,722,0,
12867.9,5.87006,0.199891,0,11.0254,722,0,
12867.9,5.87128,0.202943,0,11.0254,722,0,
12867.9,5.87067,0.201417,0,11.0254,722,0,
12867.9,5.87158,0.199891,0,11.0254,722,0,
12867.9,5.87067,0.199891,2.374,11.0254,722,0,
12867.9,5.87158,0.199891,2.374,11.0254,722,0,
12867.9,5.87097,0.201417,2.374,11.0254,722,0,
12867.9,5.87067,0.202943,2.374,11.0254,722,0,
12867.9,5.87158,0.201417,2.374,11.0254,722,0,
12867.9,5.87128,0.199891,2.374,11.0254,722,0,
12867.9,5.86914,0.202943,2.374,11.0254,722,0,
12867.9,5.86609,0.201417,2.374,11.0254,722,0,
12867.9,5.8667,0.202943,2.374,11.0254,722,0,
12867.9,5.86578,0.199891,2.374,11.0254,722,0,
12867.9,5.86609,0.204469,2.374,11.0254,722,0,
12867.9,5.86639,0.201417,2.374,11.0254,722,0,
12867.9,5.86639,0.202943,2.374,11.0254,722,0,
12867.9,5.86639,0.202943,2.374,11.0254,722,0,
12867.9,5.86609,0.202943,2.374,11.0254,722,0,
12868,5.86639,0.204469,2.374,11.0254,722,0,
12868,5.86578,0.202943,2.374,11.0254,722,0,
12868,5.86639,0.198365,2.374,11.0254,722,0,
12868,5.86609,0.199891,2.374,11.0254,722,0,
12868,5.86121,0.202943,2.374,11.0254,722,0,
12868,5.86182,0.201417,2.374,11.0254,722,0,
12868,5.86121,0.201417,2.374,11.0254,722,0,
12868,5.8606,0.201417,2.374,11.0254,722,0,
12868,5.8609,0.199891,2.374,11.0254,722,0,
12868,5.8609,0.199891,2.374,11.0254,722,0,
12868,5.86121,0.199891,2.374,11.0254,722,0,
12868,5.8609,0.202943,2.374,11.0254,722,0,
12868,5.8609,0.202943,2.374,11.0254,722,0,
12868,5.86151,0.199891,2.374,11.0254,722,0,
12868,5.8606,0.202943,2.374,11.0254,722,0,
12868,5.86151,0.199891,2.374,11.0254,722,0,
12868,5.8609,0.201417,2.374,11.0254,722,0,
12868,5.86121,0.202943,2.374,11.0254,722,0,
12868,5.86121,0.202943,2.374,11.0254,722,0,
12868,5.85663,0.201417,2.374,11.0254,722,0,
12868,5.85632,0.201417,2.374,11.0254,722,0,
12868,5.85693,0.202943,2.374,11.0254,722,0,
12868,5.85602,0.202943,2.374,11.0254,722,0,
12868,5.85571,0.201417,2.374,11.0254,722,0,
12868,5.85602,0.202943,2.374,11.0254,722,0,
12868,5.85724,0.201417,2.374,11.0254,722,0,
12868,5.85663,0.199891,2.374,11.0254,722,0,
12868,5.85632,0.201417,2.374,11.0254,722,0,
12868,5.85602,0.199891,2.374,11.0254,722,0,
12868,5.85663,0.202943,2.374,11.0254,722,0,
12868,5.85663,0.202943,2.374,11.0254,722,0,
12868,5.85724,0.199891,2.374,11.0254,722,0,
12868,5.85632,0.204469,2.374,11.0254,722,0,
12868,5.85602,0.201417,2.374,11.0254,722,0,
12868,5.85632,0.199891,2.374,11.0254,722,0,
12868,5.85571,0.201417,2.374,11.0254,722,0,
12868,5.85632,0.202943,2.374,11.0254,722,0,
12868,5.85632,0.201417,2.374,11.0254,722,0,
12868,5.85663,0.201417,2.374,11.0254,722,0,
12868,5.85632,0.201417,2.374,11.0254,722,0,
12868,5.85632,0.202943,2.374,11.0254,722,0,
12868,5.85632,0.199891,2.374,11.0254,722,0,
12868,5.85571,0.201417,2.374,11.0254,722,0,
12868,5.85693,0.199891,2.374,11.0254,722,0,
12868,5.85632,0.201417,2.374,11.0254,722,0,
12868,5.85663,0.201417,2.374,11.0254,722,0,
12868,5.85663,0.201417,2.374,11.0254,722,0,
12868,5.85602,0.201417,2.374,11.0254,722,0,
12868,5.85663,0.202943,2.374,11.0254,722,0,
12868,5.85663,0.201417,2.374,11.0254,722,0,
12868,5.85632,0.199891,2.374,11.0254,722,0,
12868.1,5.85663,0.201417,2.374,11.0254,722,0,
12868.1,5.85571,0.201417,2.374,11.0254,722,0,
12868.1,5.85602,0.201417,2.374,11.0254,722,0,
12868.1,5.85602,0.201417,2.374,11.0254,722,0,
12868.1,5.85602,0.199891,2.374,11.0254,722,0,
12868.1,5.85724,0.199891,2.374,11.0254,722,0,
12868.1,5.85632,0.204469,2.374,11.0254,722,0,
12868.1,5.85602,0.204469,2.374,11.0254,722,0,
12868.1,5.85632,0.201417,2.374,11.0254,722,0,
12868.1,5.85663,0.199891,2.374,11.0254,722,0,
12868.1,5.85663,0.201417,2.374,11.0254,722,0,
12868.1,5.85663,0.202943,2.374,11.0254,722,0,
12868.1,5.85663,0.204469,2.374,11.0254,722,0,
12868.1,5.85693,0.204469,2.374,11.0254,722,0,
12868.1,5.85663,0.204469,2.374,11.0254,722,0,
12868.1,5.85632,0.202943,2.374,11.0254,722,0,
12868.1,5.85632,0.199891,2.374,11.0254,722,0,
12868.1,5.85663,0.198365,2.374,11.0254,722,0,
12868.1,5.85693,0.201417,2.374,11.0254,722,0,
12868.1,5.85693,0.202943,2.374,11.0254,722,0,
12868.1,5.8609,0.202943,2.374,11.0254,722,0,
12868.1,5.86182,0.202943,2.374,11.0254,722,0,
12868.1,5.86182,0.204469,2.374,11.0254,722,0,
12868.1,5.86182,0.199891,2.374,11.0254,722,0,
12868.1,5.86121,0.201417,2.374,11.0254,722,0,
12868.1,5.86151,0.199891,2.374,11.0254,722,0,
12868.1,5.86151,0.201417,2.374,11.0254,722,0,
12868.1,5.86151,0.201417,2.374,11.0254,722,0,
12868.1,5.8609,0.201417,2.374,11.0254,722,0,
12868.1,5.86121,0.199891,2.374,11.0254,722,0,
12868.1,5.86151,0.202943,2.374,11.0254,722,0,
12868.1,5.8609,0.202943,2.374,11.0254,722,0,
12868.1,5.8609,0.201417,2.374,11.0254,722,0,
12868.1,5.86609,0.202943,2.374,11.0254,722,0,
12868.1,5.86609,0.199891,2.374,11.0254,722,0,
12868.1,5.86609,0.201417,2.374,11.0254,722,0,
12868.1,5.86578,0.201417,2.374,11.0254,722,0,
12868.1,5.86548,0.201417,2.374,11.0254,722,0,
12868.1,5.86578,0.201417,2.374,11.0254,722,0,
12868.1,5.86578,0.202943,2.374,11.0254,722,0,
12868.1,5.86609,0.201417,2.374,11.0254,722,0,
12868.1,5.86609,0.202943,2.374,11.0254,722,0,
12868.1,5.87036,0.204469,2.374,11.0254,722,0,
12868.1,5.87158,0.199891,2.374,11.0254,722,0,
12868.1,5.87189,0.199891,2.374,11.0254,722,0,
12868.1,5.87128,0.199891,2.374,11.0254,722,0,
12868.1,5.87067,0.204469,2.374,11.0254,722,0,
12868.1,5.87067,0.198365,2.374,11.0254,722,0,
12868.1,5.87097,0.196839,2.374,11.0254,722,0,
12868.1,5.87036,0.202943,2.374,11.0254,722,0,
12868.2,5.87585,0.201417,2.374,11.0254,722,0,
12868.2,5.87677,0.201417,2.374,11.0254,722,0,
12868.2,5.87585,0.202943,2.374,11.0254,722,0,
12868.2,5.87555,0.201417,2.374,11.0254,722,0,
12868.2,5.87585,0.199891,2.374,11.0254,722,0,
12868.2,5.87555,0.199891,2.374,11.0254,722,0,
12868.2,5.87799,0.201417,2.374,11.0254,722,0,
12868.2,5.88013,0.202943,2.374,11.0254,722,0,
12868.2,5.88043,0.204469,2.374,11.0254,722,0,
12868.2,5.88074,0.199891,2.374,11.0254,722,0,
12868.2,5.88104,0.201417,2.374,11.0254,722,0,
12868.2,5.87982,0.199891,2.374,11.0254,722,0,
12868.2,5.88348,0.201417,2.374,11.0254,722,0,
12868.2,5.88623,0.202943,2.374,11.0254,722,0,
12868.2,5.88562,0.201417,2.374,11.0254,722,0,
12868.2,5.88531,0.201417,2.374,11.0254,722,0,
12868.2,5.88623,0.198365,2.374,11.0254,722,0,
12868.2,5.88593,0.201417,2.374,11.0254,722,0,
12868.2,5.8905,0.198365,2.374,11.0254,722,0,
12868.2,5.8905,0.202943,2.374,11.0254,722,0,
12868.2,5.89111,0.201417,2.374,11.0254,722,0,
12868.2,5.8902,0.202943,2.374,11.0254,722,0,
12868.2,5.89081,0.204469,2.374,11.0254,722,0,
12868.2,5.89508,0.201417,2.374,11.0254,722,0,
12868.2,5.89508,0.201417,2.374,11.0254,722,0,
12868.2,5.89569,0.198365,2.374,11.0254,722,0,
12868.2,5.89508,0.201417,2.374,11.0254,722,0,
12868.2,5.89569,0.204469,2.374,11.0254,722,0,
12868.2,5.89966,0.201417,2.374,11.0254,722,0,
12868.2,5.90027,0.201417,2.374,11.0254,722,0,
12868.2,5.90057,0.201417,2.374,11.0254,722,0,
12868.2,5.90027,0.202943,2.374,11.0254,722,0,
12868.2,5.89996,0.199891,2.374,11.0254,722,0,
12868.2,5.90546,0.199891,2.374,11.0254,722,0,
12868.2,5.90485,0.199891,2.374,11.0254,722,0,
12868.2,5.90546,0.199891,2.374,11.0254,722,0,
12868.2,5.90515,0.199891,2.374,11.0254,722,0,
12868.2,5.90973,0.198365,2.374,11.0254,722,0,
12868.2,5.91003,0.201417,2.374,11.0254,722,0,
12868.2,5.91003,0.204469,2.374,11.0254,722,0,
12868.2,5.91034,0.202943,2.374,11.0254,722,0,
12868.2,5.91431,0.201417,2.374,11.0254,722,0,
12868.2,5.91553,0.201417,2.374,11.0254,722,0,
12868.2,5.91522,0.199891,2.374,11.0254,722,0,
12868.2,5.91583,0.202943,2.374,11.0254,722,0,
12868.2,5.91949,0.199891,2.374,11.0254,722,0,
12868.2,5.9198,0.204469,2.374,11.0254,722,0,
12868.2,5.9198,0.199891,2.374,11.0254,722,0,
12868.2,5.91949,0.202943,2.374,11.0254,722,0,
12868.2,5.92529,0.202943,2.374,11.0254,722,0,
12868.3,5.92529,0.201417,2.374,11.0254,722,0,
12868.3,5.92468,0.201417,2.374,11.0254,722,0,
12868.3,5.92468,0.202943,2.374,11.0254,722,0,
12868.3,5.92957,0.198365,2.374,11.0254,722,0,
12868.3,5.92987,0.202943,2.374,11.0254,722,0,
12868.3,5.92896,0.202943,2.374,11.0254,722,0,
12868.3,5.93384,0.199891,2.374,11.0254,722,0,
12868.3,5.93445,0.199891,2.374,11.0254,722,0,
12868.3,5.93414,0.199891,2.374,11.0254,722,0,
12868.3,5.93475,0.199891,2.374,11.0254,722,0,
12868.3,5.94025,0.202943,2.374,11.0254,722,0,
12868.3,5.93964,0.202943,2.374,11.0254,722,0,
12868.3,5.93994,0.202943,2.374,11.0254,722,0,
12868.3,5.9436,0.201417,2.374,11.0254,722,0,
12868.3,5.94452,0.202943,2.374,11.0254,722,0,
12868.3,5.94421,0.201417,2.374,11.0254,722,0,
12868.3,5.9491,0.198365,2.374,11.0254,722,0,
12868.3,5.9494,0.196839,2.374,11.0254,722,0,
12868.3,5.9494,0.202943,2.374,11.0254,722,0,
12868.3,5.95367,0.201417,2.374,11.0254,722,0,
12868.3,5.95398,0.199891,2.374,11.0254,722,0,
12868.3,5.95367,0.202943,2.374,11.0254,722,0,
12868.3,5.95795,0.201417,2.374,11.0254,722,0,
12868.3,5.95917,0.199891,2.374,11.0254,722,0,
12868.3,5.95917,0.202943,2.374,11.0254,722,0,
12868.3,5.96344,0.202943,2.374,11.0254,722,0,
12868.3,5.96436,0.199891,2.374,11.0254,722,0,
12868.3,5.96436,0.196839,2.374,11.0254,722,0,
12868.3,5.96832,0.201417,2.374,11.0254,722,0,
12868.3,5.96863,0.198365,2.374,11.0254,722,0,
12868.3,5.96893,0.202943,2.374,11.0254,722,0,
12868.3,5.97321,0.202943,2.374,11.0254,722,0,
12868.3,5.97351,0.201417,2.374,11.0254,722,0,
12868.3,5.97321,0.202943,2.374,11.0254,722,0,
12868.3,5.97778,0.199891,2.374,11.0254,722,0,
12868.3,5.979,0.199891,2.374,11.0254,722,0,
12868.3,5.979,0.201417,2.374,11.0254,722,0,
12868.3,5.98297,0.202943,2.374,11.0254,722,0,
12868.3,5.98389,0.201417,2.374,11.0254,722,0,
12868.3,5.98358,0.199891,2.374,11.0254,722,0,
12868.3,5.98846,0.198365,2.374,11.0254,722,0,
12868.3,5.98877,0.201417,2.374,11.0254,722,0,
12868.3,5.99182,0.201417,2.374,11.0254,722,0,
12868.3,5.99365,0.199891,2.374,11.0254,722,0,
12868.3,5.99335,0.201417,2.374,11.0254,722,0,
12868.3,5.99823,0.198365,2.374,11.0254,722,0,
12868.3,5.99854,0.202943,2.374,11.0254,722,0,
12868.3,5.99823,0.201417,2.374,11.0254,722,0,
12868.3,6.00372,0.198365,2.374,11.0254,722,0,
12868.4,6.00372,0.204469,2.374,11.0254,722,0,
12868.4,6.00525,0.198365,2.374,11.0254,722,0,
12868.4,6.008,0.199891,2.374,11.0254,722,0,
12868.4,6.00861,0.202943,2.374,11.0254,722,0,
12868.4,6.01379,0.201417,2.374,11.0254,722,0,
12868.4,6.01288,0.204469,2.374,11.0254,722,0,
12868.4,6.01593,0.204469,2.374,11.0254,722,0,
12868.4,6.01776,0.201417,2.374,11.0254,722,0,
12868.4,6.01807,0.202943,2.374,11.0254,722,0,
12868.4,6.02234,0.199891,2.374,11.0254,722,0,
12868.4,6.02325,0.201417,2.374,11.0254,722,0,
12868.4,6.02295,0.202943,2.374,11.0254,722,0,
12868.4,6.02692,0.201417,2.374,11.0254,722,0,
12868.4,6.02814,0.202943,2.374,11.0254,722,0,
12868.4,6.03149,0.201417,2.374,11.0254,722,0,
12868.4,6.03302,0.199891,2.374,11.0254,722,0,
12868.4,6.03333,0.201417,2.374,11.0254,722,0,
12868.4,6.03729,0.201417,2.374,11.0254,722,0,
12868.4,6.0376,0.201417,2.374,11.0254,722,0,
12868.4,6.04279,0.201417,2.374,11.0254,722,0,
12868.4,6.04279,0.198365,2.374,11.0254,722,0,
12868.4,6.04523,0.201417,2.374,11.0254,722,0,
12868.4,6.04797,0.201417,2.374,11.0254,722,0,
12868.4,6.04767,0.199891,2.374,11.0254,722,0,
12868.4,6.05255,0.201417,2.374,11.0254,722,0,
12868.4,6.05225,0.201417,2.374,11.0254,722,0,
12868.4,6.05682,0.201417,2.374,11.0254,722,0,
12868.4,6.05652,0.198365,2.374,11.0254,722,0,
12868.4,6.05774,0.202943,2.374,11.0254,722,0,
12868.4,6.06201,0.201417,2.374,11.0254,722,0,
12868.4,6.06171,0.201417,2.374,11.0254,722,0,
12868.4,6.06689,0.202943,2.374,11.0254,722,0,
12868.4,6.0672,0.199891,2.374,11.0254,722,0,
12868.4,6.06995,0.199891,2.374,11.0254,722,0,
12868.4,6.07239,0.201417,2.374,11.0254,722,0,
12868.4,6.07208,0.204469,2.374,11.0254,722,0,
12868.4,6.07605,0.201417,2.374,11.0254,722,0,
12868.4,6.07697,0.204469,2.374,11.0254,722,0,
12868.4,6.08063,0.202943,2.374,11.0254,722,0,
12868.4,6.08185,0.204469,2.374,11.0254,722,0,
12868.4,6.08643,0.202943,2.374,11.0254,722,0,
12868.4,6.08643,0.201417,2.374,11.0254,722,0,
12868.4,6.08612,0.201417,2.374,11.0254,722,0,
12868.4,6.09192,0.198365,2.374,11.0254,722,0,
12868.4,6.091,0.201417,2.374,11.0254,722,0,
12868.4,6.09589,0.199891,2.374,11.0254,722,0,
12868.4,6.09619,0.198365,2.374,11.0254,722,0,
12868.4,6.10077,0.199891,2.374,11.0254,722,0,
12868.4,6.10107,0.201417,2.374,11.0254,722,0,
12868.4,6.10382,0.199891,2.374,11.0254,722,0,
12868.5,6.10657,0.201417,2.374,11.0254,722,0,
12868.5,6.10596,0.201417,2.374,11.0254,722,0,
12868.5,6.11115,0.201417,2.374,11.0254,722,0,
12868.5,6.11115,0.201417,2.374,11.0254,722,0,
12868.5,6.11572,0.199891,2.374,11.0254,722,0,
12868.5,6.11542,0.199891,2.374,11.0254,722,0,
12868.5,6.12091,0.199891,2.374,11.0254,722,0,
12868.5,6.1203,0.198365,2.374,11.0254,722,0,
12868.5,6.12518,0.199891,2.374,11.0254,722,0,
12868.5,6.12549,0.201417,2.374,11.0254,722,0,
12868.5,6.12762,0.201417,2.374,11.0254,722,0,
12868.5,6.13007,0.199891,2.374,11.0254,722,0,
12868.5,6.13037,0.199891,2.374,11.0254,722,0,
12868.5,6.13586,0.201417,2.374,11.0254,722,0,
12868.5,6.13556,0.201417,2.374,11.0254,722,0,
12868.5,6.14014,0.202943,2.374,11.0254,722,0,
12868.5,6.14044,0.201417,2.374,11.0254,722,0,
12868.5,6.14594,0.198365,2.374,11.0254,722,0,
12868.5,6.14502,0.199891,2.374,11.0254,722,0,
12868.5,6.1496,0.202943,2.374,11.0254,722,0,
12868.5,6.15021,0.198365,2.374,11.0254,722,0,
12868.5,6.15234,0.199891,2.374,11.0254,722,0,
12868.5,6.15448,0.202943,2.374,11.0254,722,0,
12868.5,6.15723,0.201417,2.374,11.0254,722,0,
12868.5,6.15936,0.196839,2.374,11.0254,722,0,
12868.5,6.15997,0.205995,2.374,11.0254,722,0,
12868.5,6.16516,0.201417,2.374,11.0254,722,0,
12868.5,6.16547,0.199891,2.374,11.0254,722,0,
12868.5,6.16974,0.199891,2.374,11.0254,722,0,
12868.5,6.17004,0.199891,2.374,11.0254,722,0,
12868.5,6.17462,0.202943,2.374,11.0254,722,0,
12868.5,6.17432,0.202943,2.374,11.0254,722,0,
12868.5,6.17859,0.198365,2.374,11.0254,722,0,
12868.5,6.1795,0.201417,2.374,11.0254,722,0,
12868.5,6.18256,0.201417,2.374,11.0254,722,0,
12868.5,6.18469,0.201417,2.374,11.0254,722,0,
12868.5,6.18439,0.199891,2.374,11.0254,722,0,
12868.5,6.18927,0.201417,2.374,11.0254,722,0,
12868.5,6.18988,0.201417,2.374,11.0254,722,0,
12868.5,6.19446,0.202943,2.374,11.0254,722,0,
12868.5,6.19415,0.199891,2.374,11.0254,722,0,
12868.5,6.19873,0.201417,2.374,11.0254,722,0,
12868.5,6.19904,0.202943,2.374,11.0254,722,0,
12868.5,6.20422,0.204469,2.374,11.0254,722,0,
12868.5,6.20392,0.199891,2.374,11.0254,722,0,
12868.5,6.20605,0.199891,2.374,11.0254,722,0,
12868.5,6.2088,0.199891,2.374,11.0254,722,0,
12868.5,6.2088,0.201417,2.374,11.0254,722,0,
12868.5,6.21368,0.199891,2.374,11.0254,722,0,
12868.5,6.21368,0.202943,2.374,11.0254,722,0,
12868.5,6.21857,0.202943,2.374,11.0254,722,0,
12868.6,6.21887,0.199891,2.374,11.0254,722,0,
12868.6,6.22314,0.204469,2.374,11.0254,722,0,
12868.6,6.22375,0.199891,2.374,11.0254,722,0,
12868.6,6.22864,0.198365,2.374,11.0254,722,0,
12868.6,6.22864,0.198365,2.374,11.0254,722,0,
12868.6,6.23108,0.202943,2.374,11.0254,722,0,
12868.6,6.23352,0.202943,2.374,11.0254,722,0,
12868.6,6.23352,0.199891,2.374,11.0254,722,0,
12868.6,6.23779,0.202943,2.374,11.0254,722,0,
12868.6,6.2381,0.204469,2.374,11.0254,722,0,
12868.6,6.24207,0.199891,2.374,11.0254,722,0,
12868.6,6.24359,0.198365,2.374,11.0254,722,0,
12868.6,6.24542,0.199891,2.374,11.0254,722,0,
12868.6,6.24878,0.199891,2.374,11.0254,722,0,
12868.6,6.24847,0.202943,2.374,11.0254,722,0,
12868.6,6.25275,0.201417,2.374,11.0254,722,0,
12868.6,6.25244,0.199891,2.374,11.0254,722,0,
12868.6,6.25763,0.201417,2.374,11.0254,722,0,
12868.6,6.25732,0.198365,2.374,11.0254,722,0,
12868.6,6.26068,0.198365,2.374,11.0254,722,0,
12868.6,6.26221,0.199891,2.374,11.0254,722,0,
12868.6,6.26312,0.196839,2.374,11.0254,722,0,
12868.6,6.2677,0.198365,2.374,11.0254,722,0,
12868.6,6.26709,0.199891,2.374,11.0254,722,0,
12868.6,6.27228,0.199891,2.374,11.0254,722,0,
12868.6,6.27319,0.201417,2.374,11.0254,722,0,
12868.6,6.27502,0.201417,2.374,11.0254,722,0,
12868.6,6.27747,0.199891,2.374,11.0254,722,0,
12868.6,6.27777,0.201417,2.374,11.0254,722,0,
12868.6,6.28235,0.199891,2.374,11.0254,722,0,
12868.6,6.28235,0.198365,2.374,11.0254,722,0,
12868.6,6.2851,0.202943,2.374,11.0254,722,0,
12868.6,6.28693,0.201417,2.374,11.0254,722,0,
12868.6,6.28693,0.201417,2.374,11.0254,722,0,
12868.6,6.29181,0.201417,2.374,11.0254,722,0,
12868.6,6.29211,0.196839,2.374,11.0254,722,0,
12868.6,6.29639,0.199891,2.374,11.0254,722,0,
12868.6,6.29761,0.198365,2.374,11.0254,722,0,
12868.6,6.2973,0.201417,2.374,11.0254,722,0,
12868.6,6.30249,0.199891,2.374,11.0254,722,0,
12868.6,6.30188,0.201417,2.374,11.0254,722,0,
12868.6,6.30493,0.199891,2.374,11.0254,722,0,
12868.6,6.30798,0.202943,2.374,11.0254,722,0,
12868.6,6.30737,0.201417,2.374,11.0254,722,0,
12868.6,6.31195,0.201417,2.374,11.0254,722,0,
12868.6,6.31073,0.196839,2.374,11.0254,722,0,
12868.6,6.3147,0.202943,2.374,11.0254,722,0,
12868.6,6.31683,0.199891,2.374,11.0254,722,0,
12868.6,6.31653,0.199891,2.374,11.0254,722,0,
12868.6,6.32111,0.199891,2.374,11.0254,722,0,
12868.7,6.32141,0.204469,2.374,11.0254,722,0,
12868.7,6.32111,0.201417,2.374,11.0254,722,0,
12868.7,6.3266,0.195313,2.374,11.0254,722,0,
12868.7,6.32629,0.198365,2.374,11.0254,722,0,
12868.7,6.32904,0.201417,2.374,11.0254,722,0,
12868.7,6.33118,0.199891,2.374,11.0254,722,0,
12868.7,6.33179,0.202943,2.374,11.0254,722,0,
12868.7,6.33575,0.202943,2.374,11.0254,722,0,
12868.7,6.33575,0.199891,2.374,11.0254,722,0,
12868.7,6.33606,0.201417,2.374,11.0254,722,0,
12868.7,6.34155,0.201417,2.374,11.0254,722,0,
12868.7,6.34094,0.195313,2.374,11.0254,722,0,
12868.7,6.3446,0.198365,2.374,11.0254,722,0,
12868.7,6.34613,0.199891,2.374,11.0254,722,0,
12868.7,6.34644,0.202943,2.374,11.0254,722,0,
12868.7,6.3504,0.199891,2.374,11.0254,722,0,
12868.7,6.35101,0.202943,2.374,11.0254,722,0,
12868.7,6.35132,0.201417,2.374,11.0254,722,0,
12868.7,6.35498,0.196839,2.374,11.0254,722,0,
12868.7,6.3562,0.199891,2.374,11.0254,722,0,
12868.7,6.3562,0.202943,2.374,11.0254,722,0,
12868.7,6.36078,0.201417,2.374,11.0254,722,0,
12868.7,6.36108,0.198365,2.374,11.0254,722,0,
12868.7,6.36139,0.201417,2.374,11.0254,722,0,
12868.7,6.36627,0.202943,2.374,11.0254,722,0,
12868.7,6.36597,0.201417,2.374,11.0254,722,0,
12868.7,6.36536,0.199891,2.374,11.0254,722,0,
12868.7,6.37054,0.199891,2.374,11.0254,722,0,
12868.7,6.37054,0.202943,2.374,11.0254,722,0,
12868.7,6.37085,0.202943,2.374,11.0254,722,0,
12868.7,6.37482,0.202943,2.374,11.0254,722,0,
12868.7,6.37543,0.202943,2.374,11.0254,722,0,
12868.7,6.37543,0.201417,2.374,11.0254,722,0,
12868.7,6.38,0.201417,2.374,11.0254,722,0,
12868.7,6.38031,0.201417,2.374,11.0254,722,0,
12868.7,6.38062,0.199891,2.374,11.0254,722,0,
12868.7,6.38519,0.201417,2.374,11.0254,722,0,
12868.7,6.38519,0.199891,2.374,11.0254,722,0,
12868.7,6.3858,0.202943,2.374,11.0254,722,0,
12868.7,6.38977,0.199891,2.374,11.0254,722,0,
12868.7,6.39069,0.202943,2.374,11.0254,722,0,
12868.7,6.39038,0.201417,2.374,11.0254,722,0,
12868.7,6.39282,0.202943,2.374,11.0254,722,0,
12868.7,6.39526,0.202943,2.374,11.0254,722,0,
12868.7,6.39557,0.201417,2.374,11.0254,722,0,
12868.7,6.39557,0.199891,2.374,11.0254,722,0,
12868.7,6.40045,0.201417,2.374,11.0254,722,0,
12868.7,6.40015,0.201417,2.374,11.0254,722,0,
12868.7,6.40015,0.201417,2.374,11.0254,722,0,
12868.8,6.40472,0.204469,2.374,11.0254,722,0,
12868.8,6.40533,0.201417,2.374,11.0254,722,0,
12868.8,6.40533,0.202943,2.374,11.0254,722,0,
12868.8,6.40686,0.201417,2.374,11.0254,722,0,
12868.8,6.409,0.199891,2.374,11.0254,722,0,
12868.8,6.41022,0.202943,2.374,11.0254,722,0,
12868.8,6.40991,0.199891,2.374,11.0254,722,0,
12868.8,6.41388,0.201417,2.374,11.0254,722,0,
12868.8,6.41479,0.202943,2.374,11.0254,722,0,
12868.8,6.41449,0.202943,2.374,11.0254,722,0,
12868.8,6.41418,0.196839,2.374,11.0254,722,0,
12868.8,6.41968,0.198365,2.374,11.0254,722,0,
12868.8,6.41968,0.198365,2.374,11.0254,722,0,
12868.8,6.41998,0.199891,2.374,11.0254,722,0,
12868.8,6.42212,0.201417,2.374,11.0254,722,0,
12868.8,6.42456,0.199891,2.374,11.0254,722,0,
12868.8,6.42487,0.196839,2.374,11.0254,722,0,
12868.8,6.42456,0.198365,2.374,11.0254,722,0,
12868.8,6.42731,0.201417,2.374,11.0254,722,0,
12868.8,6.43005,0.199891,2.374,11.0254,722,0,
12868.8,6.42975,0.201417,2.374,11.0254,722,0,
12868.8,6.42944,0.202943,2.374,11.0254,722,0,
12868.8,6.43219,0.201417,2.374,11.0254,722,0,
12868.8,6.43494,0.199891,2.374,11.0254,722,0,
12868.8,6.43463,0.199891,2.374,11.0254,722,0,
12868.8,6.43555,0.201417,2.374,11.0254,722,0,
12868.8,6.43524,0.199891,2.374,11.0254,722,0,
12868.8,6.4389,0.202943,2.374,11.0254,722,0,
12868.8,6.43982,0.204469,2.374,11.0254,722,0,
12868.8,6.43921,0.198365,2.374,11.0254,722,0,
12868.8,6.44104,0.199891,2.374,11.0254,722,0,
12868.8,6.44379,0.199891,2.374,11.0254,722,0,
12868.8,6.4447,0.198365,2.374,11.0254,722,0,
12868.8,6.44409,0.202943,2.374,11.0254,722,0,
12868.8,6.4447,0.202943,2.374,11.0254,722,0,
12868.8,6.44409,0.199891,2.374,11.0254,722,0,
12868.8,6.44958,0.198365,2.374,11.0254,722,0,
12868.8,6.44867,0.198365,2.374,11.0254,722,0,
12868.8,6.44897,0.201417,2.374,11.0254,722,0,
12868.8,6.44867,0.205995,2.374,11.0254,722,0,
12868.8,6.44897,0.202943,2.374,11.0254,722,0,
12868.8,6.45386,0.201417,2.374,11.0254,722,0,
12868.8,6.45355,0.199891,2.374,11.0254,722,0,
12868.8,6.45325,0.199891,2.374,11.0254,722,0,
12868.8,6.45355,0.205995,2.374,11.0254,722,0,
12868.8,6.45294,0.201417,2.374,11.0254,722,0,
12868.8,6.45874,0.199891,2.374,11.0254,722,0,
12868.8,6.45935,0.201417,2.374,11.0254,722,0,
12868.8,6.45813,0.201417,2.374,11.0254,722,0,
12868.8,6.45844,0.201417,2.374,11.0254,722,0,
12868.9,6.45905,0.199891,2.374,11.0254,722,0,
12868.9,6.46118,0.202943,2.374,11.0254,722,0,
12868.9,6.46301,0.199891,2.374,11.0254,722,0,
12868.9,6.46362,0.202943,2.374,11.0254,722,0,
12868.9,6.46393,0.199891,2.374,11.0254,722,0,
12868.9,6.46332,0.202943,2.374,11.0254,722,0,
12868.9,6.46362,0.199891,2.374,11.0254,722,0,
12868.9,6.46606,0.201417,2.374,11.0254,722,0,
12868.9,6.46851,0.198365,2.374,11.0254,722,0,
12868.9,6.4682,0.201417,2.374,11.0254,722,0,
12868.9,6.46881,0.199891,2.374,11.0254,722,0,
12868.9,6.46851,0.196839,2.374,11.0254,722,0,
12868.9,6.4679,0.199891,2.374,11.0254,722,0,
12868.9,6.46851,0.202943,2.374,11.0254,722,0,
12868.9,6.47278,0.196839,2.374,11.0254,722,0,
12868.9,6.47339,0.201417,2.374,11.0254,722,0,
12868.9,6.47278,0.199891,2.374,11.0254,722,0,
12868.9,6.47339,0.198365,2.374,11.0254,722,0,
12868.9,6.47278,0.202943,2.374,11.0254,722,0,
12868.9,6.47339,0.201417,2.374,11.0254,722,0,
12868.9,6.47339,0.198365,2.374,11.0254,722,0,
12868.9,6.47339,0.199891,2.374,11.0254,722,0,
12868.9,6.47827,0.201417,2.374,11.0254,722,0,
12868.9,6.47827,0.201417,2.374,11.0254,722,0,
12868.9,6.47827,0.199891,2.374,11.0254,722,0,
12868.9,6.47858,0.201417,2.374,11.0254,722,0,
12868.9,6.47797,0.201417,2.374,11.0254,722,0,
12868.9,6.47797,0.202943,2.374,11.0254,722,0,
12868.9,6.47827,0.199891,2.374,11.0254,722,0,
12868.9,6.47888,0.204469,2.374,11.0254,722,0,
12868.9,6.48224,0.199891,2.374,11.0254,722,0,
12868.9,6.48346,0.198365,2.374,11.0254,722,0,
12868.9,6.48346,0.199891,2.374,11.0254,722,0,
12868.9,6.48285,0.201417,2.374,11.0254,722,0,
12868.9,6.48224,0.199891,2.374,11.0254,722,0,
12868.9,6.48315,0.199891,2.374,11.0254,722,0,
12868.9,6.48315,0.196839,2.374,11.0254,722,0,
12868.9,6.48285,0.201417,2.374,11.0254,722,0,
12868.9,6.48346,0.199891,2.374,11.0254,722,0,
12868.9,6.48346,0.201417,2.374,11.0254,722,0,
12868.9,6.48804,0.198365,2.374,11.0254,722,0,
12868.9,6.48804,0.198365,2.374,11.0254,722,0,
12868.9,6.48865,0.201417,2.374,11.0254,722,0,
12868.9,6.48834,0.198365,2.374,11.0254,722,0,
12868.9,6.48773,0.199891,2.374,11.0254,722,0,
12868.9,6.48834,0.199891,2.374,11.0254,722,0,
12868.9,6.48834,0.198365,2.374,11.0254,722,0,
12868.9,6.48865,0.202943,2.374,11.0254,722,0,
12868.9,6.48895,0.199891,2.374,11.0254,722,0,
12868.9,6.48895,0.199891,2.374,11.0254,722,0,
12869,6.48834,0.199891,2.374,11.0254,722,0,
12869,6.48743,0.198365,2.374,11.0254,722,0,
12869,6.48773,0.199891,2.374,11.0254,722,0,
12869,6.49292,0.202943,2.374,11.0254,722,0,
12869,6.49384,0.201417,2.374,11.0254,722,0,
12869,6.49353,0.202943,2.374,11.0254,722,0,
12869,6.49292,0.199891,2.374,11.0254,722,0,
12869,6.49292,0.198365,2.374,11.0254,722,0,
12869,6.49292,0.199891,2.374,11.0254,722,0,
12869,6.49323,0.202943,2.374,11.0254,722,0,
12869,6.49292,0.202943,2.374,11.0254,722,0,
