5700-SECPT.acq
2 msec/sample
6 channels
RSP, X, RSPEC-R
Volts
EDA, Y, PPGED-R
microsiemens
ECG R-R
Seconds
Respiration Rate
BPM
C7 - EDR
Peaks
C14 - Control
Volts
min,CH1,CH14,CH40,CH42,CH47,CH54,
,90222,90222,90222,90222,90222,90222,
202.846,4.62677,2.19269,0.398,3.91441,426,5,
202.846,4.62708,2.19421,0.398,3.91441,426,5,
202.846,4.62646,2.19727,0.398,3.91441,426,5,
202.846,4.62677,2.19269,0.398,3.91441,426,5,
202.846,4.62646,2.19421,0.398,3.91441,426,5,
202.846,4.62616,2.19421,0.398,3.91441,426,5,
202.847,4.62677,2.19574,0.398,3.91441,426,5,
202.847,4.62616,2.19116,0.398,3.91441,426,5,
202.847,4.6225,2.19269,0.398,3.91441,426,5,
202.847,4.62128,2.19269,0.398,3.91441,426,5,
202.847,4.62189,2.19574,0.398,3.91441,426,5,
202.847,4.62036,2.19574,0.398,3.91441,426,5,
202.847,4.62158,2.19116,0.398,3.91441,426,5,
202.847,4.62097,2.19269,0.398,3.91441,426,5,
202.847,4.62219,2.19116,0.398,3.91441,426,5,
202.847,4.62189,2.19269,0.398,3.91441,426,5,
202.847,4.62189,2.19574,0.398,3.91441,426,5,
202.847,4.61884,2.19574,0.398,3.91441,426,5,
202.847,4.61609,2.19421,0.398,3.91441,426,5,
202.847,4.61761,2.19421,0.398,3.91441,426,5,
202.847,4.6167,2.19421,0.398,3.91441,426,5,
202.847,4.617,2.19574,0.398,3.91441,426,5,
202.847,4.61609,2.19116,0.398,3.91441,426,5,
202.847,4.6167,2.19421,0.398,3.91441,426,5,
202.847,4.617,2.19421,0.398,3.91441,426,5,
202.847,4.61639,2.19574,0.398,3.91441,426,5,
202.847,4.6167,2.19727,0.398,3.91441,426,5,
202.847,4.61243,2.19574,0.398,3.91441,426,5,
202.847,4.61151,2.19116,0.398,3.91441,426,5,
202.847,4.61243,2.19421,0.398,3.91441,426,5,
202.847,4.61182,2.18964,0.398,3.91441,426,5,
202.847,4.61182,2.19421,0.398,3.91441,426,5,
202.847,4.61212,2.19116,0.398,3.91441,426,5,
202.847,4.61182,2.19421,0.398,3.91441,426,5,
202.847,4.61212,2.19421,0.398,3.91441,426,5,
202.847,4.61151,2.19421,0.398,3.91441,426,5,
202.848,4.60876,2.19421,0.398,3.91441,426,5,
202.848,4.60663,2.19269,0.398,3.91441,426,5,
202.848,4.60663,2.19269,0.398,3.91441,426,5,
202.848,4.60693,2.19421,0.398,3.91441,426,5,
202.848,4.60693,2.19574,0.398,3.91441,426,5,
202.848,4.60663,2.19421,0.398,3.91441,426,5,
202.848,4.60663,2.19421,0.398,3.91441,426,5,
202.848,4.60693,2.19421,0.398,3.91441,426,5,
202.848,4.60632,2.19116,0.398,3.91441,426,5,
202.848,4.60724,2.19574,0.398,3.91441,426,5,
202.848,4.60205,2.19421,0.398,3.91441,426,5,
202.848,4.60144,2.19421,0.398,3.91441,426,5,
202.848,4.60205,2.19574,0.398,3.91441,426,5,
202.848,4.60205,2.19421,0.398,3.91441,426,5,
202.848,4.60266,2.19421,0.398,3.91441,426,5,
202.848,4.60236,2.19574,0.398,3.91441,426,5,
202.848,4.60205,2.19421,0.398,3.91441,426,5,
202.848,4.60175,2.19421,0.398,3.91441,426,5,
202.848,4.60144,2.19421,0.398,3.91441,426,5,
202.848,4.59717,2.19574,0.398,3.91441,426,5,
202.848,4.59717,2.19421,0.398,3.91441,426,5,
202.848,4.59717,2.19116,0.398,3.91441,426,5,
202.848,4.59778,2.19421,0.398,3.91441,426,5,
202.848,4.59747,2.19269,0.398,3.91441,426,5,
202.848,4.59686,2.19574,0.398,3.91441,426,5,
202.848,4.59625,2.19574,0.398,3.91441,426,5,
202.848,4.59686,2.19574,0.398,3.91441,426,5,
202.848,4.59717,2.19269,0.398,3.91441,426,5,
202.848,4.59259,2.19421,0.398,3.91441,426,5,
202.849,4.59198,2.19574,0.398,3.91441,426,5,
202.849,4.59259,2.19421,0.398,3.91441,426,5,
202.849,4.59259,2.19116,0.398,3.91441,426,5,
202.849,4.59167,2.19421,0.398,3.91441,426,5,
202.849,4.59198,2.19116,0.398,3.91441,426,5,
202.849,4.5929,2.19574,0.398,3.91441,426,5,
202.849,4.59259,2.19727,0.398,3.91441,426,5,
202.849,4.58923,2.19421,0.398,3.91441,426,5,
202.849,4.5871,2.19421,0.398,3.91441,426,5,
202.849,4.58771,2.19727,0.398,3.91441,426,5,
202.849,4.58801,2.19727,0.398,3.91441,426,5,
202.849,4.5874,2.19116,0.398,3.91441,426,5,
202.849,4.58771,2.19574,0.398,3.91441,426,5,
202.849,4.58649,2.19421,0.398,3.91441,426,5,
202.849,4.5874,2.19421,0.398,3.91441,426,5,
202.849,4.5874,2.19421,0.398,3.91441,426,5,
202.849,4.58313,2.19421,0.398,3.91441,426,5,
202.849,4.58282,2.19116,0.398,3.91441,426,5,
202.849,4.58252,2.19421,0.398,3.91441,426,5,
202.849,4.58252,2.19727,0.398,3.91441,426,5,
202.849,4.58282,2.19574,0.398,3.91441,426,5,
202.849,4.58252,2.19421,0.398,3.91441,426,5,
202.849,4.58282,2.19574,0.398,3.91441,426,5,
202.849,4.57916,2.19116,0.398,3.91441,426,5,
202.849,4.57764,2.19269,0.398,3.91441,426,5,
202.849,4.57764,2.19421,0.398,3.91441,426,5,
202.849,4.57733,2.19269,0.398,3.91441,426,5,
202.849,4.57764,2.19421,0.398,3.91441,426,5,
202.849,4.57794,2.19574,0.398,3.91441,426,5,
202.849,4.57794,2.19421,0.398,3.91441,426,5,
202.85,4.57733,2.19421,0.398,3.91441,426,5,
202.85,4.57367,2.19269,0.398,3.91441,426,5,
202.85,4.57214,2.19269,0.398,3.91441,426,5,
202.85,4.57245,2.19421,0.398,3.91441,426,5,
202.85,4.57245,2.19269,0.398,3.91441,426,5,
202.85,4.57214,2.19574,0.398,3.91441,426,5,
202.85,4.57214,2.19116,0.398,3.91441,426,5,
202.85,4.57275,2.19116,0.398,3.91441,426,5,
202.85,4.57184,2.19574,0.398,3.91441,426,5,
202.85,4.56818,2.19269,0.398,3.91441,426,5,
202.85,4.56757,2.19269,0.398,3.91441,426,5,
202.85,4.56726,2.19574,0.398,3.91441,426,5,
202.85,4.56818,2.19269,0.398,3.91441,426,5,
202.85,4.56787,2.19421,0.398,3.91441,426,5,
202.85,4.56787,2.19421,0.398,3.91441,426,5,
202.85,4.56787,2.19269,0.398,3.91441,426,5,
202.85,4.56787,2.19269,0.398,3.91441,426,5,
202.85,4.56268,2.19574,0.398,3.91441,426,5,
202.85,4.56207,2.19269,0.398,3.91441,426,5,
202.85,4.56329,2.19269,0.398,3.91441,426,5,
202.85,4.56268,2.19269,0.398,3.91441,426,5,
202.85,4.56329,2.19574,0.398,3.91441,426,5,
202.85,4.56299,2.19421,0.398,3.91441,426,5,
202.85,4.56299,2.19421,0.398,3.91441,426,5,
202.85,4.56299,2.19421,0.398,3.91441,426,5,
202.85,4.55841,2.19574,0.398,3.91441,426,5,
202.85,4.55841,2.19574,0.398,3.91441,426,5,
202.85,4.55872,2.19116,0.398,3.91441,426,5,
202.85,4.55841,2.19574,0.398,3.91441,426,5,
202.85,4.55811,2.19421,0.398,3.91441,426,5,
202.851,4.5575,2.19269,0.398,3.91441,426,5,
202.851,4.5578,2.19421,0.398,3.91441,426,5,
202.851,4.55566,2.19269,0.398,3.91441,426,5,
202.851,4.55322,2.19269,0.398,3.91441,426,5,
202.851,4.55322,2.19269,0.398,3.91441,426,5,
202.851,4.55353,2.19421,0.398,3.91441,426,5,
202.851,4.55322,2.19574,0.398,3.91441,426,5,
202.851,4.55353,2.19421,0.398,3.91441,426,5,
202.851,4.55353,2.19421,0.398,3.91441,426,5,
202.851,4.55353,2.19574,0.398,3.91441,426,5,
202.851,4.54865,2.19269,0.398,3.91441,426,5,
202.851,4.54803,2.19574,0.398,3.91441,426,5,
202.851,4.54773,2.19421,0.398,3.91441,426,5,
202.851,4.54803,2.19574,0.398,3.91441,426,5,
202.851,4.54803,2.19421,0.398,3.91441,426,5,
202.851,4.54834,2.19269,0.398,3.91441,426,5,
202.851,4.54803,2.19269,0.398,3.91441,426,5,
202.851,4.54468,2.19727,0.398,3.91441,426,5,
202.851,4.54285,2.19574,0.398,3.91441,426,5,
202.851,4.54315,2.19421,0.398,3.91441,426,5,
202.851,4.54376,2.19574,0.398,3.91441,426,5,
202.851,4.54285,2.19269,0.398,3.91441,426,5,
202.851,4.54346,2.19421,0.398,3.91441,426,5,
202.851,4.54315,2.19574,0.398,3.91441,426,5,
202.851,4.54315,2.18964,0.398,3.91441,426,5,
202.851,4.53796,2.18964,0.398,3.91441,426,5,
202.851,4.53857,2.19269,0.398,3.91441,426,5,
202.851,4.53857,2.19269,0.398,3.91441,426,5,
202.851,4.53827,2.19421,0.398,3.91441,426,5,
202.851,4.53888,2.19574,0.398,3.91441,426,5,
202.851,4.53857,2.19574,0.398,3.91441,426,5,
202.852,4.53827,2.19269,0.398,3.91441,426,5,
202.852,4.53369,2.19574,0.398,3.91441,426,5,
202.852,4.53339,2.19269,0.398,3.91441,426,5,
202.852,4.534,2.19727,0.398,3.91441,426,5,
202.852,4.53369,2.19269,0.398,3.91441,426,5,
202.852,4.53339,2.19421,0.398,3.91441,426,5,
202.852,4.53308,2.19421,0.398,3.91441,426,5,
202.852,4.53339,2.19269,0.398,3.91441,426,5,
202.852,4.52881,2.19421,0.398,3.91441,426,5,
202.852,4.5285,2.19574,0.398,3.91441,426,5,
202.852,4.5285,2.19421,0.398,3.91441,426,5,
202.852,4.52881,2.19727,0.398,3.91441,426,5,
202.852,4.52881,2.19269,0.398,3.91441,426,5,
202.852,4.5285,2.18964,0.398,3.91441,426,5,
202.852,4.52545,2.19727,0.398,3.91441,426,5,
202.852,4.52332,2.19269,0.398,3.91441,426,5,
202.852,4.52393,2.19269,0.398,3.91441,426,5,
202.852,4.52423,2.19574,0.398,3.91441,426,5,
202.852,4.52301,2.19574,0.398,3.91441,426,5,
202.852,4.52393,2.19879,0.398,3.91441,426,5,
202.852,4.52332,2.19269,0.398,3.91441,426,5,
202.852,4.51965,2.19421,0.398,3.91441,426,5,
202.852,4.51874,2.19574,0.398,3.91441,426,5,
202.852,4.51904,2.19574,0.398,3.91441,426,5,
202.852,4.51813,2.19421,0.398,3.91441,426,5,
202.852,4.51843,2.19879,0.398,3.91441,426,5,
202.852,4.51874,2.19116,0.398,3.91441,426,5,
202.852,4.5163,2.19269,0.398,3.91441,426,5,
202.852,4.51355,2.19269,0.398,3.91441,426,5,
202.852,4.51385,2.19269,0.398,3.91441,426,5,
202.853,4.51416,2.19574,0.398,3.91441,426,5,
202.853,4.51385,2.19421,0.398,3.91441,426,5,
202.853,4.51416,2.19116,0.398,3.91441,426,5,
202.853,4.5108,2.19727,0.398,3.91441,426,5,
202.853,4.50897,2.19269,0.398,3.91441,426,5,
202.853,4.50989,2.19574,0.398,3.91441,426,5,
202.853,4.50867,2.19116,0.398,3.91441,426,5,
202.853,4.50867,2.19269,0.398,3.91441,426,5,
202.853,4.50897,2.19879,0.398,3.91441,426,5,
202.853,4.50409,2.19116,0.398,3.91441,426,5,
202.853,4.50409,2.19421,0.398,3.91441,426,5,
202.853,4.5047,2.19421,0.398,3.91441,426,5,
202.853,4.5047,2.19574,0.398,3.91441,426,5,
202.853,4.50439,2.19421,0.398,3.91441,426,5,
202.853,4.49982,2.19574,0.398,19.9734,426,5,
202.853,4.49921,2.19421,0.398,19.9734,426,5,
202.853,4.49951,2.19574,0.398,19.9734,426,5,
202.853,4.49921,2.19269,0.398,19.9734,426,5,
202.853,4.4986,2.19574,0.398,19.9734,426,5,
202.853,4.49585,2.19727,0.398,19.9734,426,5,
202.853,4.49493,2.19421,0.398,19.9734,426,5,
202.853,4.49432,2.19269,0.398,19.9734,426,5,
202.853,4.49371,2.19421,0.398,19.9734,426,5,
202.853,4.49463,2.19269,0.398,19.9734,426,5,
202.853,4.49188,2.19116,0.398,19.9734,426,5,
202.853,4.48944,2.19269,0.398,19.9734,426,5,
202.853,4.48914,2.19421,0.398,19.9734,426,5,
202.853,4.48944,2.19421,0.398,19.9734,426,5,
202.853,4.48944,2.19421,0.398,19.9734,426,5,
202.853,4.48517,2.19574,0.398,19.9734,426,5,
202.854,4.48456,2.19269,0.398,19.9734,426,5,
202.854,4.48456,2.19421,0.398,19.9734,426,5,
202.854,4.48486,2.19421,0.398,19.9734,426,5,
202.854,4.48486,2.19116,0.398,19.9734,426,5,
202.854,4.48029,2.19879,0.398,19.9734,426,5,
202.854,4.47937,2.19421,0.398,19.9734,426,5,
202.854,4.47968,2.19269,0.398,19.9734,426,5,
202.854,4.47968,2.19727,0.398,19.9734,426,5,
202.854,4.47723,2.19269,0.398,19.9734,426,5,
202.854,4.47479,2.19574,0.398,19.9734,426,5,
202.854,4.47479,2.19421,0.398,19.9734,426,5,
202.854,4.4751,2.19421,0.398,19.9734,426,5,
202.854,4.47449,2.19727,0.398,19.9734,426,5,
202.854,4.47021,2.19421,0.398,19.9734,426,5,
202.854,4.47021,2.19421,0.398,19.9734,426,5,
202.854,4.46991,2.19574,0.398,19.9734,426,5,
202.854,4.4696,2.19116,0.398,19.9734,426,5,
202.854,4.47021,2.19421,0.398,19.9734,426,5,
202.854,4.46503,2.19574,0.398,19.9734,426,5,
202.854,4.46442,2.19269,0.398,19.9734,426,5,
202.854,4.46533,2.19727,0.398,19.9734,426,5,
202.854,4.46472,2.19574,0.398,19.9734,426,5,
202.854,4.45953,2.19421,0.398,19.9734,426,5,
202.854,4.46014,2.19269,0.398,19.9734,426,5,
202.854,4.45892,2.19421,0.398,19.9734,426,5,
202.854,4.46014,2.19574,0.398,19.9734,426,5,
202.854,4.46045,2.19574,0.398,19.9734,426,5,
202.854,4.45496,2.19574,0.398,19.9734,426,5,
202.854,4.45465,2.19574,0.398,19.9734,426,5,
202.855,4.45496,2.19421,0.398,19.9734,426,5,
202.855,4.45465,2.19269,0.398,19.9734,426,5,
202.855,4.45221,2.19727,0.398,19.9734,426,5,
202.855,4.45038,2.19421,0.398,19.9734,426,5,
202.855,4.45038,2.19421,0.398,19.9734,426,5,
202.855,4.45068,2.19574,0.398,19.9734,426,5,
202.855,4.44977,2.19269,0.398,19.9734,426,5,
202.855,4.44519,2.19574,0.398,19.9734,426,5,
202.855,4.44519,2.19574,0.398,19.9734,426,5,
202.855,4.4455,2.19116,0.398,19.9734,426,5,
202.855,4.4455,2.19421,0.398,19.9734,426,5,
202.855,4.44183,2.19879,0.398,19.9734,426,5,
202.855,4.44031,2.19269,0.398,19.9734,426,5,
202.855,4.44031,2.19879,0.398,19.9734,426,5,
202.855,4.44061,2.19116,0.398,19.9734,426,5,
202.855,4.44061,2.19574,0.398,19.9734,426,5,
202.855,4.43604,2.19421,0.398,19.9734,426,5,
202.855,4.43542,2.19269,0.398,19.9734,426,5,
202.855,4.43542,2.19116,0.398,19.9734,426,5,
202.855,4.43542,2.19269,0.398,19.9734,426,5,
202.855,4.43115,2.19421,0.398,19.9734,426,5,
202.855,4.43115,2.19116,0.398,19.9734,426,5,
202.855,4.43085,2.19269,0.398,19.9734,426,5,
202.855,4.43085,2.18964,0.398,19.9734,426,5,
202.855,4.42749,2.19421,0.398,19.9734,426,5,
202.855,4.42596,2.19574,0.398,19.9734,426,5,
202.855,4.42657,2.19269,0.398,19.9734,426,5,
202.855,4.42657,2.19116,0.398,19.9734,426,5,
202.855,4.42596,2.19269,0.398,19.9734,426,5,
202.855,4.42139,2.18964,0.398,19.9734,426,5,
202.856,4.42108,2.19421,0.398,19.9734,426,5,
202.856,4.42169,2.19421,0.398,19.9734,426,5,
202.856,4.42139,2.19269,0.398,19.9734,426,5,
202.856,4.41681,2.19421,0.398,19.9734,426,5,
202.856,4.4165,2.19421,0.398,19.9734,426,5,
202.856,4.4162,2.19574,0.398,19.9734,426,5,
202.856,4.41589,2.19269,0.398,19.9734,426,5,
202.856,4.41101,2.19421,0.398,19.9734,426,5,
202.856,4.41071,2.19421,0.398,19.9734,426,5,
202.856,4.41132,2.19574,0.398,19.9734,426,5,
202.856,4.40765,2.19269,0.398,19.9734,426,5,
202.856,4.40613,2.19269,0.398,19.9734,426,5,
202.856,4.40643,2.19421,0.398,19.9734,426,5,
202.856,4.40552,2.19421,0.398,19.9734,426,5,
202.856,4.40155,2.19269,0.398,19.9734,426,5,
202.856,4.40094,2.19727,0.398,19.9734,426,5,
202.856,4.40125,2.18964,0.398,19.9734,426,5,
202.856,4.40063,2.19421,0.398,19.9734,426,5,
202.856,4.39667,2.19269,0.398,19.9734,426,5,
202.856,4.39606,2.19574,0.398,19.9734,426,5,
202.856,4.39606,2.19421,0.398,19.9734,426,5,
202.856,4.39362,2.19269,0.398,19.9734,426,5,
202.856,4.39087,2.19421,0.398,19.9734,426,5,
202.856,4.39148,2.19421,0.398,19.9734,426,5,
202.856,4.39148,2.19269,0.398,19.9734,426,5,
202.856,4.3866,2.19421,0.398,19.9734,426,5,
202.856,4.3866,2.19421,0.398,19.9734,426,5,
202.856,4.3866,2.19269,0.398,19.9734,426,5,
202.856,4.38202,2.19421,0.398,19.9734,426,5,
202.856,4.3811,2.19269,0.398,19.9734,426,5,
202.857,4.3811,2.19269,0.398,19.9734,426,5,
202.857,4.37866,2.19574,0.398,19.9734,426,5,
202.857,4.37714,2.19269,0.398,19.9734,426,5,
202.857,4.37592,2.19574,0.398,19.9734,426,5,
202.857,4.37653,2.19269,0.398,19.9734,426,5,
202.857,4.37134,2.19727,0.398,19.9734,426,5,
202.857,4.37195,2.19574,0.398,19.9734,426,5,
202.857,4.37164,2.19421,0.398,19.9734,426,5,
202.857,4.36676,2.19574,0.398,19.9734,426,5,
202.857,4.36646,2.19116,0.398,19.9734,426,5,
202.857,4.36676,2.19727,0.398,19.9734,426,5,
202.857,4.36188,2.19116,0.398,19.9734,426,5,
202.857,4.36157,2.19421,0.398,19.9734,426,5,
202.857,4.36157,2.19574,0.398,19.9734,426,5,
202.857,4.35699,2.19574,0.398,19.9734,426,5,
202.857,4.35699,2.19421,0.398,19.9734,426,5,
202.857,4.35669,2.19421,0.398,19.9734,426,5,
202.857,4.35181,2.19421,0.398,19.9734,426,5,
202.857,4.35272,2.19421,0.398,19.9734,426,5,
202.857,4.3515,2.19727,0.398,19.9734,426,5,
202.857,4.34753,2.19421,0.398,19.9734,426,5,
202.857,4.34723,2.19574,0.398,19.9734,426,5,
202.857,4.34448,2.19269,0.398,19.9734,426,5,
202.857,4.34265,2.19574,0.398,19.9734,426,5,
202.857,4.34204,2.19269,0.398,19.9734,426,5,
202.857,4.33899,2.19574,0.398,19.9734,426,5,
202.857,4.33746,2.19421,0.398,19.9734,426,5,
202.857,4.33655,2.19421,0.398,19.9734,426,5,
202.857,4.33319,2.19421,0.398,19.9734,426,5,
202.857,4.33197,2.19269,0.398,19.9734,426,5,
202.857,4.33289,2.19269,0.398,19.9734,426,5,
202.858,4.328,2.19269,0.398,19.9734,426,5,
202.858,4.328,2.19116,0.398,19.9734,426,5,
202.858,4.32434,2.19574,0.398,19.9734,426,5,
202.858,4.32281,2.19421,0,19.9734,426,5,
202.858,4.32251,2.19116,0,19.9734,426,5,
202.858,4.31854,2.19269,0,19.9734,426,5,
202.858,4.31732,2.19269,0,19.9734,426,5,
202.858,4.31763,2.19421,0,19.9734,426,5,
202.858,4.31305,2.19574,0,19.9734,426,5,
202.858,4.31366,2.19421,0,19.9734,426,5,
202.858,4.30969,2.19574,0,19.9734,426,5,
202.858,4.30786,2.19421,0,19.9734,426,5,
202.858,4.30847,2.19421,0,19.9734,426,5,
202.858,4.30267,2.19727,0,19.9734,426,5,
202.858,4.30359,2.19421,0,19.9734,426,5,
202.858,4.30023,2.19421,0,19.9734,426,5,
202.858,4.2984,2.19421,0,19.9734,426,5,
202.858,4.2981,2.19421,0,19.9734,426,5,
202.858,4.29352,2.19421,0,19.9734,426,5,
202.858,4.29382,2.19727,0,19.9734,426,5,
202.858,4.29077,2.19269,0,19.9734,426,5,
202.858,4.28955,2.19116,0,19.9734,426,5,
202.858,4.28772,2.19574,0,19.9734,426,5,
202.858,4.28345,2.19269,0,19.9734,426,5,
202.858,4.28345,2.19116,0,19.9734,426,5,
202.858,4.28009,2.19574,0,19.9734,426,5,
202.858,4.27856,2.19269,0,19.9734,426,5,
202.858,4.27856,2.19421,0,19.9734,426,5,
202.858,4.27399,2.19574,0,19.9734,426,5,
202.858,4.27399,2.19421,0,19.9734,426,5,
202.859,4.27032,2.19727,0,19.9734,426,5,
202.859,4.2688,2.19116,0,19.9734,426,5,
202.859,4.2691,2.19269,0,19.9734,426,5,
202.859,4.26453,2.19879,0,19.9734,426,5,
202.859,4.26392,2.19116,0,19.9734,426,5,
202.859,4.25964,2.19421,0,19.9734,426,5,
202.859,4.25903,2.19116,0,19.9734,426,5,
202.859,4.25842,2.19421,0,19.9734,426,5,
202.859,4.25415,2.19421,0,19.9734,426,5,
202.859,4.25507,2.19574,0,19.9734,426,5,
202.859,4.24957,2.19421,0,19.9734,426,5,
202.859,4.24927,2.19269,0,19.9734,426,5,
202.859,4.24957,2.19116,0,19.9734,426,5,
202.859,4.24408,2.19574,0,19.9734,426,5,
202.859,4.24469,2.19269,0,19.9734,426,5,
202.859,4.2392,2.19421,0,19.9734,426,5,
202.859,4.24011,2.19269,0,19.9734,426,5,
202.859,4.23584,2.19574,0,19.9734,426,5,
202.859,4.23431,2.19421,0,19.9734,426,5,
202.859,4.23462,2.19727,0,19.9734,426,5,
202.859,4.22943,2.19574,0,19.9734,426,5,
202.859,4.23004,2.19421,0,19.9734,426,5,
202.859,4.22638,2.19574,0,19.9734,426,5,
202.859,4.22485,2.19269,0,19.9734,426,5,
202.859,4.22424,2.19574,0,19.9734,426,5,
202.859,4.21967,2.19116,0,19.9734,426,5,
202.859,4.21906,2.19269,0,19.9734,426,5,
202.859,4.216,2.19116,0,19.9734,426,5,
202.859,4.21539,2.19421,0,19.9734,426,5,
202.859,4.21234,2.19421,0,19.9734,426,5,
202.86,4.21021,2.19421,0,19.9734,426,5,
202.86,4.2099,2.19269,0,19.9734,426,5,
202.86,4.20502,2.19116,0,19.9734,426,5,
202.86,4.2041,2.19574,0,19.9734,426,5,
202.86,4.20105,2.19269,0,19.9734,426,5,
202.86,4.20013,2.19574,0,19.9734,426,5,
202.86,4.19708,2.19421,0,19.9734,426,5,
202.86,4.19495,2.19116,0,19.9734,426,5,
202.86,4.19556,2.19421,0,19.9734,426,5,
202.86,4.19067,2.19574,0,19.9734,426,5,
202.86,4.19006,2.19421,0,19.9734,426,5,
202.86,4.18579,2.19421,0,19.9734,426,5,
202.86,4.18579,2.19269,0,19.9734,426,5,
202.86,4.18243,2.18201,0,19.9734,426,5,
202.86,4.1806,2.18353,0,19.9734,426,5,
202.86,4.17999,2.18506,0,19.9734,426,5,
202.86,4.17572,2.18201,0,19.9734,426,5,
202.86,4.17542,2.18353,0,19.9734,426,5,
202.86,4.17053,2.18048,0,19.9734,426,5,
202.86,4.17023,2.18353,0,19.9734,426,5,
202.86,4.16534,2.18353,0,19.9734,426,5,
202.86,4.16534,2.18353,0,19.9734,426,5,
202.86,4.1626,2.17896,0,19.9734,426,5,
202.86,4.16107,2.18353,0,19.9734,426,5,
202.86,4.15771,2.18201,0,19.9734,426,5,
202.86,4.15619,2.18048,0,19.9734,426,5,
202.86,4.15558,2.17896,0,19.9734,426,5,
202.86,4.1507,2.18048,0,19.9734,426,5,
202.86,4.15131,2.18048,0,19.9734,426,5,
202.861,4.14642,2.18201,0,19.9734,426,5,
202.861,4.14612,2.18506,0,19.9734,426,5,
202.861,4.14093,2.18201,0,19.9734,426,5,
202.861,4.14154,2.18353,0,19.9734,426,5,
202.861,4.13818,2.18201,0,19.9734,426,5,
202.861,4.13605,2.18506,0,19.9734,426,5,
202.861,4.13635,2.18506,0,19.9734,426,5,
202.861,4.13177,2.17896,0,19.9734,426,5,
202.861,4.13147,2.18201,0,19.9734,426,5,
202.861,4.12567,2.18353,0,19.9734,426,5,
202.861,4.1272,2.18048,0,19.9734,426,5,
202.861,4.12231,2.18506,0,19.9734,426,5,
202.861,4.1217,2.18201,0,19.9734,426,5,
202.861,4.11804,2.18048,0,19.9734,426,5,
202.861,4.11682,2.17896,0,19.9734,426,5,
202.861,4.11407,2.18659,0,19.9734,426,5,
202.861,4.11133,2.18506,0,19.9734,426,5,
202.861,4.1098,2.18048,0,19.9734,426,5,
202.861,4.10675,2.18353,0,19.9734,426,5,
202.861,4.10645,2.18201,0,19.9734,426,5,
202.861,4.10278,2.18506,0,19.9734,426,5,
202.861,4.10217,2.18353,0,19.9734,426,5,
202.861,4.09637,2.18506,0,19.9734,426,5,
202.861,4.09698,2.17896,0,19.9734,426,5,
202.861,4.0921,2.18201,0,19.9734,426,5,
202.861,4.0921,2.18048,0,19.9734,426,5,
202.861,4.08813,2.18048,0,19.9734,426,5,
202.861,4.08813,2.18048,0,19.9734,426,5,
202.861,4.08478,2.18201,0,19.9734,426,5,
202.861,4.08295,2.17896,0,19.9734,426,5,
202.862,4.07928,2.18201,0,19.9734,426,5,
202.862,4.07837,2.18659,0,19.9734,426,5,
202.862,4.07806,2.17896,0,19.9734,426,5,
202.862,4.07288,2.18201,0,19.9734,426,5,
202.862,4.07288,2.18201,0,19.9734,426,5,
202.862,4.06799,2.18506,0,19.9734,426,5,
202.862,4.06708,2.18201,0,19.9734,426,5,
202.862,4.06372,2.18659,0,19.9734,426,5,
202.862,4.06281,2.18048,0,19.9734,426,5,
202.862,4.05853,2.18201,0,19.9734,426,5,
202.862,4.05823,2.18353,0,19.9734,426,5,
202.862,4.05518,2.18201,0,19.9734,426,5,
202.862,4.05334,2.18048,0,19.9734,426,5,
202.862,4.05334,2.17896,0,19.9734,426,5,
202.862,4.04846,2.18506,0,19.9734,426,5,
202.862,4.04846,2.17896,0,19.9734,426,5,
202.862,4.04327,2.18353,0,19.9734,426,5,
202.862,4.04327,2.17743,0,19.9734,426,5,
202.862,4.0387,2.17743,0,19.9734,426,5,
202.862,4.03839,2.18048,0,19.9734,426,5,
202.862,4.03564,2.18201,0,19.9734,426,5,
202.862,4.0332,2.17896,0,19.9734,426,5,
202.862,4.0332,2.18506,0,19.9734,426,5,
202.862,4.02924,2.17743,0,19.9734,426,5,
202.862,4.02924,2.18201,0,19.9734,426,5,
202.862,4.02435,2.1759,0,19.9734,426,5,
202.862,4.02344,2.18048,0,19.9734,426,5,
202.862,4.01947,2.18201,0,19.9734,426,5,
202.862,4.01947,2.17896,0,19.9734,426,5,
202.862,4.01611,2.17896,0,19.9734,426,5,
202.863,4.01459,2.18353,0,19.9734,426,5,
202.863,4.01428,2.17896,0,19.9734,426,5,
202.863,4.00909,2.18201,0,19.9734,426,5,
202.863,4.0094,2.18048,0,19.9734,426,5,
202.863,4.00452,2.18201,0,19.9734,426,5,
202.863,4.00421,2.17896,0,19.9734,426,5,
202.863,4.00085,2.18201,0,19.9734,426,5,
202.863,3.99963,2.18201,0,19.9734,426,5,
202.863,3.99902,2.18353,0,19.9734,426,5,
202.863,3.99475,2.18353,0,19.9734,426,5,
202.863,3.99475,2.18201,0,19.9734,426,5,
202.863,3.98987,2.18048,0,19.9734,426,5,
202.863,3.98956,2.18506,0,19.9734,426,5,
202.863,3.98682,2.18048,0,19.9734,426,5,
202.863,3.98468,2.17896,0,19.9734,426,5,
202.863,3.98468,2.18201,0,19.9734,426,5,
202.863,3.97949,2.17896,0,19.9734,426,5,
202.863,3.97919,2.18353,0,19.9734,426,5,
202.863,3.97522,2.18048,0,19.9734,426,5,
202.863,3.97461,2.18201,0,19.9734,426,5,
202.863,3.97217,2.18201,0,19.9734,426,5,
202.863,3.97003,2.18201,0,19.9734,426,5,
202.863,3.96942,2.18201,0,19.9734,426,5,
202.863,3.96484,2.18201,0,19.9734,426,5,
202.863,3.96454,2.17896,0,19.9734,426,5,
202.863,3.96118,2.18506,0,19.9734,426,5,
202.863,3.95966,2.18201,0,19.9734,426,5,
202.863,3.96027,2.17896,0,19.9734,426,5,
202.863,3.95538,2.18353,0,19.9734,426,5,
202.863,3.95508,2.17896,0,19.9734,426,5,
202.863,3.95111,2.18353,0,19.9734,426,5,
202.864,3.95081,2.18201,0,19.9734,426,5,
202.864,3.9505,2.18048,0,19.9734,426,5,
202.864,3.94562,2.18048,0,19.9734,426,5,
202.864,3.94531,2.18201,0,19.9734,426,5,
202.864,3.94135,2.18353,0,19.9734,426,5,
202.864,3.94043,2.18048,0,19.9734,426,5,
202.864,3.93707,2.17896,0,19.9734,426,5,
202.864,3.93585,2.18353,0,19.9734,426,5,
202.864,3.93555,2.18353,0,19.9734,426,5,
202.864,3.93097,2.17896,0,19.9734,426,5,
202.864,3.93066,2.18353,0,19.9734,426,5,
202.864,3.92792,2.18201,0,19.9734,426,5,
202.864,3.92578,2.17896,0,19.9734,426,5,
202.864,3.92609,2.18201,0,19.9734,426,5,
202.864,3.92059,2.18048,0,19.9734,426,5,
202.864,3.92151,2.18048,0,19.9734,426,5,
202.864,3.91785,2.18201,0,19.9734,426,5,
202.864,3.91571,2.18201,0,19.9734,426,5,
202.864,3.91571,2.17896,0,19.9734,426,5,
202.864,3.91113,2.18201,0,19.9734,426,5,
202.864,3.91113,2.18201,0,19.9734,426,5,
202.864,3.90839,2.18659,0,19.9734,426,5,
202.864,3.90656,2.18353,0,19.9734,426,5,
202.864,3.90594,2.17896,0,19.9734,426,5,
202.864,3.90228,2.18048,0,19.9734,426,5,
202.864,3.90106,2.18201,0,19.9734,426,5,
202.864,3.89832,2.18353,0,19.9734,426,5,
202.864,3.89648,2.18201,0,19.9734,426,5,
202.864,3.89648,2.18048,0,19.9734,426,5,
202.864,3.8916,2.18506,0,19.9734,426,5,
202.865,3.8913,2.18506,0,19.9734,426,5,
202.865,3.88855,2.18048,0,19.9734,426,5,
202.865,3.88611,2.18201,0,19.9734,426,5,
202.865,3.88702,2.18201,0,19.9734,426,5,
202.865,3.88184,2.17896,0,19.9734,426,5,
202.865,3.88123,2.18201,0,19.9734,426,5,
202.865,3.87909,2.18048,0,19.9734,426,5,
202.865,3.87695,2.18048,0,19.9734,426,5,
202.865,3.87634,2.18353,0,19.9734,426,5,
202.865,3.87238,2.18201,0,19.9734,426,5,
202.865,3.87115,2.18048,0,19.9734,426,5,
202.865,3.86749,2.18201,0,19.9734,426,5,
202.865,3.86719,2.18048,0,19.9734,426,5,
202.865,3.86658,2.17896,0,19.9734,426,5,
202.865,3.8623,2.18506,0,19.9734,426,5,
202.865,3.86261,2.18201,0,19.9734,426,5,
202.865,3.85742,2.18506,0,19.9734,426,5,
202.865,3.85803,2.18506,0,19.9734,426,5,
202.865,3.85468,2.18201,0,19.9734,426,5,
202.865,3.85223,2.18353,0,19.9734,426,5,
202.865,3.85284,2.18353,0,19.9734,426,5,
202.865,3.84766,2.18201,0,19.9734,426,5,
202.865,3.84796,2.18201,0,19.9734,426,5,
202.865,3.84277,2.17743,0,19.9734,426,5,
202.865,3.84216,2.17743,0,19.9734,426,5,
202.865,3.83942,2.18048,0,19.9734,426,5,
202.865,3.83789,2.17896,0,19.9734,426,5,
202.865,3.83789,2.18048,0,19.9734,426,5,
202.865,3.8327,2.17896,0,19.9734,426,5,
202.865,3.83209,2.18201,0,19.9734,426,5,
202.866,3.82721,2.18201,0,19.9734,426,5,
202.866,3.82751,2.18353,0,19.9734,426,5,
202.866,3.8269,2.18353,0,19.9734,426,5,
202.866,3.82233,2.18201,0,19.9734,426,5,
202.866,3.82294,2.18353,0,19.9734,426,5,
202.866,3.81805,2.18048,0,19.9734,426,5,
202.866,3.81775,2.18201,0,19.9734,426,5,
202.866,3.81439,2.18201,0,19.9734,426,5,
202.866,3.81317,2.18201,0,19.9734,426,5,
202.866,3.81226,2.18201,0,19.9734,426,5,
202.866,3.80737,2.18353,0,19.9734,426,5,
202.866,3.80707,2.18048,0,19.9734,426,5,
202.866,3.80341,2.18506,0,19.9734,426,5,
202.866,3.80249,2.18201,0,19.9734,426,5,
202.866,3.80035,2.18201,0,19.9734,426,5,
202.866,3.79761,2.18048,0,19.9734,426,5,
202.866,3.79791,2.18048,0,19.9734,426,5,
202.866,3.79395,2.18201,0,19.9734,426,5,
202.866,3.79333,2.18048,0,19.9734,426,5,
202.866,3.78967,2.18048,0,19.9734,426,5,
202.866,3.78815,2.17896,0,19.9734,426,5,
202.866,3.78571,2.18506,0,19.9734,426,5,
202.866,3.78296,2.18201,0,19.9734,426,5,
202.866,3.78357,2.17896,0,19.9734,426,5,
202.866,3.77838,2.17743,0,19.9734,426,5,
202.866,3.77808,2.18353,0,19.9734,426,5,
202.866,3.77411,2.17896,0,19.9734,426,5,
202.866,3.7738,2.18201,0,19.9734,426,5,
202.866,3.7738,2.18048,0,19.9734,426,5,
202.867,3.76831,2.17896,0,19.9734,426,5,
202.867,3.76831,2.18048,0,19.9734,426,5,
202.867,3.76312,2.18048,0,19.9734,426,5,
202.867,3.76373,2.18201,0,19.9734,426,5,
202.867,3.76038,2.18201,0,19.9734,426,5,
202.867,3.75854,2.18048,0,19.9734,426,5,
202.867,3.75854,2.18201,0,19.9734,426,5,
202.867,3.75427,2.18201,0,19.9734,426,5,
202.867,3.75397,2.18201,0,19.9734,426,5,
202.867,3.75427,2.17896,0,19.9734,426,5,
202.867,3.75397,2.18201,0,19.9734,426,5,
202.867,3.74481,2.18201,0,19.9734,426,5,
202.867,3.7442,2.18201,0,19.9734,426,5,
202.867,3.73871,2.17896,0,19.9734,426,5,
202.867,3.73932,2.18506,0,19.9734,426,5,
202.867,3.73901,2.18353,0,19.9734,426,5,
202.867,3.73474,2.18201,0,19.9734,426,5,
202.867,3.73383,2.18201,0,19.9734,426,5,
202.867,3.72986,2.17896,0,19.9734,426,5,
202.867,3.72986,2.18506,0,19.9734,426,5,
202.867,3.72528,2.18048,0,19.9734,426,5,
202.867,3.72467,2.18201,0,19.9734,426,5,
202.867,3.72406,2.18201,0,19.9734,426,5,
202.867,3.72009,2.18201,0,19.9734,426,5,
202.867,3.71979,2.18201,0,19.9734,426,5,
202.867,3.71521,2.18201,0,19.9734,426,5,
202.867,3.7146,2.18201,0,19.9734,426,5,
202.867,3.71033,2.18201,0,19.9734,426,5,
202.867,3.71094,2.18201,0,19.9734,426,5,
202.867,3.70697,2.18353,0,19.9734,426,5,
202.868,3.70514,2.18201,0,19.9734,426,5,
202.868,3.70544,2.17896,0,19.9734,426,5,
202.868,3.69995,2.18353,0,19.9734,426,5,
202.868,3.69995,2.18201,0,19.9734,426,5,
202.868,3.69568,2.18201,0,19.9734,426,5,
202.868,3.69537,2.18048,0,19.9734,426,5,
202.868,3.69263,2.18048,0,19.9734,426,5,
202.868,3.69019,2.18201,0,19.9734,426,5,
202.868,3.69049,2.18201,0,19.9734,426,5,
202.868,3.68591,2.18201,0,19.9734,426,5,
202.868,3.68622,2.18048,0,19.9734,426,5,
202.868,3.68103,2.18201,0,19.9734,426,5,
202.868,3.68042,2.18048,0,19.9734,426,5,
202.868,3.67554,2.18048,0,19.9734,426,5,
202.868,3.67554,2.18201,0,19.9734,426,5,
202.868,3.6734,2.17896,0,19.9734,426,5,
202.868,3.67065,2.18201,0,19.9734,426,5,
202.868,3.67096,2.17896,0,19.9734,426,5,
202.868,3.66577,2.18048,0,19.9734,426,5,
202.868,3.66638,2.18201,0,19.9734,426,5,
202.868,3.6615,2.18506,0,19.9734,426,5,
202.868,3.66119,2.18506,0,19.9734,426,5,
202.868,3.65845,2.18201,0,19.9734,426,5,
202.868,3.6557,2.17896,0,19.9734,426,5,
202.868,3.6557,2.18201,0,19.9734,426,5,
202.868,3.65143,2.18353,0,19.9734,426,5,
202.868,3.65112,2.18048,0,19.9734,426,5,
202.868,3.64655,2.18353,0,19.9734,426,5,
202.868,3.64685,2.18048,0,19.9734,426,5,
202.868,3.64319,2.18506,0,19.9734,426,5,
202.869,3.64166,2.18201,0,19.9734,426,5,
202.869,3.64166,2.17896,0,19.9734,426,5,
202.869,3.63647,2.18201,0,19.9734,426,5,
202.869,3.63678,2.18353,0,19.9734,426,5,
202.869,3.6319,2.18201,0,19.9734,426,5,
202.869,3.63159,2.18048,0,19.9734,426,5,
202.869,3.63129,2.18048,0,19.9734,426,5,
202.869,3.6264,2.18048,0,19.9734,426,5,
202.869,3.6264,2.18048,0,19.9734,426,5,
202.869,3.62213,2.18506,0,19.9734,426,5,
202.869,3.62183,2.18201,0,19.9734,426,5,
202.869,3.62152,2.18201,0,19.9734,426,5,
202.869,3.61786,2.18048,0,19.9734,426,5,
202.869,3.61633,2.1759,0,19.9734,426,5,
202.869,3.61237,2.18353,0,19.9734,426,5,
202.869,3.61237,2.17896,0,19.9734,426,5,
202.869,3.61206,2.18201,0,19.9734,426,5,
202.869,3.60748,2.18353,0,19.9734,426,5,
202.869,3.60779,2.18048,0,19.9734,426,5,
202.869,3.60291,2.17896,0,19.9734,426,5,
202.869,3.60229,2.18353,0,19.9734,426,5,
202.869,3.60229,2.18048,0,19.9734,426,5,
202.869,3.59802,2.18201,0,19.9734,426,5,
202.869,3.59711,2.18201,0,19.9734,426,5,
202.869,3.59436,2.17896,0,19.9734,426,5,
202.869,3.59222,2.18353,0,19.9734,426,5,
202.869,3.59253,2.17743,0,19.9734,426,5,
202.869,3.58795,2.17743,0,19.9734,426,5,
202.869,3.58765,2.18506,0,19.9734,426,5,
202.869,3.58734,2.17743,0,19.9734,426,5,
202.869,3.58276,2.18201,0,19.9734,426,5,
202.87,3.58307,2.18506,0,19.9734,426,5,
202.87,3.58002,2.18048,0,19.9734,426,5,
202.87,3.57758,2.18048,0,19.9734,426,5,
202.87,3.57758,2.18201,0,19.9734,426,5,
202.87,3.57269,2.18048,0,19.9734,426,5,
202.87,3.5733,2.18201,0,19.9734,426,5,
202.87,3.573,2.18048,0,19.9734,426,5,
202.87,3.56812,2.18353,0,19.9734,426,5,
202.87,3.56842,2.18201,0,19.9734,426,5,
202.87,3.5675,2.18048,0,19.9734,426,5,
202.87,3.56293,2.18048,0,19.9734,426,5,
202.87,3.56323,2.18201,0,19.9734,426,5,
202.87,3.56293,2.18353,0,19.9734,426,5,
202.87,3.55835,2.18353,0,19.9734,426,5,
202.87,3.55774,2.18048,0,19.9734,426,5,
202.87,3.55804,2.18201,0,19.9734,426,5,
202.87,3.55286,2.18201,0,19.9734,426,5,
202.87,3.55286,2.18201,0,19.9734,426,5,
202.87,3.55316,2.18048,0,19.9734,426,5,
202.87,3.54889,2.17896,0,19.9734,426,5,
202.87,3.54858,2.18506,0,19.9734,426,5,
202.87,3.54858,2.18201,0,19.9734,426,5,
202.87,3.5437,2.18201,0,19.9734,426,5,
202.87,3.54279,2.18201,0,19.9734,426,5,
202.87,3.5434,2.18506,0,19.9734,426,5,
202.87,3.54065,2.18353,0,19.9734,426,5,
202.87,3.53882,2.18201,0,19.9734,426,5,
202.87,3.53821,2.18048,0,19.9734,426,5,
202.87,3.53882,2.18048,0,19.9734,426,5,
202.87,3.53424,2.18353,0,19.9734,426,5,
202.871,3.53363,2.18048,0,19.9734,426,5,
202.871,3.53394,2.18048,0,19.9734,426,5,
202.871,3.53333,2.18353,0,19.9734,426,5,
202.871,3.52905,2.17896,0,19.9734,426,5,
202.871,3.52875,2.18201,0,19.9734,426,5,
202.871,3.52875,2.18048,0,19.9734,426,5,
202.871,3.52417,2.18048,0,19.9734,426,5,
202.871,3.52478,2.18353,0,19.9734,426,5,
202.871,3.52356,2.17743,0,19.9734,426,5,
202.871,3.52356,2.18353,0,19.9734,426,5,
202.871,3.51929,2.18201,0,19.9734,426,5,
202.871,3.51898,2.18353,0,19.9734,426,5,
202.871,3.51898,2.18201,0,19.9734,426,5,
202.871,3.51837,2.18201,0,19.9734,426,5,
202.871,3.5144,2.18201,0,19.9734,426,5,
202.871,3.5144,2.18201,0,19.9734,426,5,
202.871,3.51379,2.18201,0,19.9734,426,5,
202.871,3.51471,2.18201,0,19.9734,426,5,
202.871,3.51349,2.18353,0,19.9734,426,5,
202.871,3.51349,2.18201,0,19.9734,426,5,
202.871,3.50983,2.18201,3.06,19.9734,426,5,
202.871,3.50494,2.18353,3.06,19.9734,426,5,
202.871,3.50403,2.18201,3.06,19.9734,426,5,
202.871,3.50433,2.18201,3.06,19.9734,426,5,
202.871,3.50403,2.18048,3.06,19.9734,426,5,
202.871,3.50098,2.18201,3.06,19.9734,426,5,
202.871,3.49915,2.17743,3.06,19.9734,426,5,
202.871,3.49945,2.18353,3.06,19.9734,426,5,
202.871,3.49945,2.18353,3.06,19.9734,426,5,
202.871,3.49976,2.18201,3.06,19.9734,426,5,
202.872,3.4964,2.17743,3.06,19.9734,426,5,
202.872,3.49457,2.18353,3.06,19.9734,426,5,
202.872,3.49396,2.18201,3.06,19.9734,426,5,
202.872,3.49426,2.18201,3.06,19.9734,426,5,
202.872,3.49457,2.18506,3.06,19.9734,426,5,
202.872,3.49182,2.18506,3.06,19.9734,426,5,
202.872,3.48938,2.18201,3.06,19.9734,426,5,
202.872,3.48969,2.17743,3.06,19.9734,426,5,
202.872,3.48969,2.18353,3.06,19.9734,426,5,
202.872,3.48969,2.18048,3.06,19.9734,426,5,
202.872,3.4848,2.18353,3.06,19.9734,426,5,
202.872,3.4845,2.17896,3.06,19.9734,426,5,
202.872,3.48358,2.18201,3.06,19.9734,426,5,
202.872,3.4848,2.18201,3.06,19.9734,426,5,
202.872,3.4845,2.18353,3.06,19.9734,426,5,
202.872,3.48206,2.18201,3.06,19.9734,426,5,
202.872,3.47961,2.18048,3.06,19.9734,426,5,
202.872,3.47992,2.18201,3.06,19.9734,426,5,
202.872,3.47992,2.18506,3.06,19.9734,426,5,
202.872,3.47961,2.18353,3.06,19.9734,426,5,
202.872,3.47961,2.18201,3.06,19.9734,426,5,
202.872,3.47504,2.18659,3.06,19.9734,426,5,
202.872,3.47473,2.17896,3.06,19.9734,426,5,
202.872,3.47534,2.18506,3.06,19.9734,426,5,
202.872,3.47473,2.18048,3.06,19.9734,426,5,
202.872,3.47473,2.18201,3.06,19.9734,426,5,
202.872,3.47168,2.18201,3.06,19.9734,426,5,
202.872,3.47015,2.18201,3.06,19.9734,426,5,
202.872,3.47015,2.18048,3.06,19.9734,426,5,
202.873,3.46924,2.18353,3.06,19.9734,426,5,
202.873,3.47015,2.18506,3.06,19.9734,426,5,
202.873,3.47046,2.18048,3.06,19.9734,426,5,
202.873,3.46497,2.18201,3.06,19.9734,426,5,
202.873,3.46527,2.18506,3.06,19.9734,426,5,
202.873,3.46466,2.18201,3.06,19.9734,426,5,
202.873,3.46497,2.18048,3.06,19.9734,426,5,
202.873,3.46497,2.18506,3.06,19.9734,426,5,
202.873,3.46497,2.18506,3.06,19.9734,426,5,
202.873,3.46039,2.18201,3.06,19.9734,426,5,
202.873,3.45917,2.17896,3.06,19.9734,426,5,
202.873,3.46008,2.17896,3.06,19.9734,426,5,
202.873,3.46069,2.18353,3.06,19.9734,426,5,
202.873,3.45978,2.18506,3.06,19.9734,426,5,
202.873,3.46039,2.17896,3.06,19.9734,426,5,
202.873,3.4552,2.18201,3.06,19.9734,426,5,
202.873,3.4552,2.18353,3.06,19.9734,426,5,
202.873,3.4552,2.17896,3.06,19.9734,426,5,
202.873,3.4549,2.18201,3.06,19.9734,426,5,
202.873,3.4549,2.18201,3.06,19.9734,426,5,
202.873,3.45215,2.18201,3.06,19.9734,426,5,
202.873,3.45062,2.18353,3.06,19.9734,426,5,
202.873,3.44971,2.18353,3.06,19.9734,426,5,
202.873,3.45001,2.18201,3.06,19.9734,426,5,
202.873,3.45062,2.18048,3.06,19.9734,426,5,
202.873,3.44757,2.18048,3.06,19.9734,426,5,
202.873,3.44513,2.18048,3.06,19.9734,426,5,
202.873,3.44604,2.17896,3.06,19.9734,426,5,
202.873,3.44513,2.18659,3.06,19.9734,426,5,
202.873,3.44574,2.18506,3.06,19.9734,426,5,
202.874,3.44116,2.18353,3.06,19.9734,426,5,
202.874,3.44025,2.18201,3.06,19.9734,426,5,
202.874,3.44025,2.18506,3.06,19.9734,426,5,
202.874,3.44025,2.18201,3.06,19.9734,426,5,
202.874,3.44116,2.18353,3.06,19.9734,426,5,
202.874,3.43536,2.18048,3.06,19.9734,426,5,
202.874,3.43567,2.18201,3.06,19.9734,426,5,
202.874,3.43567,2.18353,3.06,19.9734,426,5,
202.874,3.43628,2.18353,3.06,19.9734,426,5,
202.874,3.43048,2.18201,3.06,19.9734,426,5,
202.874,3.4317,2.18201,3.06,19.9734,426,5,
202.874,3.43109,2.18201,3.06,19.9734,426,5,
202.874,3.42743,2.18353,3.06,19.9734,426,5,
202.874,3.42651,2.17896,3.06,19.9734,426,5,
202.874,3.4259,2.18506,3.06,19.9734,426,5,
202.874,3.42499,2.18201,3.06,19.9734,426,5,
202.874,3.42163,2.18353,3.06,19.9734,426,5,
202.874,3.42133,2.18353,3.06,19.9734,426,5,
202.874,3.42133,2.17896,3.06,19.9734,426,5,
202.874,3.41583,2.18048,3.06,19.9734,426,5,
202.874,3.41644,2.1759,3.06,19.9734,426,5,
202.874,3.41553,2.18201,3.06,19.9734,426,5,
202.874,3.41125,2.18201,3.06,19.9734,426,5,
202.874,3.41034,2.18201,3.06,19.9734,426,5,
202.874,3.40698,2.18353,3.06,19.9734,426,5,
202.874,3.40637,2.18048,3.06,19.9734,426,5,
202.874,3.40576,2.18201,3.06,19.9734,426,5,
202.874,3.4021,2.18201,3.06,19.9734,426,5,
202.874,3.4021,2.17743,3.06,19.9734,426,5,
202.874,3.39783,2.18353,3.06,19.9734,426,5,
202.875,3.39722,2.18353,3.06,19.9734,426,5,
202.875,3.39417,2.18353,3.06,19.9734,426,5,
202.875,3.39233,2.18353,3.06,19.9734,426,5,
202.875,3.38959,2.18048,3.06,19.9734,426,5,
202.875,3.38745,2.18353,3.06,19.9734,426,5,
202.875,3.38409,2.18506,3.06,19.9734,426,5,
202.875,3.38196,2.18353,3.06,19.9734,426,5,
202.875,3.37891,2.18201,3.06,19.9734,426,5,
202.875,3.37677,2.18353,3.06,19.9734,426,5,
202.875,3.37402,2.18353,3.06,19.9734,426,5,
202.875,3.3725,2.17896,3.06,19.9734,426,5,
202.875,3.367,2.17896,3.06,19.9734,426,5,
202.875,3.36578,2.18201,3.06,19.9734,426,5,
202.875,3.36182,2.18506,3.06,19.9734,426,5,
202.875,3.36151,2.18201,3.06,19.9734,426,5,
202.875,3.35693,2.18201,3.06,19.9734,426,5,
202.875,3.35266,2.18353,3.06,19.9734,426,5,
202.875,3.35205,2.18048,3.06,19.9734,426,5,
202.875,3.34778,2.18048,3.06,19.9734,426,5,
202.875,3.34412,2.18201,3.06,19.9734,426,5,
202.875,3.34229,2.17896,3.06,19.9734,426,5,
202.875,3.33832,2.18201,3.06,19.9734,426,5,
202.875,3.33405,2.18201,3.06,19.9734,426,5,
202.875,3.33282,2.18201,3.06,19.9734,426,5,
202.875,3.32794,2.18353,3.06,19.9734,426,5,
202.875,3.32397,2.18201,3.06,19.9734,426,5,
202.875,3.32275,2.17896,3.06,19.9734,426,5,
202.875,3.31818,2.18201,3.06,19.9734,426,5,
202.875,3.31329,2.18201,3.06,19.9734,426,5,
202.875,3.31055,2.18506,3.06,19.9734,426,5,
202.875,3.30811,2.18506,3.06,19.9734,426,5,
202.876,3.30353,2.18201,3.06,19.9734,426,5,
202.876,3.29895,2.18048,3.06,19.9734,426,5,
202.876,3.29529,2.17896,3.06,19.9734,426,5,
202.876,3.29376,2.18201,3.06,19.9734,426,5,
202.876,3.28827,2.18506,3.06,19.9734,426,5,
202.876,3.28461,2.18201,3.06,19.9734,426,5,
202.876,3.28094,2.18353,3.06,19.9734,426,5,
202.876,3.27881,2.17743,3.06,19.9734,426,5,
202.876,3.27362,2.18201,3.06,19.9734,426,5,
202.876,3.26904,2.18506,3.06,19.9734,426,5,
202.876,3.26508,2.18048,3.06,19.9734,426,5,
202.876,3.26111,2.18201,3.06,19.9734,426,5,
202.876,3.25714,2.18506,3.06,19.9734,426,5,
202.876,3.25439,2.18353,3.06,19.9734,426,5,
202.876,3.25043,2.18353,3.06,19.9734,426,5,
202.876,3.24524,2.18506,3.06,19.9734,426,5,
202.876,3.24005,2.18201,3.06,19.9734,426,5,
202.876,3.23517,2.18201,3.06,19.9734,426,5,
202.876,3.23151,2.17896,3.06,19.9734,426,5,
202.876,3.22906,2.18353,3.06,19.9734,426,5,
202.876,3.22479,2.18201,3.06,19.9734,426,5,
202.876,3.21991,2.18353,3.06,19.9734,426,5,
202.876,3.21472,2.18048,3.06,19.9734,426,5,
202.876,3.21075,2.18353,3.06,19.9734,426,5,
202.876,3.20618,2.18201,3.06,19.9734,426,5,
202.876,3.2019,2.18201,3.06,19.9734,426,5,
202.876,3.19733,2.18201,3.06,19.9734,426,5,
202.876,3.1955,2.18048,3.06,19.9734,426,5,
202.876,3.19031,2.17896,3.06,19.9734,426,5,
202.876,3.18604,2.17896,3.06,19.9734,426,5,
202.877,3.18024,2.18201,3.06,19.9734,426,5,
202.877,3.17566,2.18506,3.06,19.9734,426,5,
202.877,3.17139,2.17896,3.06,19.9734,426,5,
202.877,3.16742,2.18201,3.06,19.9734,426,5,
202.877,3.16132,2.18048,3.06,19.9734,426,5,
202.877,3.15887,2.18353,3.06,19.9734,426,5,
202.877,3.1543,2.18048,3.06,19.9734,426,5,
202.877,3.15125,2.18048,3.06,19.9734,426,5,
202.877,3.14636,2.18353,3.06,19.9734,426,5,
202.877,3.14178,2.18201,3.06,19.9734,426,5,
202.877,3.1369,2.18048,3.06,19.9734,426,5,
202.877,3.13232,2.18353,3.06,19.9734,426,5,
202.877,3.12714,2.18048,3.06,19.9734,426,5,
202.877,3.12134,2.18201,3.06,19.9734,426,5,
202.877,3.11798,2.18201,3.06,19.9734,426,5,
202.877,3.11249,2.18201,3.06,19.9734,426,5,
202.877,3.10913,2.18201,3.06,19.9734,426,5,
202.877,3.10425,2.18201,3.06,19.9734,426,5,
202.877,3.09937,2.17896,3.06,19.9734,426,5,
202.877,3.09753,2.18048,3.06,19.9734,426,5,
202.877,3.09265,2.18201,3.06,19.9734,426,5,
202.877,3.08746,2.18201,3.06,19.9734,426,5,
202.877,3.08319,2.18353,3.06,19.9734,426,5,
202.877,3.078,2.17896,3.06,19.9734,426,5,
202.877,3.07373,2.18201,3.06,19.9734,426,5,
202.877,3.06854,2.18506,3.06,19.9734,426,5,
202.877,3.06458,2.18048,3.06,19.9734,426,5,
202.877,3.05908,2.17743,3.06,19.9734,426,5,
202.877,3.05542,2.18506,3.06,19.9734,426,5,
202.877,3.04993,2.18201,3.06,19.9734,426,5,
202.878,3.04871,2.18353,3.06,19.9734,426,5,
202.878,3.04352,2.18201,3.06,19.9734,426,5,
202.878,3.03833,2.17896,3.06,19.9734,426,5,
202.878,3.03436,2.18201,3.06,19.9734,426,5,
202.878,3.02917,2.18048,3.06,19.9734,426,5,
202.878,3.0246,2.17896,3.06,19.9734,426,5,
202.878,3.02032,2.18201,3.06,19.9734,426,5,
202.878,3.01453,2.18048,3.06,19.9734,426,5,
202.878,3.01117,2.18506,3.06,19.9734,426,5,
202.878,3.00598,2.18201,3.06,19.9734,426,5,
202.878,3.00446,2.17743,3.06,19.9734,426,5,
202.878,2.99927,2.18201,3.06,19.9734,426,5,
202.878,2.99469,2.18048,3.06,19.9734,426,5,
202.878,2.98981,2.18353,3.06,19.9734,426,5,
202.878,2.98492,2.18048,3.06,19.9734,426,5,
202.878,2.98096,2.18201,3.06,19.9734,426,5,
202.878,2.97668,2.18048,3.06,19.9734,426,5,
202.878,2.97241,2.18353,3.06,19.9734,426,5,
202.878,2.96997,2.18201,3.06,19.9734,426,5,
202.878,2.9657,2.18048,3.06,19.9734,426,5,
202.878,2.96082,2.18201,3.06,19.9734,426,5,
202.878,2.95593,2.17896,3.06,19.9734,426,5,
202.878,2.95074,2.18201,3.06,19.9734,426,5,
202.878,2.9483,2.18048,3.06,19.9734,426,5,
202.878,2.94556,2.18201,3.06,19.9734,426,5,
202.878,2.94037,2.18048,3.06,19.9734,426,5,
202.878,2.93549,2.18048,3.06,19.9734,426,5,
202.878,2.93121,2.17896,3.06,19.9734,426,5,
202.878,2.92694,2.18048,3.06,19.9734,426,5,
202.879,2.92358,2.18201,3.06,19.9734,426,5,
202.879,2.92114,2.17896,3.06,19.9734,426,5,
202.879,2.91626,2.18201,3.06,19.9734,426,5,
202.879,2.91168,2.18201,3.06,19.9734,426,5,
202.879,2.9071,2.18048,3.06,19.9734,426,5,
202.879,2.90405,2.18201,3.06,19.9734,426,5,
202.879,2.90131,2.1759,3.06,19.9734,426,5,
202.879,2.89642,2.18048,3.06,19.9734,426,5,
202.879,2.89215,2.18506,3.06,19.9734,426,5,
202.879,2.88727,2.18048,3.06,19.9734,426,5,
202.879,2.88361,2.18201,3.06,19.9734,426,5,
202.879,2.88239,2.18048,3.06,19.9734,426,5,
202.879,2.8772,2.18201,3.06,19.9734,426,5,
202.879,2.87262,2.17896,3.06,19.9734,426,5,
202.879,2.86926,2.18201,3.06,19.9734,426,5,
202.879,2.86713,2.18506,3.06,19.9734,426,5,
202.879,2.86255,2.18659,3.06,19.9734,426,5,
202.879,2.85736,2.18048,3.06,19.9734,426,5,
202.879,2.85431,2.18353,3.06,19.9734,426,5,
202.879,2.85248,2.18201,3.06,19.9734,426,5,
202.879,2.8476,2.18201,3.06,19.9734,426,5,
202.879,2.84332,2.18353,3.06,19.9734,426,5,
202.879,2.84271,2.18353,3.06,19.9734,426,5,
202.879,2.83813,2.18353,3.06,19.9734,426,5,
202.879,2.83295,2.18048,3.06,19.9734,426,5,
202.879,2.82959,2.18201,3.06,19.9734,426,5,
202.879,2.82806,2.18353,3.06,19.9734,426,5,
202.879,2.82318,2.18201,3.06,19.9734,426,5,
202.879,2.81952,2.17743,3.06,19.9734,426,5,
202.879,2.8183,2.18048,3.06,19.9734,426,5,
202.88,2.81342,2.18201,3.06,19.9734,426,5,
202.88,2.81006,2.18201,3.06,19.9734,426,5,
202.88,2.80731,2.18201,3.06,19.9734,426,5,
202.88,2.80334,2.18201,3.06,19.9734,426,5,
202.88,2.79968,2.17743,3.06,19.9734,426,5,
202.88,2.79846,2.18201,3.06,19.9734,426,5,
202.88,2.79388,2.18048,3.06,19.9734,426,5,
202.88,2.78931,2.18353,3.06,19.9734,426,5,
202.88,2.7887,2.18201,3.06,19.9734,426,5,
202.88,2.78442,2.18201,3.06,19.9734,426,5,
202.88,2.77954,2.18506,3.06,19.9734,426,5,
202.88,2.77924,2.18659,3.06,19.9734,426,5,
202.88,2.77466,2.18201,3.06,19.9734,426,5,
202.88,2.7713,2.17896,3.06,19.9734,426,5,
202.88,2.76917,2.18201,3.06,19.9734,426,5,
202.88,2.76428,2.18201,3.06,19.9734,426,5,
202.88,2.76459,2.18506,3.06,19.9734,426,5,
202.88,2.76031,2.18048,3.06,19.9734,426,5,
202.88,2.75482,2.18506,3.06,19.9734,426,5,
202.88,2.75482,2.18506,3.06,19.9734,426,5,
202.88,2.75024,2.18201,3.06,19.9734,426,5,
202.88,2.74719,2.18201,3.06,19.9734,426,5,
202.88,2.74506,2.17896,3.06,19.9734,426,5,
202.88,2.74048,2.18048,3.06,19.9734,426,5,
202.88,2.73987,2.18201,3.06,19.9734,426,5,
202.88,2.7359,2.18201,3.06,19.9734,426,5,
202.88,2.73499,2.18201,3.06,19.9734,426,5,
202.88,2.73041,2.18201,3.06,19.9734,426,5,
202.88,2.72736,2.18048,3.06,19.9734,426,5,
202.88,2.72461,2.18201,3.06,19.9734,426,5,
202.881,2.72125,2.18353,3.06,19.9734,426,5,
202.881,2.72003,2.18353,3.06,19.9734,426,5,
202.881,2.71576,2.18353,3.06,19.9734,426,5,
202.881,2.71576,2.17896,3.06,19.9734,426,5,
202.881,2.71057,2.18353,3.06,19.9734,426,5,
202.881,2.71027,2.18201,3.06,19.9734,426,5,
202.881,2.70538,2.18201,3.06,19.9734,426,5,
202.881,2.70538,2.18201,3.06,19.9734,426,5,
202.881,2.7005,2.18353,3.06,19.9734,426,5,
202.881,2.69958,2.18353,3.06,19.9734,426,5,
202.881,2.69623,2.18201,3.06,19.9734,426,5,
202.881,2.69287,2.18201,3.06,19.9734,426,5,
202.881,2.69073,2.17743,3.06,19.9734,426,5,
202.881,2.68768,2.18048,3.06,19.9734,426,5,
202.881,2.68585,2.18353,3.06,19.9734,426,5,
202.881,2.6828,2.18201,3.06,19.9734,426,5,
202.881,2.68097,2.18659,3.06,19.9734,426,5,
202.881,2.67883,2.18353,3.06,19.9734,426,5,
202.881,2.6767,2.18201,3.06,19.9734,426,5,
202.881,2.67395,2.18048,3.06,19.9734,426,5,
202.881,2.6712,2.18048,3.06,19.9734,426,5,
202.881,2.6712,2.17896,3.06,19.9734,426,5,
202.881,2.66663,2.18201,3.06,19.9734,426,5,
202.881,2.66632,2.18201,3.06,19.9734,426,5,
202.881,2.66235,2.17896,3.06,19.9734,426,5,
202.881,2.66205,2.18353,3.06,19.9734,426,5,
202.881,2.65656,2.18353,3.06,19.9734,426,5,
202.881,2.65686,2.18659,3.06,19.9734,426,5,
202.881,2.65259,2.18506,3.06,19.9734,426,5,
202.881,2.65198,2.18201,3.06,19.9734,426,5,
202.881,2.64923,2.18201,3.06,19.9734,426,5,
202.882,2.64648,2.18048,3.06,19.9734,426,5,
202.882,2.64679,2.18048,3.06,19.9734,426,5,
202.882,2.64252,2.18201,3.06,19.9734,426,5,
202.882,2.64221,2.17896,3.06,19.9734,426,5,
202.882,2.63733,2.18353,3.06,19.9734,426,5,
202.882,2.63763,2.18201,3.06,19.9734,426,5,
202.882,2.63458,2.18353,3.06,19.9734,426,5,
202.882,2.63275,2.18048,3.06,19.9734,426,5,
202.882,2.63184,2.18201,3.06,19.9734,426,5,
202.882,2.62665,2.18201,3.06,19.9734,426,5,
202.882,2.62695,2.18353,3.06,19.9734,426,5,
202.882,2.62238,2.18353,3.06,19.9734,426,5,
202.882,2.62238,2.18353,3.06,19.9734,426,5,
202.882,2.62238,2.18353,3.06,19.9734,426,5,
202.882,2.6181,2.18506,3.06,19.9734,426,5,
202.882,2.61749,2.18048,3.06,19.9734,426,5,
202.882,2.6178,2.18048,3.06,19.9734,426,5,
202.882,2.61353,2.18201,3.06,19.9734,426,5,
202.882,2.60834,2.18048,3.06,19.9734,426,5,
202.882,2.60803,2.18353,3.06,19.9734,426,5,
202.882,2.60742,2.18201,3.06,19.9734,426,5,
202.882,2.60284,2.17896,3.06,19.9734,426,5,
202.882,2.60315,2.18201,3.06,19.9734,426,5,
202.882,2.60223,2.18048,3.06,19.9734,426,5,
202.882,2.60254,2.18506,3.06,19.9734,426,5,
202.882,2.60315,2.18353,3.06,19.9734,426,5,
202.882,2.60254,2.18048,3.06,19.9734,426,5,
202.882,2.60254,2.18353,3.06,19.9734,426,5,
202.882,2.60254,2.18201,3.06,19.9734,426,5,
202.882,2.60254,2.17743,3.06,19.9734,426,5,
202.883,2.60315,2.18353,3.06,19.9734,426,5,
202.883,2.60284,2.17896,3.06,19.9734,426,5,
202.883,2.60345,2.18048,3.06,19.9734,426,5,
202.883,2.60254,2.18506,3.06,19.9734,426,5,
202.883,2.60284,2.18048,3.06,19.9734,426,5,
202.883,2.60284,2.18353,3.06,19.9734,426,5,
202.883,2.60345,2.18201,3.06,19.9734,426,5,
202.883,2.60284,2.18048,3.06,19.9734,426,5,
202.883,2.60345,2.18201,3.06,19.9734,426,5,
202.883,2.60284,2.18201,3.06,19.9734,426,5,
202.883,2.60315,2.18506,3.06,19.9734,426,5,
202.883,2.60254,2.18506,3.06,19.9734,426,5,
202.883,2.60284,2.18201,3.06,19.9734,426,5,
202.883,2.60284,2.18353,3.06,19.9734,426,5,
202.883,2.60223,2.18353,3.06,19.9734,426,5,
202.883,2.60223,2.18048,3.06,19.9734,426,5,
202.883,2.56409,2.18659,0.696,19.9734,426,5,
202.883,2.56409,2.18506,0.696,19.9734,426,5,
202.883,2.56378,2.18048,0.696,19.9734,426,5,
202.883,2.55951,2.18353,0.696,19.9734,426,5,
202.883,2.55829,2.18353,0.696,19.9734,426,5,
202.883,2.5592,2.18201,0.696,19.9734,426,5,
202.883,2.55432,2.18201,0.696,19.9734,426,5,
202.883,2.55402,2.18201,0.696,19.9734,426,5,
202.883,2.55402,2.18201,0.696,19.9734,426,5,
202.883,2.55096,2.18506,0.696,19.9734,426,5,
202.883,2.54913,2.18201,0.696,19.9734,426,5,
202.883,2.54944,2.18048,0.696,19.9734,426,5,
202.883,2.54944,2.18353,0.696,19.9734,426,5,
202.883,2.54486,2.18201,0.696,19.9734,426,5,
202.884,2.54364,2.18201,0.696,19.9734,426,5,
202.884,2.54395,2.18353,0.696,19.9734,426,5,
202.884,2.54425,2.18353,0.696,19.9734,426,5,
202.884,2.53937,2.18201,0.696,19.9734,426,5,
202.884,2.53937,2.18506,0.696,19.9734,426,5,
202.884,2.53998,2.18353,0.696,19.9734,426,5,
202.884,2.53937,2.18201,0.696,19.9734,426,5,
202.884,2.53479,2.18353,0.696,19.9734,426,5,
202.884,2.5354,2.18201,0.696,19.9734,426,5,
202.884,2.53479,2.18353,0.696,19.9734,426,5,
202.884,2.53479,2.18353,0.696,19.9734,426,5,
202.884,2.53021,2.17896,0.696,19.9734,426,5,
202.884,2.53052,2.18353,0.696,19.9734,426,5,
202.884,2.53021,2.18201,0.696,19.9734,426,5,
202.884,2.53052,2.18353,0.696,19.9734,426,5,
202.884,2.52533,2.18353,0.696,19.9734,426,5,
202.884,2.52502,2.18201,0.696,19.9734,426,5,
202.884,2.52533,2.18353,0.696,19.9734,426,5,
202.884,2.52441,2.18201,0.696,19.9734,426,5,
202.884,2.51984,2.18201,0.696,19.9734,426,5,
202.884,2.51984,2.18048,0.696,19.9734,426,5,
202.884,2.51953,2.17896,0.696,19.9734,426,5,
202.884,2.51892,2.18201,0.696,19.9734,426,5,
202.884,2.51526,2.18201,0.696,19.9734,426,5,
202.884,2.51404,2.18048,0.696,19.9734,426,5,
202.884,2.51404,2.18201,0.696,19.9734,426,5,
202.884,2.51465,2.18201,0.696,19.9734,426,5,
202.884,2.51373,2.18201,0.696,19.9734,426,5,
202.884,2.51007,2.18201,0.696,19.9734,426,5,
202.885,2.51007,2.18353,0.696,19.9734,426,5,
202.885,2.50885,2.18353,0.696,19.9734,426,5,
202.885,2.50977,2.18048,0.696,19.9734,426,5,
202.885,2.50641,2.18353,0.696,19.9734,426,5,
202.885,2.50458,2.18353,0.696,19.9734,426,5,
202.885,2.50427,2.17896,0.696,19.9734,426,5,
202.885,2.50519,2.18353,0.696,19.9734,426,5,
202.885,2.50519,2.18201,0.696,19.9734,426,5,
202.885,2.50214,2.17896,0.696,19.9734,426,5,
202.885,2.50031,2.18048,0.696,19.9734,426,5,
202.885,2.5,2.18506,0.696,19.9734,426,5,
202.885,2.5,2.18048,0.696,19.9734,426,5,
202.885,2.5,2.17743,0.696,19.9734,426,5,
202.885,2.49695,2.18201,0.696,19.9734,426,5,
202.885,2.49481,2.18353,0.696,19.9734,426,5,
202.885,2.49512,2.18353,0.696,19.9734,426,5,
202.885,2.49512,2.17896,0.696,19.9734,426,5,
202.885,2.49512,2.18353,0.696,19.9734,426,5,
202.885,2.49512,2.18201,0.696,19.9734,426,5,
202.885,2.48993,2.18353,0.696,19.9734,426,5,
202.885,2.49084,2.18353,0.696,19.9734,426,5,
202.885,2.49023,2.18201,0.696,19.9734,426,5,
202.885,2.49054,2.18048,0.696,19.9734,426,5,
202.885,2.49084,2.18201,0.696,19.9734,426,5,
202.885,2.48749,2.18048,0.696,19.9734,426,5,
202.885,2.48596,2.17896,0.696,19.9734,426,5,
202.885,2.48627,2.18201,0.696,19.9734,426,5,
202.885,2.48566,2.18201,0.696,19.9734,426,5,
202.885,2.48566,2.18201,0.696,19.9734,426,5,
202.885,2.48566,2.18353,0.696,19.9734,426,5,
202.886,2.4826,2.18353,0.696,19.9734,426,5,
202.886,2.48047,2.18201,0.696,19.9734,426,5,
202.886,2.48047,2.18201,0.696,19.9734,426,5,
202.886,2.48077,2.18201,0.696,19.9734,426,5,
202.886,2.48016,2.18201,0.696,19.9734,426,5,
202.886,2.48077,2.18506,0.696,19.9734,426,5,
202.886,2.47711,2.18506,0.696,19.9734,426,5,
202.886,2.47559,2.18201,0.696,19.9734,426,5,
202.886,2.47589,2.18201,0.696,19.9734,426,5,
202.886,2.47559,2.18506,0.696,19.9734,426,5,
202.886,2.4762,2.18201,0.696,19.9734,426,5,
202.886,2.47559,2.18353,0.696,19.9734,426,5,
202.886,2.47559,2.18201,0.696,19.9734,426,5,
202.886,2.4707,2.17896,0.696,19.9734,426,5,
202.886,2.47131,2.18353,0.696,19.9734,426,5,
202.886,2.47009,2.18353,0.696,19.9734,426,5,
202.886,2.4707,2.18353,0.696,19.9734,426,5,
202.886,2.4707,2.18353,0.696,19.9734,426,5,
202.886,2.47162,2.17896,0.696,19.9734,426,5,
202.886,2.46552,2.18201,0.696,19.9734,426,5,
202.886,2.46613,2.18353,0.696,19.9734,426,5,
202.886,2.46613,2.18201,0.696,19.9734,426,5,
202.886,2.46582,2.18353,0.696,19.9734,426,5,
202.886,2.46613,2.18201,0.696,19.9734,426,5,
202.886,2.46582,2.17743,0.696,19.9734,426,5,
202.886,2.46094,2.17743,0.696,19.9734,426,5,
202.886,2.46063,2.18353,0.696,19.9734,426,5,
202.886,2.46094,2.17896,0.696,19.9734,426,5,
202.886,2.46094,2.18506,0.696,19.9734,426,5,
202.886,2.46094,2.18048,0.696,19.9734,426,5,
202.887,2.46155,2.18201,0.696,19.9734,426,5,
202.887,2.46185,2.17896,0.696,19.9734,426,5,
202.887,2.45544,2.18506,0.696,19.9734,426,5,
202.887,2.45575,2.18201,0.696,19.9734,426,5,
202.887,2.45605,2.17743,0.696,19.9734,426,5,
202.887,2.45605,2.1698,0.696,19.9734,426,5,
202.887,2.45636,2.1698,0.696,19.9734,426,5,
202.887,2.45544,2.16522,0.696,19.9734,426,5,
202.887,2.45148,2.17285,0.696,19.9734,426,5,
202.887,2.45117,2.17133,0.696,19.9734,426,5,
202.887,2.45056,2.1698,0.696,19.9734,426,5,
202.887,2.45148,2.1698,0.696,19.9734,426,5,
202.887,2.45056,2.16675,0.696,19.9734,426,5,
202.887,2.45056,2.17133,0.696,19.9734,426,5,
202.887,2.44873,2.17133,0.696,19.9734,426,5,
202.887,2.44568,2.17133,0.696,19.9734,426,5,
202.887,2.44537,2.17285,0.696,19.9734,426,5,
202.887,2.44598,2.17133,0.696,19.9734,426,5,
202.887,2.44659,2.16675,0.696,19.9734,426,5,
202.887,2.44629,2.17285,0.696,19.9734,426,5,
202.887,2.4469,2.17133,0.696,19.9734,426,5,
202.887,2.44049,2.1698,0.696,19.9734,426,5,
202.887,2.4411,2.1637,0.696,19.9734,426,5,
202.887,2.44049,2.16675,0.696,19.9734,426,5,
202.887,2.44141,2.16827,0.696,19.9734,426,5,
202.887,2.4408,2.1698,0.696,19.9734,426,5,
202.887,2.4411,2.17133,0.696,19.9734,426,5,
202.887,2.43774,2.16827,0.696,19.9734,426,5,
202.887,2.43622,2.1698,0.696,19.9734,426,5,
202.887,2.43683,2.16827,0.696,19.9734,426,5,
202.887,2.43652,2.16827,0.696,19.9734,426,5,
202.888,2.43591,2.1698,0.696,19.9734,426,5,
202.888,2.43652,2.1698,0.696,19.9734,426,5,
202.888,2.43591,2.16675,0.696,19.9734,426,5,
202.888,2.43164,2.16675,0.696,19.9734,426,5,
202.888,2.43073,2.17133,0.696,19.9734,426,5,
202.888,2.43134,2.17133,0.696,19.9734,426,5,
202.888,2.43134,2.1698,0.696,19.9734,426,5,
202.888,2.43164,2.16675,0.696,19.9734,426,5,
202.888,2.43103,2.17133,0.696,19.9734,426,5,
202.888,2.42889,2.16675,0.696,19.9734,426,5,
202.888,2.42737,2.16522,0.696,19.9734,426,5,
202.888,2.42676,2.1698,0.696,19.9734,426,5,
202.888,2.42554,2.16827,0.696,19.9734,426,5,
202.888,2.42615,2.1698,0.696,19.9734,426,5,
202.888,2.42645,2.16827,0.696,19.9734,426,5,
202.888,2.42676,2.16522,0.696,19.9734,426,5,
202.888,2.42188,2.16827,0.696,19.9734,426,5,
202.888,2.42096,2.17133,0.696,19.9734,426,5,
202.888,2.42157,2.16675,0.696,19.9734,426,5,
202.888,2.42188,2.17133,0.696,19.9734,426,5,
202.888,2.42188,2.1698,0.696,19.9734,426,5,
202.888,2.42188,2.1698,0.696,19.9734,426,5,
202.888,2.41699,2.16827,0.696,19.9734,426,5,
202.888,2.41669,2.17133,0.696,19.9734,426,5,
202.888,2.41699,2.1698,0.696,19.9734,426,5,
202.888,2.41638,2.17285,0.696,19.9734,426,5,
202.888,2.41699,2.17133,0.696,19.9734,426,5,
202.888,2.41669,2.16827,0.696,19.9734,426,5,
202.888,2.41638,2.1698,0.696,19.9734,426,5,
202.888,2.41211,2.17133,0.696,19.9734,426,5,
202.889,2.4115,2.17133,0.696,19.9734,426,5,
202.889,2.41211,2.1698,0.696,19.9734,426,5,
202.889,2.41241,2.16827,0.696,19.9734,426,5,
202.889,2.4115,2.1698,0.696,19.9734,426,5,
202.889,2.4115,2.17133,0.696,19.9734,426,5,
202.889,2.40692,2.1698,0.696,19.9734,426,5,
202.889,2.40692,2.17285,0.696,19.9734,426,5,
202.889,2.40723,2.16522,0.696,19.9734,426,5,
202.889,2.40662,2.1698,0.696,19.9734,426,5,
202.889,2.40692,2.17285,0.696,19.9734,426,5,
202.889,2.40723,2.17133,0.696,19.9734,426,5,
202.889,2.40173,2.16522,0.696,19.9734,426,5,
202.889,2.40234,2.16827,0.696,19.9734,426,5,
202.889,2.40143,2.16827,0.696,19.9734,426,5,
202.889,2.40234,2.1698,0.696,19.9734,426,5,
202.889,2.40234,2.16827,0.696,19.9734,426,5,
202.889,2.40234,2.17133,0.696,19.9734,426,5,
202.889,2.39655,2.16827,0.696,19.9734,426,5,
202.889,2.39716,2.16827,0.696,19.9734,426,5,
202.889,2.39807,2.17285,0.696,19.9734,426,5,
202.889,2.39777,2.1698,0.696,19.9734,426,5,
202.889,2.39685,2.16675,0.696,19.9734,426,5,
202.889,2.39716,2.17133,0.696,19.9734,426,5,
202.889,2.39258,2.16675,0.696,19.9734,426,5,
202.889,2.39197,2.1698,0.696,19.9734,426,5,
202.889,2.39258,2.17133,0.696,19.9734,426,5,
202.889,2.39288,2.16827,0.696,19.9734,426,5,
202.889,2.39258,2.16827,0.696,19.9734,426,5,
202.889,2.39288,2.17133,0.696,19.9734,426,5,
202.889,2.3877,2.17133,0.696,19.9734,426,5,
202.89,2.3877,2.16827,0.696,19.9734,426,5,
202.89,2.38708,2.1698,0.696,19.9734,426,5,
202.89,2.38708,2.16827,0.696,19.9734,426,5,
202.89,2.388,2.16827,0.696,19.9734,426,5,
202.89,2.3877,2.1698,0.696,19.9734,426,5,
202.89,2.38281,2.17133,0.696,19.9734,426,5,
202.89,2.3819,2.17133,0.696,19.9734,426,5,
202.89,2.3819,2.16675,0.696,19.9734,426,5,
202.89,2.38281,2.16827,0.696,19.9734,426,5,
202.89,2.3819,2.17133,0.696,19.9734,426,5,
202.89,2.38312,2.17285,0.696,19.9734,426,5,
202.89,2.37732,2.16827,0.696,19.9734,426,5,
202.89,2.37701,2.17285,0.696,19.9734,426,5,
202.89,2.37793,2.1698,0.696,19.9734,426,5,
202.89,2.37732,2.17285,0.696,19.9734,426,5,
202.89,2.37762,2.1698,0.696,19.9734,426,5,
202.89,2.37701,2.16827,0.696,19.9734,426,5,
202.89,2.37396,2.17133,0.696,19.9734,426,5,
202.89,2.37213,2.17133,0.696,19.9734,426,5,
202.89,2.37244,2.17133,0.696,19.9734,426,5,
202.89,2.37244,2.17133,0.696,19.9734,426,5,
202.89,2.37244,2.17133,0.696,19.9734,426,5,
202.89,2.37305,2.17285,0.696,19.9734,426,5,
202.89,2.36938,2.16675,0.696,19.9734,426,5,
202.89,2.36755,2.16675,0.696,19.9734,426,5,
202.89,2.36816,2.16827,0.696,19.9734,426,5,
202.89,2.36725,2.16522,0.696,19.9734,426,5,
202.89,2.36725,2.1698,0.696,19.9734,426,5,
202.89,2.36725,2.16675,0.696,19.9734,426,5,
202.891,2.36725,2.17133,0.696,19.9734,426,5,
202.891,2.36206,2.17133,0.696,19.9734,426,5,
202.891,2.36267,2.1698,0.696,19.9734,426,5,
202.891,2.36267,2.17133,0.696,19.9734,426,5,
202.891,2.36237,2.16827,0.696,19.9734,426,5,
202.891,2.36298,2.17133,0.696,19.9734,426,5,
202.891,2.36328,2.16827,0.696,19.9734,426,5,
202.891,2.3587,2.17133,0.696,19.9734,426,5,
202.891,2.35779,2.16675,0.696,19.9734,426,5,
202.891,2.3584,2.1698,0.696,19.9734,426,5,
202.891,2.3584,2.1698,0.696,19.9734,426,5,
202.891,2.35779,2.16675,0.696,19.9734,426,5,
202.891,2.3584,2.16827,0.696,19.9734,426,5,
202.891,2.35443,2.17133,0.696,19.9734,426,5,
202.891,2.35291,2.17133,0.696,19.9734,426,5,
202.891,2.3526,2.1698,0.696,19.9734,426,5,
202.891,2.3526,2.1698,0.696,19.9734,426,5,
202.891,2.35382,2.1698,0.696,19.9734,426,5,
202.891,2.35229,2.16827,0.696,19.9734,426,5,
202.891,2.3526,2.1698,0.696,19.9734,426,5,
202.891,2.34833,2.16827,0.696,19.9734,426,5,
202.891,2.34863,2.1698,0.696,19.9734,426,5,
202.891,2.34772,2.1698,0.696,19.9734,426,5,
202.891,2.34772,2.1698,0.696,19.9734,426,5,
202.891,2.34802,2.17285,0.696,19.9734,426,5,
202.891,2.34833,2.1698,0.696,19.9734,426,5,
202.891,2.34772,2.17133,0.696,19.9734,426,5,
202.891,2.34314,2.1698,0.696,19.9734,426,5,
202.891,2.34344,2.17285,0.696,19.9734,426,5,
202.891,2.34344,2.1698,0.696,19.9734,426,5,
202.892,2.34314,2.1698,0.696,19.9734,426,5,
202.892,2.34344,2.1698,0.696,19.9734,426,5,
202.892,2.34314,2.17133,0.696,19.9734,426,5,
202.892,2.33978,2.16675,0.696,19.9734,426,5,
202.892,2.33887,2.17285,0.696,19.9734,426,5,
202.892,2.33887,2.1698,0.696,19.9734,426,5,
202.892,2.33887,2.1698,0.696,19.9734,426,5,
202.892,2.33826,2.1698,0.696,19.9734,426,5,
202.892,2.33887,2.17133,0.696,19.9734,426,5,
202.892,2.33826,2.1698,0.696,19.9734,426,5,
202.892,2.33795,2.16827,0.696,19.9734,426,5,
202.892,2.33368,2.16827,0.696,19.9734,426,5,
202.892,2.33368,2.17133,0.696,19.9734,426,5,
202.892,2.33307,2.17133,0.696,19.9734,426,5,
202.892,2.33337,2.16827,0.696,19.9734,426,5,
202.892,2.33307,2.16827,0.696,19.9734,426,5,
202.892,2.33368,2.16827,0.696,19.9734,426,5,
202.892,2.33398,2.1698,0.696,19.9734,426,5,
202.892,2.32849,2.16675,0.696,19.9734,426,5,
202.892,2.32849,2.17133,0.696,19.9734,426,5,
202.892,2.3288,2.1698,0.696,19.9734,426,5,
202.892,2.32819,2.16675,0.696,19.9734,426,5,
202.892,2.32788,2.1698,0.696,19.9734,426,5,
202.892,2.32849,2.16827,0.696,19.9734,426,5,
202.892,2.3288,2.16675,0.696,19.9734,426,5,
202.892,2.3288,2.1698,0.696,19.9734,426,5,
202.892,2.32422,2.16675,0.696,19.9734,426,5,
202.892,2.32391,2.17133,0.696,19.9734,426,5,
202.892,2.3233,2.17133,0.696,19.9734,426,5,
202.892,2.32361,2.17133,0.696,19.9734,426,5,
202.893,2.32422,2.16827,0.696,19.9734,426,5,
202.893,2.3233,2.1698,0.696,19.9734,426,5,
202.893,2.3233,2.16827,0.696,19.9734,426,5,
202.893,2.32391,2.1698,0.696,19.9734,426,5,
202.893,2.31934,2.1698,0.696,19.9734,426,5,
202.893,2.31842,2.16827,0.696,19.9734,426,5,
202.893,2.31812,2.16827,0.696,19.9734,426,5,
202.893,2.31934,2.1698,0.696,19.9734,426,5,
202.893,2.31934,2.1698,0.696,19.9734,426,5,
202.893,2.31842,2.16827,0.696,19.9734,426,5,
202.893,2.31812,2.17133,0.696,19.9734,426,5,
202.893,2.31873,2.17133,0.696,19.9734,426,5,
202.893,2.31842,2.17133,0.696,19.9734,426,5,
202.893,2.31415,2.16827,0.696,19.9734,426,5,
202.893,2.31445,2.1698,0.696,19.9734,426,5,
202.893,2.31384,2.16827,0.696,19.9734,426,5,
202.893,2.31354,2.16675,0.696,19.9734,426,5,
202.893,2.31354,2.16827,0.696,19.9734,426,5,
202.893,2.31445,2.1698,0.696,19.9734,426,5,
202.893,2.31354,2.16675,0.696,19.9734,426,5,
202.893,2.31415,2.16827,0.696,19.9734,426,5,
202.893,2.31384,2.1698,0.696,19.9734,426,5,
202.893,2.31415,2.17133,0.696,19.9734,426,5,
202.893,2.30957,2.16827,0.696,19.9734,426,5,
202.893,2.30957,2.17133,0.696,19.9734,426,5,
202.893,2.30896,2.1698,0.696,19.9734,426,5,
202.893,2.30988,2.16675,0.696,19.9734,426,5,
202.893,2.30957,2.17133,0.696,19.9734,426,5,
202.893,2.30957,2.1698,0.696,19.9734,426,5,
202.893,2.30988,2.17285,0.696,19.9734,426,5,
202.893,2.30988,2.16675,0.696,19.9734,426,5,
202.894,2.30957,2.16827,0.696,19.9734,426,5,
202.894,2.30957,2.1698,0.696,19.9734,426,5,
202.894,2.30927,2.16675,0.696,19.9734,426,5,
202.894,2.30469,2.1698,0.696,19.9734,426,5,
202.894,2.30408,2.16675,0.696,19.9734,426,5,
202.894,2.3053,2.17285,0.696,19.9734,426,5,
202.894,2.30377,2.1698,0.696,19.9734,426,5,
202.894,2.30438,2.17133,0.696,19.9734,426,5,
202.894,2.30316,2.1698,0.696,19.9734,426,5,
202.894,2.30469,2.1698,0.696,19.9734,426,5,
202.894,2.30316,2.1698,0.696,19.9734,426,5,
202.894,2.30438,2.1698,0.696,19.9734,426,5,
202.894,2.30408,2.16522,0.696,19.9734,426,5,
202.894,2.30408,2.1698,0.696,19.9734,426,5,
202.894,2.30377,2.16827,0.696,19.9734,426,5,
202.894,2.30133,2.16827,0.696,19.9734,426,5,
202.894,2.2995,2.1698,0.696,19.9734,426,5,
202.894,2.29889,2.17133,0.696,19.9734,426,5,
202.894,2.29858,2.16827,0.696,19.9734,426,5,
202.894,2.29858,2.17133,0.696,19.9734,426,5,
202.894,2.29919,2.1698,0.696,19.9734,426,5,
202.894,2.29889,2.1698,0.696,19.9734,426,5,
202.894,2.29919,2.1698,0.696,19.9734,426,5,
202.894,2.29889,2.16827,0.696,19.9734,426,5,
202.894,2.29919,2.17285,0.696,19.9734,426,5,
202.894,2.29828,2.16827,0.696,19.9734,426,5,
202.894,2.29889,2.16827,0.696,19.9734,426,5,
202.894,2.2995,2.16827,0.696,19.9734,426,5,
202.894,2.29919,2.1698,0.696,19.9734,426,5,
202.894,2.29858,2.16827,0.696,19.9734,426,5,
202.895,2.29889,2.1698,0.696,19.9734,426,5,
202.895,2.2995,2.16827,0.696,19.9734,426,5,
202.895,2.29919,2.1698,0.696,19.9734,426,5,
202.895,2.29889,2.17285,0.696,19.9734,426,5,
202.895,2.29919,2.17285,0.696,19.9734,426,5,
202.895,2.29523,2.16827,0.696,19.9734,426,5,
202.895,2.29401,2.16675,0.696,19.9734,426,5,
202.895,2.29401,2.1698,0.696,19.9734,426,5,
202.895,2.29462,2.1698,0.696,19.9734,426,5,
202.895,2.2937,2.16675,0.696,19.9734,426,5,
202.895,2.29431,2.1698,0.696,19.9734,426,5,
202.895,2.2937,2.1698,0.696,19.9734,426,5,
202.895,2.2934,2.16827,0.696,19.9734,426,5,
202.895,2.2937,2.16827,0.696,19.9734,426,5,
202.895,2.2937,2.16827,0.696,19.9734,426,5,
202.895,2.29462,2.17133,0.696,19.9734,426,5,
202.895,2.2937,2.1698,0.696,19.9734,426,5,
202.895,2.29401,2.16827,0.696,19.9734,426,5,
202.895,2.29401,2.17133,0.696,19.9734,426,5,
202.895,2.29401,2.1698,0.696,19.9734,426,5,
202.895,2.29431,2.17133,0.696,19.9734,426,5,
202.895,2.29492,2.1698,0.696,19.9734,426,5,
202.895,2.29462,2.17133,0.696,19.9734,426,5,
202.895,2.29401,2.16827,0.696,19.9734,426,5,
202.895,2.29492,2.1698,0.696,19.9734,426,5,
202.895,2.29492,2.16827,0.696,19.9734,426,5,
202.895,2.2937,2.1698,0.696,19.9734,426,5,
202.895,2.29431,2.16827,0.696,19.9734,426,5,
202.895,2.29431,2.17285,0.696,19.9734,426,5,
202.895,2.29431,2.16827,0.696,19.9734,426,5,
202.896,2.2937,2.1698,0.696,19.9734,426,5,
202.896,2.29401,2.17133,0.696,19.9734,426,5,
202.896,2.28943,2.16827,0.696,19.9734,426,5,
202.896,2.28973,2.16675,0.696,19.9734,426,5,
202.896,2.29004,2.1698,0.696,19.9734,426,5,
202.896,2.28912,2.16827,0.696,19.9734,426,5,
202.896,2.28973,2.16675,0.696,19.9734,426,5,
202.896,2.28912,2.17133,0.696,19.9734,426,5,
202.896,2.28912,2.17133,0.696,19.9734,426,5,
202.896,2.28973,2.1698,0.696,19.9734,426,5,
202.896,2.28943,2.16675,0.696,19.9734,426,5,
202.896,2.28912,2.17133,0.696,19.9734,426,5,
202.896,2.28943,2.1698,0.696,19.9734,426,5,
202.896,2.28882,2.16675,0.696,19.9734,426,5,
202.896,2.28943,2.16827,0.696,19.9734,426,5,
202.896,2.29004,2.17133,0.696,19.9734,426,5,
202.896,2.28943,2.17133,0.696,19.9734,426,5,
202.896,2.28882,2.16827,0.696,19.9734,426,5,
202.896,2.28943,2.1698,0.696,19.9734,426,5,
202.896,2.28943,2.1698,0.696,19.9734,426,5,
202.896,2.29004,2.16827,0.696,19.9734,426,5,
202.896,2.28912,2.1698,0.696,19.9734,426,5,
202.896,2.28943,2.16827,0.696,19.9734,426,5,
202.896,2.28882,2.16827,0.696,19.9734,426,5,
202.896,2.28943,2.1698,0.696,19.9734,426,5,
202.896,2.28943,2.16827,0.696,19.9734,426,5,
202.896,2.28912,2.1698,0.696,19.9734,426,5,
202.896,2.28912,2.16827,0.696,19.9734,426,5,
202.896,2.28943,2.1698,0.696,19.9734,426,5,
202.897,2.28882,2.1698,0.696,19.9734,426,5,
202.897,2.28943,2.16827,0.696,19.9734,426,5,
202.897,2.28882,2.1698,0.696,19.9734,426,5,
202.897,2.28912,2.1698,0.696,19.9734,426,5,
202.897,2.28882,2.17133,0.696,19.9734,426,5,
202.897,2.28882,2.16827,0.696,19.9734,426,5,
202.897,2.28943,2.17285,0.696,19.9734,426,5,
202.897,2.28912,2.16827,0.696,19.9734,426,5,
202.897,2.28912,2.16675,0.696,19.9734,426,5,
202.897,2.28973,2.16827,0.696,19.9734,426,5,
202.897,2.28882,2.17133,0.696,19.9734,426,5,
202.897,2.28973,2.1698,0.696,19.9734,426,5,
202.897,2.28882,2.17133,0.696,19.9734,426,5,
202.897,2.28882,2.16827,0.696,19.9734,426,5,
202.897,2.28943,2.1698,0.696,19.9734,426,5,
202.897,2.28882,2.16827,0.696,19.9734,426,5,
202.897,2.28851,2.16522,0.696,19.9734,426,5,
202.897,2.28912,2.16675,0.696,19.9734,426,5,
202.897,2.28943,2.16675,0.696,19.9734,426,5,
202.897,2.28973,2.17133,0.696,19.9734,426,5,
202.897,2.28943,2.17438,0.696,19.9734,426,5,
202.897,2.28943,2.17133,0.696,19.9734,426,5,
202.897,2.28943,2.16827,0.696,19.9734,426,5,
202.897,2.28943,2.1698,0.696,19.9734,426,5,
202.897,2.28943,2.1698,0.696,19.9734,426,5,
202.897,2.28943,2.16827,0.696,19.9734,426,5,
202.897,2.28973,2.16675,0.696,19.9734,426,5,
202.897,2.28973,2.16827,0.696,19.9734,426,5,
202.897,2.28943,2.16675,0.696,19.9734,426,5,
202.897,2.28943,2.17438,0.696,19.9734,426,5,
202.898,2.28912,2.16522,0.696,19.9734,426,5,
202.898,2.28943,2.16827,0.696,19.9734,426,5,
202.898,2.29004,2.16827,0.696,19.9734,426,5,
202.898,2.28912,2.16827,0.696,19.9734,426,5,
202.898,2.28943,2.1698,0.696,19.9734,426,5,
202.898,2.28912,2.16522,0.696,19.9734,426,5,
202.898,2.29462,2.16827,0.696,19.9734,426,5,
202.898,2.29431,2.16827,0.696,19.9734,426,5,
202.898,2.29431,2.1698,0.696,19.9734,426,5,
202.898,2.29462,2.17285,0.696,19.9734,426,5,
202.898,2.29401,2.1698,0.696,19.9734,426,5,
202.898,2.29492,2.16827,0.696,19.9734,426,5,
202.898,2.29462,2.16827,0.696,19.9734,426,5,
202.898,2.29462,2.1698,0.696,19.9734,426,5,
202.898,2.29462,2.17285,0.696,19.9734,426,5,
202.898,2.29431,2.1698,0.696,19.9734,426,5,
202.898,2.29492,2.17133,0.696,19.9734,426,5,
202.898,2.29492,2.16827,0.696,19.9734,426,5,
202.898,2.29401,2.16827,0.696,19.9734,426,5,
202.898,2.2937,2.1698,0.696,19.9734,426,5,
202.898,2.29492,2.1698,0.696,19.9734,426,5,
202.898,2.2937,2.16827,0.696,19.9734,426,5,
202.898,2.2937,2.16675,0.696,19.9734,426,5,
202.898,2.29431,2.16827,0.696,19.9734,426,5,
202.898,2.29462,2.1698,0.696,19.9734,426,5,
202.898,2.29431,2.1698,0.696,19.9734,426,5,
202.898,2.29492,2.16827,0.696,19.9734,426,5,
202.898,2.29431,2.16675,0.696,19.9734,426,5,
202.898,2.29401,2.16675,0.696,19.9734,426,5,
202.898,2.29431,2.1698,0.696,19.9734,426,5,
202.899,2.29462,2.16827,0.696,19.9734,426,5,
202.899,2.29431,2.17133,0.696,19.9734,426,5,
202.899,2.29401,2.16675,0.696,19.9734,426,5,
202.899,2.29492,2.16827,0.696,19.9734,426,5,
202.899,2.2937,2.1698,0.696,19.9734,426,5,
202.899,2.2937,2.17133,0.696,19.9734,426,5,
202.899,2.29431,2.1698,0.696,19.9734,426,5,
202.899,2.29431,2.17133,0.696,19.9734,426,5,
202.899,2.29492,2.16827,0.696,19.9734,426,5,
202.899,2.29462,2.1698,0.696,19.9734,426,5,
202.899,2.2937,2.16675,0.696,19.9734,426,5,
202.899,2.29401,2.16827,0.696,19.9734,426,5,
202.899,2.29431,2.16827,0.696,19.9734,426,5,
202.899,2.29889,2.16827,0.696,19.9734,426,5,
202.899,2.29889,2.1698,0.696,19.9734,426,5,
202.899,2.29889,2.1698,0.696,19.9734,426,5,
202.899,2.29919,2.16827,0.696,19.9734,426,5,
202.899,2.2998,2.17133,0.696,19.9734,426,5,
202.899,2.29889,2.1698,0.696,19.9734,426,5,
202.899,2.29889,2.16827,0.696,19.9734,426,5,
202.899,2.2998,2.16827,0.696,19.9734,426,5,
202.899,2.29919,2.17133,0.696,19.9734,426,5,
202.899,2.2998,2.16675,0.696,19.9734,426,5,
202.899,2.2998,2.16675,0.696,19.9734,426,5,
202.899,2.2995,2.16827,0.696,19.9734,426,5,
202.899,2.29828,2.16675,0.696,19.9734,426,5,
202.899,2.2995,2.17133,0.696,19.9734,426,5,
202.899,2.2995,2.1698,0.696,19.9734,426,5,
202.899,2.29919,2.17133,0.696,19.9734,426,5,
202.899,2.29858,2.17133,0.696,19.9734,426,5,
202.899,2.29889,2.1698,0.696,19.9734,426,5,
202.9,2.29919,2.16827,0.696,19.9734,426,5,
202.9,2.29919,2.1698,0.696,19.9734,426,5,
202.9,2.29858,2.16827,0.696,19.9734,426,5,
202.9,2.29889,2.16827,0.696,19.9734,426,5,
202.9,2.2998,2.16675,0.696,19.9734,426,5,
202.9,2.29919,2.1698,0.696,19.9734,426,5,
202.9,2.2995,2.16827,0.696,19.9734,426,5,
202.9,2.29858,2.16827,0.696,19.9734,426,5,
202.9,2.29889,2.1698,0.696,19.9734,426,5,
202.9,2.29919,2.1698,0.696,19.9734,426,5,
202.9,2.29919,2.16827,0.696,19.9734,426,5,
202.9,2.29858,2.17133,0.696,19.9734,426,5,
202.9,2.29858,2.1698,0.696,19.9734,426,5,
202.9,2.2995,2.16827,0.696,19.9734,426,5,
202.9,2.2998,2.16522,0.696,19.9734,426,5,
202.9,2.30408,2.1698,0.696,19.9734,426,5,
202.9,2.30438,2.17133,0.696,19.9734,426,5,
202.9,2.30408,2.1698,0.696,19.9734,426,5,
202.9,2.30377,2.16675,0.696,19.9734,426,5,
202.9,2.30347,2.17133,0.696,19.9734,426,5,
202.9,2.30377,2.16827,0.696,19.9734,426,5,
202.9,2.30469,2.16675,0.696,19.9734,426,5,
202.9,2.30316,2.1698,0.696,19.9734,426,5,
202.9,2.30316,2.16675,0.696,19.9734,426,5,
202.9,2.30438,2.17285,0.696,19.9734,426,5,
202.9,2.30377,2.1698,0.696,19.9734,426,5,
202.9,2.30438,2.16827,0.696,19.9734,426,5,
202.9,2.30438,2.1698,0.696,19.9734,426,5,
202.9,2.30499,2.16827,0.696,19.9734,426,5,
202.9,2.30469,2.17133,0.696,19.9734,426,5,
202.901,2.30377,2.1698,0.696,19.9734,426,5,
202.901,2.30499,2.1698,0.696,19.9734,426,5,
202.901,2.30469,2.1698,0.696,19.9734,426,5,
202.901,2.30469,2.1698,0.696,19.9734,426,5,
202.901,2.30469,2.17133,0.696,19.9734,426,5,
202.901,2.30469,2.16827,0.696,19.9734,426,5,
202.901,2.30469,2.1698,0.696,19.9734,426,5,
202.901,2.30377,2.17285,0.696,19.9734,426,5,
202.901,2.30377,2.1698,0.696,19.9734,426,5,
202.901,2.30377,2.1698,0.696,19.9734,426,5,
202.901,2.30438,2.1698,0.696,19.9734,426,5,
202.901,2.30438,2.16675,0.696,19.9734,426,5,
202.901,2.30438,2.16675,0.696,19.9734,426,5,
202.901,2.30377,2.16675,0.696,19.9734,426,5,
202.901,2.30377,2.16675,0.696,19.9734,426,5,
202.901,2.30408,2.16675,0.696,19.9734,426,5,
202.901,2.30347,2.17133,0.696,19.9734,426,5,
202.901,2.30408,2.16827,0.696,19.9734,426,5,
202.901,2.30865,2.17285,0.696,19.9734,426,5,
202.901,2.30865,2.16827,0.696,19.9734,426,5,
202.901,2.30927,2.16827,0.696,19.9734,426,5,
202.901,2.30896,2.16827,0.696,19.9734,426,5,
202.901,2.30896,2.16827,0.696,19.9734,426,5,
202.901,2.30896,2.16827,0.696,19.9734,426,5,
202.901,2.30865,2.17133,0.696,19.9734,426,5,
202.901,2.30835,2.16827,0.696,19.9734,426,5,
202.901,2.30896,2.16675,0.696,19.9734,426,5,
202.901,2.30927,2.1698,0.696,19.9734,426,5,
202.901,2.30835,2.16827,0.696,19.9734,426,5,
202.901,2.30927,2.1698,0.696,19.9734,426,5,
202.902,2.30896,2.1698,0.696,19.9734,426,5,
202.902,2.30896,2.17133,0.696,19.9734,426,5,
202.902,2.30896,2.16827,0.696,19.9734,426,5,
202.902,2.30896,2.1698,0.696,19.9734,426,5,
202.902,2.30896,2.16675,0.696,19.9734,426,5,
202.902,2.30896,2.16827,0.696,19.9734,426,5,
202.902,2.30927,2.1698,0.696,19.9734,426,5,
202.902,2.30896,2.16827,0.696,19.9734,426,5,
202.902,2.30927,2.1698,0.696,19.9734,426,5,
202.902,2.30896,2.17133,0.696,19.9734,426,5,
202.902,2.30896,2.16827,0.696,19.9734,426,5,
202.902,2.30927,2.16827,0.696,19.9734,426,5,
202.902,2.30865,2.16827,0.696,19.9734,426,5,
202.902,2.30865,2.1698,0.696,19.9734,426,5,
202.902,2.30896,2.1698,0.696,19.9734,426,5,
202.902,2.30927,2.17133,0.696,19.9734,426,5,
202.902,2.30865,2.16675,0.696,19.9734,426,5,
202.902,2.30865,2.16827,0.696,19.9734,426,5,
202.902,2.30927,2.1698,0.696,19.9734,426,5,
202.902,2.30896,2.16827,0.696,19.9734,426,5,
202.902,2.30957,2.17133,0.696,19.9734,426,5,
202.902,2.31384,2.1698,0.696,19.9734,426,5,
202.902,2.31354,2.16675,0.696,19.9734,426,5,
202.902,2.31354,2.16675,0.696,19.9734,426,5,
202.902,2.31384,2.16827,0.696,19.9734,426,5,
202.902,2.31445,2.1698,0.696,19.9734,426,5,
202.902,2.31354,2.1698,0.696,19.9734,426,5,
202.902,2.31445,2.1698,0.696,19.9734,426,5,
202.902,2.31354,2.1698,0.696,19.9734,426,5,
202.903,2.31354,2.1698,0.696,19.9734,426,5,
202.903,2.31415,2.1698,0.696,19.9734,426,5,
202.903,2.31354,2.1698,0.696,19.9734,426,5,
202.903,2.31323,2.1698,0.696,19.9734,426,5,
202.903,2.31384,2.17133,0.696,19.9734,426,5,
202.903,2.31445,2.1698,0.696,19.9734,426,5,
202.903,2.31415,2.17133,0.696,19.9734,426,5,
202.903,2.31415,2.1698,0.696,19.9734,426,5,
202.903,2.31384,2.1698,0.696,19.9734,426,5,
202.903,2.31354,2.17285,0.696,19.9734,426,5,
202.903,2.31445,2.17133,0.696,19.9734,426,5,
202.903,2.31445,2.17133,0.696,19.9734,426,5,
202.903,2.31415,2.1698,0.696,19.9734,426,5,
202.903,2.31354,2.16827,0.696,19.9734,426,5,
202.903,2.31445,2.16827,0.696,19.9734,426,5,
202.903,2.31445,2.17133,0.696,19.9734,426,5,
202.903,2.31384,2.17133,0.696,19.9734,426,5,
202.903,2.31476,2.16827,0.696,19.9734,426,5,
202.903,2.31476,2.16675,0.696,19.9734,426,5,
202.903,2.31476,2.17133,0.696,19.9734,426,5,
202.903,2.31415,2.16827,0.696,19.9734,426,5,
202.903,2.31415,2.16675,0.696,19.9734,426,5,
202.903,2.31476,2.16675,0.696,19.9734,426,5,
202.903,2.31415,2.17285,0.696,19.9734,426,5,
202.903,2.31873,2.1698,0.696,19.9734,426,5,
202.903,2.31903,2.17438,0.696,19.9734,426,5,
202.903,2.31903,2.17133,0.696,19.9734,426,5,
202.903,2.31873,2.17133,0.696,19.9734,426,5,
202.903,2.31934,2.16827,0.696,19.9734,426,5,
202.903,2.31873,2.17133,0.696,19.9734,426,5,
202.904,2.31873,2.16827,0.696,19.9734,426,5,
202.904,2.31873,2.1698,0.696,19.9734,426,5,
202.904,2.31873,2.17133,0.696,19.9734,426,5,
202.904,2.31812,2.17133,0.696,19.9734,426,5,
202.904,2.31842,2.17438,0.696,19.9734,426,5,
202.904,2.31903,2.1698,0.696,19.9734,426,5,
202.904,2.31903,2.1698,0.696,19.9734,426,5,
202.904,2.31812,2.16675,0.696,19.9734,426,5,
202.904,2.31903,2.16827,0.696,19.9734,426,5,
202.904,2.31812,2.1698,0.696,19.9734,426,5,
202.904,2.31903,2.16827,0.696,19.9734,426,5,
202.904,2.31812,2.1698,0.696,19.9734,426,5,
202.904,2.31903,2.1698,0.696,19.9734,426,5,
202.904,2.31842,2.1698,0.696,19.9734,426,5,
202.904,2.31934,2.16827,0.696,19.9734,426,5,
202.904,2.31842,2.1698,0.696,19.9734,426,5,
202.904,2.31873,2.16675,0.696,19.9734,426,5,
202.904,2.31903,2.17285,0.696,19.9734,426,5,
202.904,2.31903,2.17133,0.696,19.9734,426,5,
202.904,2.31934,2.17133,0.696,19.9734,426,5,
202.904,2.32391,2.16827,0.696,19.9734,426,5,
202.904,2.32361,2.17285,0.696,19.9734,426,5,
202.904,2.32361,2.16675,0.696,19.9734,426,5,
202.904,2.32361,2.16827,0.696,19.9734,426,5,
202.904,2.32391,2.16522,0.696,19.9734,426,5,
202.904,2.3233,2.16827,0.696,19.9734,426,5,
202.904,2.32361,2.1698,0.696,19.9734,426,5,
202.904,2.3233,2.16827,0.696,19.9734,426,5,
202.904,2.3233,2.16675,0.696,19.9734,426,5,
202.904,2.323,2.16827,0.696,19.9734,426,5,
202.905,2.32361,2.17133,0.696,19.9734,426,5,
202.905,2.32422,2.16827,0.696,19.9734,426,5,
202.905,2.3233,2.1698,0.696,19.9734,426,5,
202.905,2.32361,2.16827,0.696,19.9734,426,5,
202.905,2.32391,2.1698,0.696,19.9734,426,5,
202.905,2.32391,2.1698,0.696,19.9734,426,5,
202.905,2.323,2.16827,0.696,19.9734,426,5,
202.905,2.32361,2.16522,0.696,19.9734,426,5,
202.905,2.323,2.1698,0.696,19.9734,426,5,
202.905,2.32666,2.16522,0.696,19.9734,426,5,
202.905,2.32849,2.16522,0.696,19.9734,426,5,
202.905,2.32849,2.16827,0.696,19.9734,426,5,
202.905,2.32849,2.17133,0.696,19.9734,426,5,
202.905,2.32819,2.17285,0.696,19.9734,426,5,
202.905,2.3288,2.16675,0.696,19.9734,426,5,
202.905,2.32849,2.16827,0.696,19.9734,426,5,
202.905,2.32849,2.1698,0.696,19.9734,426,5,
202.905,2.32819,2.17133,0.696,19.9734,426,5,
202.905,2.32819,2.1698,0.696,19.9734,426,5,
202.905,2.32941,2.16827,0.696,19.9734,426,5,
202.905,2.32788,2.1698,0.696,19.9734,426,5,
202.905,2.32819,2.17133,0.696,19.9734,426,5,
202.905,2.3288,2.17133,0.696,19.9734,426,5,
202.905,2.32788,2.17133,0.696,19.9734,426,5,
202.905,2.32849,2.1698,0.696,19.9734,426,5,
202.905,2.33337,2.16827,0.696,19.9734,426,5,
202.905,2.33307,2.1698,0.696,19.9734,426,5,
202.905,2.33337,2.1698,0.696,19.9734,426,5,
202.905,2.33337,2.16827,0.696,19.9734,426,5,
202.905,2.33307,2.16675,0.696,19.9734,426,5,
202.905,2.33398,2.1698,0.696,19.9734,426,5,
202.906,2.33246,2.16827,0.696,19.9734,426,5,
202.906,2.33337,2.16827,0.696,19.9734,426,5,
202.906,2.33368,2.16827,0.696,19.9734,426,5,
202.906,2.33307,2.1698,0.696,19.9734,426,5,
202.906,2.33307,2.16827,0.696,19.9734,426,5,
202.906,2.33398,2.16675,0.696,19.9734,426,5,
202.906,2.33337,2.16827,0.696,19.9734,426,5,
202.906,2.33826,2.1698,0.696,19.9734,426,5,
202.906,2.33826,2.16827,0.696,19.9734,426,5,
202.906,2.33826,2.16827,0.696,19.9734,426,5,
202.906,2.33887,2.1698,0.696,19.9734,426,5,
202.906,2.33765,2.1698,0.696,19.9734,426,5,
202.906,2.33887,2.1698,0.696,19.9734,426,5,
202.906,2.33765,2.17133,0.696,19.9734,426,5,
202.906,2.33795,2.1698,0.696,19.9734,426,5,
202.906,2.33887,2.16675,0.696,19.9734,426,5,
202.906,2.33856,2.16827,0.696,19.9734,426,5,
202.906,2.33887,2.16827,0.696,19.9734,426,5,
202.906,2.34314,2.17133,0.696,19.9734,426,5,
202.906,2.34283,2.16827,0.696,19.9734,426,5,
202.906,2.34375,2.16827,0.696,19.9734,426,5,
202.906,2.34344,2.17133,0.696,19.9734,426,5,
202.906,2.34344,2.16675,0.696,19.9734,426,5,
202.906,2.34344,2.16522,0.696,19.9734,426,5,
202.906,2.34344,2.16827,0.696,19.9734,426,5,
202.906,2.34253,2.1698,0.696,19.9734,426,5,
202.906,2.34344,2.17285,0.696,19.9734,426,5,
202.906,2.34863,2.1698,0.696,19.9734,426,5,
202.906,2.34802,2.16675,0.696,19.9734,426,5,
202.906,2.34741,2.16827,0.696,19.9734,426,5,
202.907,2.34741,2.17133,0.696,19.9734,426,5,
202.907,2.34802,2.1698,0.696,19.9734,426,5,
202.907,2.34772,2.1698,0.696,19.9734,426,5,
202.907,2.34741,2.1698,0.696,19.9734,426,5,
202.907,2.34863,2.16827,0.696,19.9734,426,5,
202.907,2.35229,2.1698,0.696,19.9734,426,5,
202.907,2.35291,2.16827,0.696,19.9734,426,5,
202.907,2.35352,2.17133,0.696,19.9734,426,5,
202.907,2.3526,2.16827,0.696,19.9734,426,5,
202.907,2.35291,2.1698,0.696,19.9734,426,5,
202.907,2.3526,2.1698,0.696,19.9734,426,5,
202.907,2.3526,2.17133,0.696,19.9734,426,5,
202.907,2.35321,2.16827,0.696,19.9734,426,5,
202.907,2.3584,2.1698,0.696,19.9734,426,5,
202.907,2.35809,2.1698,0.696,19.9734,426,5,
202.907,2.35718,2.17133,0.696,19.9734,426,5,
202.907,2.35779,2.16675,0.696,19.9734,426,5,
202.907,2.35779,2.16827,0.696,19.9734,426,5,
202.907,2.35748,2.17285,0.696,19.9734,426,5,
202.907,2.3584,2.16827,0.696,19.9734,426,5,
202.907,2.36267,2.16675,0.696,19.9734,426,5,
202.907,2.36237,2.17133,0.696,19.9734,426,5,
202.907,2.36237,2.1698,0.696,19.9734,426,5,
202.907,2.36267,2.1698,0.696,19.9734,426,5,
202.907,2.36237,2.17133,0.696,19.9734,426,5,
202.907,2.36298,2.16827,0.696,19.9734,426,5,
202.907,2.36694,2.16522,0.696,19.9734,426,5,
202.907,2.36755,2.16827,0.696,19.9734,426,5,
202.907,2.36725,2.1698,0.696,19.9734,426,5,
202.907,2.36786,2.1698,0.696,19.9734,426,5,
202.908,2.36755,2.17285,0.696,19.9734,426,5,
202.908,2.36725,2.17133,0.696,19.9734,426,5,
202.908,2.37091,2.17133,0.696,19.9734,426,5,
202.908,2.37213,2.17133,0.696,19.9734,426,5,
202.908,2.37274,2.1698,0.696,19.9734,426,5,
202.908,2.37213,2.1698,0.696,19.9734,426,5,
202.908,2.37213,2.1698,0.696,19.9734,426,5,
202.908,2.37152,2.1698,0.696,19.9734,426,5,
202.908,2.37579,2.16827,0.696,19.9734,426,5,
202.908,2.37762,2.16827,0.696,19.9734,426,5,
202.908,2.37701,2.16827,0.696,19.9734,426,5,
202.908,2.37762,2.16827,0.696,19.9734,426,5,
202.908,2.37762,2.16827,0.696,19.9734,426,5,
202.908,2.37762,2.1698,0.696,19.9734,426,5,
202.908,2.3822,2.1698,0.696,19.9734,426,5,
202.908,2.3822,2.1698,0.696,19.9734,426,5,
202.908,2.3822,2.1698,0.696,19.9734,426,5,
202.908,2.38251,2.16827,0.696,19.9734,426,5,
202.908,2.38373,2.16827,0.696,19.9734,426,5,
202.908,2.38281,2.1698,0.696,19.9734,426,5,
202.908,2.38647,2.16827,0.696,19.9734,426,5,
202.908,2.3877,2.16827,0.696,19.9734,426,5,
202.908,2.3877,2.16827,0.696,19.9734,426,5,
202.908,2.38678,2.16827,0.696,19.9734,426,5,
202.908,2.3877,2.16827,0.696,19.9734,426,5,
202.908,2.39197,2.17133,0.696,19.9734,426,5,
202.908,2.39288,2.17285,0.696,19.9734,426,5,
202.908,2.39197,2.1698,0.696,19.9734,426,5,
202.908,2.39227,2.17133,0.696,19.9734,426,5,
202.909,2.39258,2.17133,0.696,19.9734,426,5,
202.909,2.39166,2.1698,0.696,19.9734,426,5,
202.909,2.39685,2.17285,0.696,19.9734,426,5,
202.909,2.39746,2.1698,0.696,19.9734,426,5,
202.909,2.39807,2.17133,0.696,19.9734,426,5,
202.909,2.39716,2.16827,0.696,19.9734,426,5,
202.909,2.39655,2.1698,0.696,19.9734,426,5,
202.909,2.40173,2.1698,0.696,19.9734,426,5,
202.909,2.40265,2.1698,0.696,19.9734,426,5,
202.909,2.40112,2.17285,0.696,19.9734,426,5,
202.909,2.40204,2.17133,0.696,19.9734,426,5,
202.909,2.40234,2.17285,0.696,19.9734,426,5,
202.909,2.40753,2.1698,0.696,19.9734,426,5,
202.909,2.40662,2.17133,0.696,19.9734,426,5,
202.909,2.40631,2.1698,0.696,19.9734,426,5,
202.909,2.40631,2.1698,0.696,19.9734,426,5,
202.909,2.40753,2.1698,0.696,19.9734,426,5,
202.909,2.41119,2.17133,0.696,19.9734,426,5,
202.909,2.4118,2.1698,0.696,19.9734,426,5,
202.909,2.41211,2.16675,0.696,19.9734,426,5,
202.909,2.41211,2.17285,0.696,19.9734,426,5,
202.909,2.4118,2.17285,0.696,19.9734,426,5,
202.909,2.41669,2.16827,0.696,19.9734,426,5,
202.909,2.41699,2.1698,0.696,19.9734,426,5,
202.909,2.4173,2.16522,0.696,19.9734,426,5,
202.909,2.41699,2.17285,0.696,19.9734,426,5,
202.909,2.42004,2.17133,0.696,19.9734,426,5,
202.909,2.42126,2.17133,0.696,19.9734,426,5,
202.909,2.42188,2.16675,0.696,19.9734,426,5,
202.909,2.42188,2.1698,0.696,19.9734,426,5,
202.91,2.42218,2.16827,0.696,19.9734,426,5,
202.91,2.42706,2.17133,0.696,19.9734,426,5,
202.91,2.42706,2.16827,0.696,19.9734,426,5,
202.91,2.42645,2.16827,0.696,19.9734,426,5,
202.91,2.42706,2.16675,0.696,19.9734,426,5,
202.91,2.4292,2.1698,0.696,19.9734,426,5,
202.91,2.43164,2.16827,0.696,19.9734,426,5,
202.91,2.43103,2.1698,0.696,19.9734,426,5,
202.91,2.43103,2.1698,0.696,19.9734,426,5,
202.91,2.43164,2.17285,0.696,19.9734,426,5,
202.91,2.43591,2.1698,0.696,19.9734,426,5,
202.91,2.43652,2.17133,0.696,19.9734,426,5,
202.91,2.43652,2.1698,0.696,19.9734,426,5,
202.91,2.43591,2.16827,0.696,19.9734,426,5,
202.91,2.44141,2.17285,0.696,19.9734,426,5,
202.91,2.44171,2.17133,0.696,19.9734,426,5,
202.91,2.44141,2.17133,0.696,19.9734,426,5,
202.91,2.44141,2.16827,0.696,19.9734,426,5,
202.91,2.44629,2.17133,0.696,19.9734,426,5,
202.91,2.44659,2.17285,0.696,19.9734,426,5,
202.91,2.44659,2.17133,0.696,19.9734,426,5,
202.91,2.44568,2.16827,0.696,19.9734,426,5,
202.91,2.45056,2.1698,0.696,19.9734,426,5,
202.91,2.45178,2.16675,0.696,19.9734,426,5,
202.91,2.45087,2.16827,0.696,19.9734,426,5,
202.91,2.45117,2.1698,0.696,19.9734,426,5,
202.91,2.45544,2.1698,0.696,19.9734,426,5,
202.91,2.45636,2.16827,0.696,19.9734,426,5,
202.91,2.45605,2.16827,0.696,19.9734,426,5,
202.91,2.45605,2.17133,0.696,19.9734,426,5,
202.911,2.46124,2.1698,0.696,19.9734,426,5,
202.911,2.46124,2.17285,0.696,19.9734,426,5,
202.911,2.46094,2.17285,0.696,19.9734,426,5,
202.911,2.46063,2.16827,0.696,19.9734,426,5,
202.911,2.46552,2.17133,0.696,19.9734,426,5,
202.911,2.46582,2.17285,0.696,19.9734,426,5,
202.911,2.46613,2.1698,0.696,19.9734,426,5,
202.911,2.46643,2.16827,0.696,19.9734,426,5,
202.911,2.47162,2.16827,0.696,19.9734,426,5,
202.911,2.47162,2.17133,0.696,19.9734,426,5,
202.911,2.47131,2.16827,0.696,19.9734,426,5,
202.911,2.47406,2.1698,0.696,19.9734,426,5,
202.911,2.47589,2.17133,0.696,19.9734,426,5,
202.911,2.47559,2.16522,0.696,19.9734,426,5,
202.911,2.47498,2.16675,0.696,19.9734,426,5,
202.911,2.48016,2.16827,0.696,19.9734,426,5,
202.911,2.48047,2.17133,0.696,19.9734,426,5,
202.911,2.48108,2.1698,0.696,19.9734,426,5,
202.911,2.48383,2.1698,0.696,19.9734,426,5,
202.911,2.48566,2.1698,0.696,19.9734,426,5,
202.911,2.48505,2.16827,0.696,19.9734,426,5,
202.911,2.48566,2.16827,0.696,19.9734,426,5,
202.911,2.49084,2.1698,0.696,19.9734,426,5,
202.911,2.49084,2.16827,0.696,19.9734,426,5,
202.911,2.49023,2.16827,0.696,19.9734,426,5,
202.911,2.49298,2.17133,0.696,19.9734,426,5,
202.911,2.49603,2.16827,0.696,19.9734,426,5,
202.911,2.49481,2.1698,0.696,19.9734,426,5,
202.911,2.49512,2.17133,0.696,19.9734,426,5,
202.911,2.49969,2.17133,0.696,19.9734,426,5,
202.911,2.50061,2.17285,0.696,19.9734,426,5,
202.912,2.5,2.16827,0.696,19.9734,426,5,
202.912,2.50427,2.17285,0.696,19.9734,426,5,
202.912,2.50488,2.16827,0.696,19.9734,426,5,
202.912,2.50488,2.17438,0.696,19.9734,426,5,
202.912,2.51007,2.1698,0.696,19.9734,426,5,
202.912,2.51007,2.16827,0.696,19.9734,426,5,
202.912,2.50946,2.17133,0.696,19.9734,426,5,
202.912,2.51434,2.1698,0.696,19.9734,426,5,
202.912,2.51495,2.1698,0.696,19.9734,426,5,
202.912,2.51495,2.1698,0.696,19.9734,426,5,
202.912,2.51923,2.17133,0.696,19.9734,426,5,
202.912,2.51984,2.16522,0.696,19.9734,426,5,
202.912,2.51953,2.17133,0.696,19.9734,426,5,
202.912,2.5235,2.1698,0.696,19.9734,426,5,
202.912,2.52533,2.16827,0.696,19.9734,426,5,
202.912,2.52502,2.1698,0.696,19.9734,426,5,
202.912,2.52869,2.1698,0.696,19.9734,426,5,
202.912,2.52991,2.16827,0.696,19.9734,426,5,
202.912,2.5293,2.1698,0.696,19.9734,426,5,
202.912,2.53448,2.17133,0.696,19.9734,426,5,
202.912,2.53479,2.17133,0.696,19.9734,426,5,
202.912,2.53479,2.16827,0.696,19.9734,426,5,
202.912,2.53937,2.17133,0.696,19.9734,426,5,
202.912,2.53937,2.1698,0.696,19.9734,426,5,
202.912,2.53937,2.1698,0.696,19.9734,426,5,
202.912,2.54425,2.17133,0.696,19.9734,426,5,
202.912,2.54333,2.1698,0.696,19.9734,426,5,
202.912,2.54425,2.16827,0.696,19.9734,426,5,
202.912,2.54974,2.17285,0.696,19.9734,426,5,
202.912,2.54944,2.16827,0.696,19.9734,426,5,
202.913,2.54974,2.1698,0.696,19.9734,426,5,
202.913,2.55493,2.17133,0.696,19.9734,426,5,
202.913,2.55493,2.1698,0.696,19.9734,426,5,
202.913,2.55768,2.16675,0.696,19.9734,426,5,
202.913,2.55951,2.16827,0.696,19.9734,426,5,
202.913,2.55981,2.16827,0.696,19.9734,426,5,
202.913,2.56409,2.16827,0.696,19.9734,426,5,
202.913,2.56439,2.17285,0.696,19.9734,426,5,
202.913,2.56378,2.17133,0.696,19.9734,426,5,
202.913,2.56927,2.1698,0.696,19.9734,426,5,
202.913,2.56927,2.17133,0.696,19.9734,426,5,
202.913,2.56897,2.17438,0.696,19.9734,426,5,
202.913,2.57416,2.1698,0.696,19.9734,426,5,
202.913,2.57416,2.16827,0.696,19.9734,426,5,
202.913,2.57355,2.17133,0.696,19.9734,426,5,
202.913,2.57843,2.1698,0.696,19.9734,426,5,
202.913,2.57874,2.16827,0.696,19.9734,426,5,
202.913,2.58087,2.17133,0.696,19.9734,426,5,
202.913,2.58362,2.1698,0.696,19.9734,426,5,
202.913,2.58331,2.1698,0.696,19.9734,426,5,
202.913,2.58728,2.16827,0.696,19.9734,426,5,
202.913,2.5885,2.16827,0.696,19.9734,426,5,
202.913,2.58789,2.1698,0.696,19.9734,426,5,
202.913,2.59308,2.1698,0.696,19.9734,426,5,
202.913,2.59247,2.1698,0.696,19.9734,426,5,
202.913,2.59277,2.16827,0.696,19.9734,426,5,
202.913,2.59766,2.16827,0.696,19.9734,426,5,
202.913,2.59796,2.17133,0.696,19.9734,426,5,
202.913,2.6001,2.1698,0.696,19.9734,426,5,
202.913,2.60223,2.16827,0.696,19.9734,426,5,
202.914,2.60193,2.16675,0.696,19.9734,426,5,
202.914,2.60742,2.17285,0.696,19.9734,426,5,
202.914,2.60803,2.17133,0.696,19.9734,426,5,
202.914,2.60773,2.17133,0.696,19.9734,426,5,
202.914,2.61292,2.16827,0.696,19.9734,426,5,
202.914,2.6123,2.17133,0.696,19.9734,426,5,
202.914,2.61566,2.16827,0.696,19.9734,426,5,
202.914,2.61719,2.1698,0.696,19.9734,426,5,
202.914,2.61719,2.16522,0.696,19.9734,426,5,
202.914,2.62177,2.16675,0.696,19.9734,426,5,
202.914,2.62238,2.17133,0.696,19.9734,426,5,
202.914,2.62177,2.1698,0.696,19.9734,426,5,
202.914,2.62756,2.16827,0.696,19.9734,426,5,
202.914,2.62756,2.1698,0.696,19.9734,426,5,
202.914,2.62756,2.16675,0.696,19.9734,426,5,
202.914,2.63245,2.1698,0.696,19.9734,426,5,
202.914,2.63184,2.1698,0.696,19.9734,426,5,
202.914,2.63672,2.1698,0.696,19.9734,426,5,
202.914,2.63702,2.1698,0.696,19.9734,426,5,
202.914,2.63733,2.17133,0.696,19.9734,426,5,
202.914,2.64252,2.1698,0.696,19.9734,426,5,
202.914,2.64191,2.17133,0.696,19.9734,426,5,
202.914,2.64191,2.16827,0.696,19.9734,426,5,
202.914,2.64709,2.1698,0.696,19.9734,426,5,
202.914,2.64709,2.1698,0.696,19.9734,426,5,
202.914,2.64984,2.16827,0.696,19.9734,426,5,
202.914,2.65198,2.16827,0.696,19.9734,426,5,
202.914,2.65167,2.16827,0.696,19.9734,426,5,
202.914,2.65686,2.16675,0.696,19.9734,426,5,
202.915,2.65656,2.17285,0.696,19.9734,426,5,
202.915,2.65717,2.17133,0.696,19.9734,426,5,
202.915,2.66144,2.17133,0.696,19.9734,426,5,
202.915,2.66205,2.16827,0.696,19.9734,426,5,
202.915,2.66449,2.1698,0.696,19.9734,426,5,
202.915,2.66754,2.16675,0.696,19.9734,426,5,
202.915,2.66602,2.16827,0.696,19.9734,426,5,
202.915,2.67151,2.17133,0.696,19.9734,426,5,
202.915,2.6712,2.1698,0.696,19.9734,426,5,
202.915,2.67273,2.16827,0.696,19.9734,426,5,
202.915,2.67609,2.16827,0.696,19.9734,426,5,
202.915,2.67639,2.17133,0.696,19.9734,426,5,
202.915,2.67975,2.17133,0.696,19.9734,426,5,
202.915,2.68127,2.16827,0.696,19.9734,426,5,
202.915,2.68127,2.1698,0.696,19.9734,426,5,
202.915,2.68524,2.17285,0.696,19.9734,426,5,
202.915,2.68616,2.1698,0.696,19.9734,426,5,
202.915,2.68646,2.16827,0.696,19.9734,426,5,
202.915,2.69104,2.16827,0.696,19.9734,426,5,
202.915,2.69165,2.16827,0.696,19.9734,426,5,
202.915,2.69409,2.17133,0.696,19.9734,426,5,
202.915,2.69592,2.1698,0.696,19.9734,426,5,
202.915,2.69501,2.17285,0.696,19.9734,426,5,
202.915,2.7002,2.1698,0.696,19.9734,426,5,
202.915,2.70081,2.16827,0.696,19.9734,426,5,
202.915,2.70111,2.16675,0.696,19.9734,426,5,
202.915,2.70447,2.16827,0.696,19.9734,426,5,
202.915,2.70569,2.16827,0.696,19.9734,426,5,
202.915,2.70782,2.16827,0.696,19.9734,426,5,
202.915,2.71088,2.17133,0.696,19.9734,426,5,
202.916,2.70966,2.16675,0.696,19.9734,426,5,
202.916,2.71484,2.1698,0.696,19.9734,426,5,
202.916,2.71545,2.1698,0.696,19.9734,426,5,
202.916,2.71515,2.1698,0.696,19.9734,426,5,
202.916,2.72064,2.17133,0.696,19.9734,426,5,
202.916,2.72034,2.16827,0.696,19.9734,426,5,
202.916,2.72339,2.16522,0.696,19.9734,426,5,
202.916,2.72552,2.16827,0.696,19.9734,426,5,
202.916,2.72552,2.1698,0.696,19.9734,426,5,
202.916,2.7301,2.1698,0.696,19.9734,426,5,
202.916,2.73071,2.1698,0.696,19.9734,426,5,
202.916,2.73071,2.16675,0.696,19.9734,426,5,
202.916,2.73499,2.1698,0.696,19.9734,426,5,
202.916,2.73468,2.1698,0.696,19.9734,426,5,
202.916,2.73529,2.16675,0.696,19.9734,426,5,
202.916,2.74048,2.16827,0.696,19.9734,426,5,
202.916,2.73987,2.1698,0.696,19.9734,426,5,
202.916,2.74384,2.1698,0.696,19.9734,426,5,
202.916,2.74506,2.1698,0.696,19.9734,426,5,
202.916,2.74536,2.1698,0.696,19.9734,426,5,
202.916,2.74933,2.1698,0.696,19.9734,426,5,
202.916,2.74963,2.1698,0.696,19.9734,426,5,
202.916,2.75024,2.1698,0.696,19.9734,426,5,
202.916,2.75421,2.1698,0.696,19.9734,426,5,
202.916,2.75452,2.17133,0.696,19.9734,426,5,
202.916,2.75909,2.16827,0.696,19.9734,426,5,
202.916,2.7594,2.17133,0.696,19.9734,426,5,
202.916,2.75909,2.17133,0.696,19.9734,426,5,
202.916,2.76459,2.17285,0.696,19.9734,426,5,
202.916,2.76459,2.16675,0.696,19.9734,426,5,
202.917,2.76459,2.1698,0.696,19.9734,426,5,
202.917,2.76917,2.1698,0.696,19.9734,426,5,
202.917,2.76978,2.16827,0.696,19.9734,426,5,
202.917,2.77252,2.1698,0.696,19.9734,426,5,
202.917,2.77466,2.16827,0.696,19.9734,426,5,
202.917,2.77435,2.17133,0.696,19.9734,426,5,
202.917,2.77924,2.1698,0.696,19.9734,426,5,
202.917,2.77924,2.17133,0.696,19.9734,426,5,
202.917,2.77924,2.1698,0.696,19.9734,426,5,
202.917,2.78412,2.16827,0.696,19.9734,426,5,
202.917,2.78442,2.1698,0.696,19.9734,426,5,
202.917,2.78687,2.1698,0.696,19.9734,426,5,
202.917,2.78961,2.16827,0.696,19.9734,426,5,
202.917,2.78961,2.1698,0.696,19.9734,426,5,
202.917,2.79297,2.1698,0.696,19.9734,426,5,
202.917,2.79449,2.17285,0.696,19.9734,426,5,
202.917,2.79419,2.16675,0.696,19.9734,426,5,
202.917,2.79846,2.17133,0.696,19.9734,426,5,
202.917,2.79968,2.1698,0.696,19.9734,426,5,
202.917,2.80151,2.16522,0.696,19.9734,426,5,
202.917,2.80396,2.1698,0.696,19.9734,426,5,
202.917,2.80426,2.17133,0.696,19.9734,426,5,
202.917,2.80853,2.16827,0.696,19.9734,426,5,
202.917,2.80823,2.1698,0.696,19.9734,426,5,
202.917,2.80853,2.17133,0.696,19.9734,426,5,
202.917,2.81403,2.16827,0.696,19.9734,426,5,
202.917,2.81403,2.1698,0.696,19.9734,426,5,
202.917,2.81372,2.16522,0.696,19.9734,426,5,
202.917,2.8186,2.17133,0.696,19.9734,426,5,
202.917,2.8183,2.16827,0.696,19.9734,426,5,
202.917,2.82166,2.17133,0.696,19.9734,426,5,
202.918,2.82288,2.17285,0.696,19.9734,426,5,
202.918,2.82379,2.17133,0.696,19.9734,426,5,
202.918,2.82562,2.16827,0.696,19.9734,426,5,
202.918,2.82806,2.1698,0.696,19.9734,426,5,
202.918,2.82898,2.1698,0.696,19.9734,426,5,
202.918,2.83234,2.1698,0.696,19.9734,426,5,
202.918,2.83295,2.16827,0.696,19.9734,426,5,
202.918,2.83325,2.16827,0.696,19.9734,426,5,
202.918,2.83813,2.1698,0.696,19.9734,426,5,
202.918,2.83691,2.1698,0.696,19.9734,426,5,
202.918,2.83813,2.17133,0.696,19.9734,426,5,
202.918,2.84271,2.1698,0.696,19.9734,426,5,
202.918,2.84241,2.16827,0.696,19.9734,426,5,
202.918,2.84271,2.1698,0.696,19.9734,426,5,
202.918,2.8479,2.1698,0.696,19.9734,426,5,
202.918,2.8479,2.16675,0.696,19.9734,426,5,
202.918,2.8479,2.16675,0.696,19.9734,426,5,
202.918,2.85309,2.1698,0.696,19.9734,426,5,
202.918,2.85278,2.1698,0.696,19.9734,426,5,
202.918,2.85553,2.1698,0.696,19.9734,426,5,
202.918,2.85736,2.16827,0.696,19.9734,426,5,
202.918,2.85736,2.16827,0.696,19.9734,426,5,
202.918,2.86041,2.16675,0.696,19.9734,426,5,
202.918,2.86224,2.16827,0.696,19.9734,426,5,
202.918,2.86224,2.17133,0.696,19.9734,426,5,
202.918,2.86743,2.1698,0.696,19.9734,426,5,
202.918,2.86804,2.17438,0.696,19.9734,426,5,
202.918,2.86743,2.16827,0.696,19.9734,426,5,
202.918,2.87262,2.1698,0.696,19.9734,426,5,
202.918,2.87323,2.1698,0.696,19.9734,426,5,
202.919,2.87231,2.16675,0.696,19.9734,426,5,
202.919,2.8772,2.17133,0.696,19.9734,426,5,
202.919,2.8772,2.16827,0.696,19.9734,426,5,
202.919,2.8772,2.16827,0.696,19.9734,426,5,
202.919,2.88208,2.16827,0.696,19.9734,426,5,
202.919,2.88239,2.17285,0.696,19.9734,426,5,
202.919,2.88177,2.17133,0.696,19.9734,426,5,
202.919,2.88727,2.16827,0.696,19.9734,426,5,
202.919,2.88666,2.1698,0.696,19.9734,426,5,
202.919,2.88757,2.1698,0.696,19.9734,426,5,
202.919,2.89215,2.1698,0.696,19.9734,426,5,
202.919,2.89185,2.17133,0.696,19.9734,426,5,
202.919,2.89215,2.17285,0.696,19.9734,426,5,
202.919,2.89764,2.1698,0.696,19.9734,426,5,
202.919,2.89642,2.17133,0.696,19.9734,426,5,
202.919,2.89734,2.16827,0.696,19.9734,426,5,
202.919,2.90131,2.17133,0.696,19.9734,426,5,
202.919,2.90222,2.16827,0.696,19.9734,426,5,
202.919,2.90222,2.16827,0.696,19.9734,426,5,
202.919,2.9068,2.17285,0.696,19.9734,426,5,
202.919,2.90649,2.1698,0.696,19.9734,426,5,
202.919,2.9071,2.17285,0.696,19.9734,426,5,
202.919,2.91138,2.1698,0.696,19.9734,426,5,
202.919,2.91107,2.16675,0.696,19.9734,426,5,
202.919,2.91168,2.17133,0.696,19.9734,426,5,
202.919,2.91656,2.1698,0.696,19.9734,426,5,
202.919,2.91687,2.16827,0.696,19.9734,426,5,
202.919,2.91718,2.17133,0.696,19.9734,426,5,
202.919,2.92145,2.1698,0.696,19.9734,426,5,
202.919,2.92236,2.1698,0.696,19.9734,426,5,
202.92,2.92175,2.1698,0.696,19.9734,426,5,
202.92,2.92664,2.17133,0.696,19.9734,426,5,
202.92,2.92633,2.1698,0.696,19.9734,426,5,
202.92,2.92633,2.17133,0.696,19.9734,426,5,
202.92,2.93121,2.1698,0.696,19.9734,426,5,
202.92,2.93182,2.16675,0.696,19.9734,426,5,
202.92,2.93182,2.16827,0.696,19.9734,426,5,
202.92,2.9364,2.1698,0.696,19.9734,426,5,
202.92,2.93671,2.17133,0.696,19.9734,426,5,
202.92,2.93579,2.16827,0.696,19.9734,426,5,
202.92,2.94159,2.17133,0.696,19.9734,426,5,
202.92,2.94067,2.16827,0.696,19.9734,426,5,
202.92,2.94067,2.1698,0.696,19.9734,426,5,
202.92,2.94586,2.17133,0.696,19.9734,426,5,
202.92,2.94586,2.16827,0.696,19.9734,426,5,
202.92,2.94586,2.16827,0.696,19.9734,426,5,
202.92,2.95013,2.1698,0.696,19.9734,426,5,
202.92,2.95105,2.16827,0.696,19.9734,426,5,
202.92,2.95074,2.16827,0.696,19.9734,426,5,
202.92,2.95441,2.1698,0.696,19.9734,426,5,
202.92,2.95593,2.1698,0.696,19.9734,426,5,
202.92,2.95593,2.17133,0,19.9734,426,5,
202.92,2.95898,2.1698,0,19.9734,426,5,
202.92,2.96143,2.17133,0,19.9734,426,5,
202.92,2.96082,2.17285,0,19.9734,426,5,
202.92,2.96112,2.1698,0,19.9734,426,5,
202.92,2.96539,2.16675,0,19.9734,426,5,
202.92,2.9657,2.17133,0,19.9734,426,5,
202.92,2.966,2.17285,0,19.9734,426,5,
202.921,2.97028,2.1698,0,19.9734,426,5,
202.921,2.97058,2.16827,0,19.9734,426,5,
202.921,2.96997,2.16827,0,19.9734,426,5,
202.921,2.97485,2.17133,0,19.9734,426,5,
202.921,2.97577,2.1698,0,19.9734,426,5,
202.921,2.97516,2.16827,0,19.9734,426,5,
202.921,2.98035,2.17133,0,19.9734,426,5,
202.921,2.98065,2.16827,0,19.9734,426,5,
202.921,2.98035,2.1698,0,19.9734,426,5,
202.921,2.98431,2.1698,0,19.9734,426,5,
202.921,2.98553,2.16827,0,19.9734,426,5,
202.921,2.98553,2.1698,0,19.9734,426,5,
202.921,2.98828,2.1698,0,19.9734,426,5,
202.921,2.99011,2.16675,0,19.9734,426,5,
202.921,2.99011,2.17285,0,19.9734,426,5,
202.921,2.98981,2.17133,0,19.9734,426,5,
202.921,2.995,2.17133,0,19.9734,426,5,
202.921,2.995,2.17133,0,19.9734,426,5,
202.921,2.9953,2.16675,0,19.9734,426,5,
202.921,2.99988,2.1698,0,19.9734,426,5,
202.921,3.00018,2.1698,0,19.9734,426,5,
202.921,3.00018,2.1698,0,19.9734,426,5,
202.921,3.00415,2.1698,0,19.9734,426,5,
202.921,3.00446,2.1698,0,19.9734,426,5,
202.921,3.00385,2.1698,0,19.9734,426,5,
202.921,3.00659,2.17133,0,19.9734,426,5,
202.921,3.00964,2.17285,0,19.9734,426,5,
202.921,3.00995,2.1698,0,19.9734,426,5,
202.921,3.00964,2.1698,0,19.9734,426,5,
202.921,3.01483,2.16827,0,19.9734,426,5,
202.922,3.01422,2.1698,0,19.9734,426,5,
202.922,3.01483,2.17438,0,19.9734,426,5,
202.922,3.01941,2.16675,0,19.9734,426,5,
202.922,3.01941,2.16827,0,19.9734,426,5,
202.922,3.02002,2.17133,0,19.9734,426,5,
202.922,3.02277,2.1698,0,19.9734,426,5,
202.922,3.0246,2.16522,0,19.9734,426,5,
202.922,3.02429,2.16675,0,19.9734,426,5,
202.922,3.0246,2.1698,0,19.9734,426,5,
202.922,3.02917,2.17133,0,19.9734,426,5,
202.922,3.02948,2.1698,0,19.9734,426,5,
202.922,3.02917,2.1698,0,19.9734,426,5,
202.922,3.03436,2.17133,0,19.9734,426,5,
202.922,3.03467,2.17133,0,19.9734,426,5,
202.922,3.03436,2.17133,0,19.9734,426,5,
202.922,3.03772,2.1698,0,19.9734,426,5,
202.922,3.04016,2.1698,0,19.9734,426,5,
202.922,3.04016,2.1698,0,19.9734,426,5,
202.922,3.03925,2.1698,0,19.9734,426,5,
202.922,3.04382,2.16675,0,19.9734,426,5,
202.922,3.04443,2.16827,0,19.9734,426,5,
202.922,3.04413,2.17133,0,19.9734,426,5,
202.922,3.04688,2.16827,0,19.9734,426,5,
202.922,3.04871,2.16827,0,19.9734,426,5,
202.922,3.04871,2.16675,0,19.9734,426,5,
202.922,3.04932,2.1698,0,19.9734,426,5,
202.922,3.05328,2.16827,0,19.9734,426,5,
202.922,3.05359,2.1698,0,19.9734,426,5,
202.922,3.05359,2.17133,0,19.9734,426,5,
202.922,3.05817,2.17133,0,19.9734,426,5,
202.923,3.05847,2.16675,0,19.9734,426,5,
202.923,3.05817,2.16675,0,19.9734,426,5,
202.923,3.05908,2.1698,0,19.9734,426,5,
202.923,3.06396,2.17285,0,19.9734,426,5,
202.923,3.06396,2.1698,0,19.9734,426,5,
202.923,3.06305,2.17285,0,19.9734,426,5,
202.923,3.06763,2.1698,0,19.9734,426,5,
202.923,3.06854,2.17133,0,19.9734,426,5,
202.923,3.06793,2.16827,0,19.9734,426,5,
202.923,3.06824,2.17133,0,19.9734,426,5,
202.923,3.07312,2.17285,0,19.9734,426,5,
202.923,3.07312,2.16522,0,19.9734,426,5,
202.923,3.07281,2.16522,0,19.9734,426,5,
202.923,3.07556,2.1698,0,19.9734,426,5,
202.923,3.07831,2.1698,0,19.9734,426,5,
202.923,3.078,2.16827,0,19.9734,426,5,
202.923,3.07831,2.1698,0,19.9734,426,5,
202.923,3.08258,2.17133,0,19.9734,426,5,
202.923,3.0835,2.16827,0,19.9734,426,5,
202.923,3.08319,2.1698,0,19.9734,426,5,
202.923,3.08594,2.17133,0,19.9734,426,5,
202.923,3.08746,2.16827,0,19.9734,426,5,
202.923,3.08777,2.1698,0,19.9734,426,5,
202.923,3.08777,2.17133,0,19.9734,426,5,
202.923,3.09296,2.16827,0,19.9734,426,5,
202.923,3.09387,2.17285,0,19.9734,426,5,
202.923,3.09296,2.17133,0,19.9734,426,5,
202.923,3.09235,2.17133,0,19.9734,426,5,
202.923,3.09814,2.18201,0,19.9734,426,5,
202.923,3.09784,2.17896,0,19.9734,426,5,
202.923,3.09784,2.18048,0,19.9734,426,5,
202.924,3.10272,2.18353,0,19.9734,426,5,
202.924,3.10211,2.18201,0,19.9734,426,5,
202.924,3.10272,2.17896,0,19.9734,426,5,
202.924,3.10272,2.18353,0,19.9734,426,5,
202.924,3.1073,2.18201,0,19.9734,426,5,
202.924,3.10822,2.18048,0,19.9734,426,5,
202.924,3.10791,2.18353,0,19.9734,426,5,
202.924,3.11066,2.18201,0,19.9734,426,5,
202.924,3.11249,2.18048,0,19.9734,426,5,
202.924,3.11249,2.17896,0,19.9734,426,5,
202.924,3.11218,2.18353,0,19.9734,426,5,
202.924,3.11676,2.18201,0,19.9734,426,5,
202.924,3.11707,2.18201,0,19.9734,426,5,
202.924,3.11737,2.17896,0,19.9734,426,5,
202.924,3.11768,2.18353,0,19.9734,426,5,
202.924,3.12195,2.18201,0,19.9734,426,5,
202.924,3.12164,2.18353,0,19.9734,426,5,
202.924,3.12286,2.18201,0,19.9734,426,5,
202.924,3.12256,2.17896,0,19.9734,426,5,
202.924,3.12744,2.17896,0,19.9734,426,5,
202.924,3.12653,2.18201,0,19.9734,426,5,
202.924,3.12683,2.18048,0,19.9734,426,5,
202.924,3.13019,2.18201,0,19.9734,426,5,
202.924,3.13171,2.18201,0,19.9734,426,5,
202.924,3.13202,2.18353,0,19.9734,426,5,
202.924,3.13202,2.18048,0,19.9734,426,5,
202.924,3.1366,2.18048,0,19.9734,426,5,
202.924,3.13721,2.18201,0,19.9734,426,5,
202.924,3.13721,2.18048,0,19.9734,426,5,
202.924,3.13721,2.18048,0,19.9734,426,5,
202.925,3.14178,2.18353,0,19.9734,426,5,
202.925,3.14209,2.18048,0,19.9734,426,5,
202.925,3.14209,2.18353,0,19.9734,426,5,
202.925,3.14209,2.18353,0,19.9734,426,5,
202.925,3.14667,2.18353,0,19.9734,426,5,
202.925,3.14728,2.18201,0,19.9734,426,5,
202.925,3.14667,2.18048,0,19.9734,426,5,
202.925,3.14697,2.18201,0,19.9734,426,5,
202.925,3.15155,2.18506,0,19.9734,426,5,
202.925,3.15186,2.18201,0,19.9734,426,5,
202.925,3.15125,2.17896,0,19.9734,426,5,
202.925,3.15399,2.18201,0,19.9734,426,5,
202.925,3.15613,2.18201,0,19.9734,426,5,
202.925,3.15582,2.18353,0,19.9734,426,5,
202.925,3.15613,2.18048,0,19.9734,426,5,
202.925,3.15918,2.17896,0,19.9734,426,5,
202.925,3.16132,2.18353,0,19.9734,426,5,
202.925,3.16132,2.18353,0,19.9734,426,5,
202.925,3.16132,2.18048,0,19.9734,426,5,
202.925,3.16467,2.17896,0,19.9734,426,5,
202.925,3.1665,2.18201,0,19.9734,426,5,
202.925,3.1662,2.18506,0,19.9734,426,5,
202.925,3.1662,2.18048,0,19.9734,426,5,
202.925,3.16895,2.18201,0,19.9734,426,5,
202.925,3.17078,2.18048,0,19.9734,426,5,
202.925,3.17108,2.18201,0,19.9734,426,5,
202.925,3.17078,2.17896,0,19.9734,426,5,
202.925,3.17383,2.18201,0,19.9734,426,5,
202.925,3.17627,2.17896,0,19.9734,426,5,
202.925,3.17657,2.18048,0,19.9734,426,5,
202.926,3.17566,2.18353,0,19.9734,426,5,
202.926,3.17993,2.18048,0,19.9734,426,5,
202.926,3.18176,2.18201,0,19.9734,426,5,
202.926,3.18085,2.17743,0,19.9734,426,5,
202.926,3.18207,2.18201,0,19.9734,426,5,
202.926,3.18481,2.17743,0,19.9734,426,5,
202.926,3.18573,2.18048,0,19.9734,426,5,
202.926,3.18512,2.18201,0,19.9734,426,5,
202.926,3.18634,2.18048,0,19.9734,426,5,
202.926,3.18604,2.18201,0,19.9734,426,5,
202.926,3.19153,2.18048,0,19.9734,426,5,
202.926,3.19092,2.18048,0,19.9734,426,5,
202.926,3.19122,2.17896,0,19.9734,426,5,
202.926,3.19122,2.17896,0,19.9734,426,5,
202.926,3.1958,2.18201,0,19.9734,426,5,
202.926,3.19641,2.18201,0,19.9734,426,5,
202.926,3.19641,2.18048,0,19.9734,426,5,
202.926,3.1958,2.18201,0,19.9734,426,5,
202.926,3.20038,2.18201,0,19.9734,426,5,
202.926,3.20007,2.18201,0,19.9734,426,5,
202.926,3.20038,2.18201,0,19.9734,426,5,
202.926,3.20099,2.18506,0,19.9734,426,5,
202.926,3.20343,2.18506,0,19.9734,426,5,
202.926,3.20526,2.18048,0,19.9734,426,5,
202.926,3.20526,2.17896,0,19.9734,426,5,
202.926,3.20526,2.18201,0,19.9734,426,5,
202.926,3.20526,2.18201,0,19.9734,426,5,
202.926,3.21014,2.18353,0,19.9734,426,5,
202.926,3.21045,2.18353,0,19.9734,426,5,
202.927,3.21014,2.17896,0,19.9734,426,5,
202.927,3.21045,2.17896,0,19.9734,426,5,
202.927,3.21503,2.18506,0,19.9734,426,5,
202.927,3.21564,2.18048,0,19.9734,426,5,
202.927,3.21533,2.18048,0,19.9734,426,5,
202.927,3.21533,2.18201,0,19.9734,426,5,
202.927,3.21533,2.18201,0,19.9734,426,5,
202.927,3.22052,2.18353,0,19.9734,426,5,
202.927,3.22021,2.18201,0,19.9734,426,5,
202.927,3.21991,2.17896,0,19.9734,426,5,
202.927,3.22021,2.18201,0,19.9734,426,5,
202.927,3.22479,2.17743,0,19.9734,426,5,
202.927,3.2251,2.18048,0,19.9734,426,5,
202.927,3.22449,2.17743,0,19.9734,426,5,
202.927,3.2254,2.17896,0,19.9734,426,5,
202.927,3.22784,2.19269,0,19.9734,426,5,
202.927,3.22906,2.19421,0,19.9734,426,5,
202.927,3.22968,2.19269,0,19.9734,426,5,
202.927,3.23029,2.19421,0,19.9734,426,5,
202.927,3.22998,2.19269,0,19.9734,426,5,
202.927,3.23486,2.19269,0,19.9734,426,5,
202.927,3.23456,2.19116,0,19.9734,426,5,
202.927,3.23486,2.19421,0,19.9734,426,5,
202.927,3.23517,2.19269,0,19.9734,426,5,
202.927,3.23792,2.19574,0,19.9734,426,5,
202.927,3.23944,2.19421,0,19.9734,426,5,
202.927,3.23944,2.19574,0,19.9734,426,5,
202.927,3.23975,2.19269,0,19.9734,426,5,
202.927,3.23944,2.19727,0,19.9734,426,5,
202.927,3.24524,2.19574,0,19.9734,426,5,
202.928,3.24463,2.19269,0,19.9734,426,5,
202.928,3.24524,2.19116,0,19.9734,426,5,
202.928,3.24493,2.19421,0,19.9734,426,5,
202.928,3.24951,2.19116,0,19.9734,426,5,
202.928,3.24951,2.19421,0,19.9734,426,5,
202.928,3.24982,2.19421,0,19.9734,426,5,
202.928,3.24951,2.19574,0,19.9734,426,5,
202.928,3.24982,2.19574,0,19.9734,426,5,
202.928,3.25439,2.19574,0,19.9734,426,5,
202.928,3.25439,2.19421,0,19.9734,426,5,
202.928,3.25439,2.19574,0,19.9734,426,5,
202.928,3.25409,2.19116,1.872,19.9734,426,5,
202.928,3.25989,2.19269,1.872,19.9734,426,5,
202.928,3.25928,2.19421,0.838,19.9734,426,5,
202.928,3.25897,2.19421,0.838,19.9734,426,5,
202.928,3.25928,2.19269,0.838,19.9734,426,5,
202.928,3.26385,2.19421,0.838,19.9734,426,5,
202.928,3.26385,2.19574,0.838,19.9734,426,5,
202.928,3.26385,2.19269,0.838,19.9734,426,5,
202.928,3.26416,2.19269,0.838,19.9734,426,5,
202.928,3.26721,2.18964,0.838,19.9734,426,5,
202.928,3.26904,2.19116,0.838,19.9734,426,5,
202.928,3.26935,2.19421,0.838,19.9734,426,5,
202.928,3.26935,2.19421,0.838,19.9734,426,5,
202.928,3.26996,2.19269,0.838,19.9734,426,5,
202.928,3.27423,2.19574,0.838,19.9734,426,5,
202.928,3.27423,2.19574,0.838,19.9734,426,5,
202.928,3.27393,2.19116,0.838,19.9734,426,5,
202.928,3.27423,2.19421,0.838,19.9734,426,5,
202.928,3.27942,2.19574,0.838,19.9734,426,5,
202.929,3.28003,2.19116,0.838,19.9734,426,5,
202.929,3.27881,2.19269,0.838,19.9734,426,5,
202.929,3.27942,2.19269,0.838,19.9734,426,5,
202.929,3.284,2.19269,0.838,19.9734,426,5,
202.929,3.28339,2.19269,0.838,19.9734,426,5,
202.929,3.2843,2.19116,0.838,19.9734,426,5,
202.929,3.284,2.19116,0.838,19.9734,426,5,
202.929,3.28827,2.19421,0.838,19.9734,426,5,
202.929,3.28888,2.19116,0.838,19.9734,426,5,
202.929,3.28918,2.19421,0.838,19.9734,426,5,
202.929,3.29193,2.19574,0.838,19.9734,426,5,
202.929,3.29315,2.18964,0.838,19.9734,426,5,
202.929,3.29346,2.19421,0.838,19.9734,426,5,
202.929,3.29376,2.19421,0.838,19.9734,426,5,
202.929,3.29834,2.19116,0.838,19.9734,426,5,
202.929,3.29895,2.19269,0.838,19.9734,426,5,
202.929,3.29803,2.19421,0.838,19.9734,426,5,
202.929,3.29895,2.19269,0.838,19.9734,426,5,
202.929,3.30292,2.19116,0.838,19.9734,426,5,
202.929,3.30322,2.19574,0.838,19.9734,426,5,
202.929,3.30353,2.19421,0.838,19.9734,426,5,
202.929,3.30292,2.19574,0.838,19.9734,426,5,
202.929,3.30719,2.19421,0.838,19.9734,426,5,
202.929,3.30872,2.19116,0.838,19.9734,426,5,
202.929,3.3078,2.19421,0.838,19.9734,426,5,
202.929,3.30811,2.19421,0.838,19.9734,426,5,
202.929,3.31299,2.19116,0.838,19.9734,426,5,
202.929,3.3136,2.20795,0.838,19.9734,426,5,
202.929,3.31299,2.20795,0.838,19.9734,426,5,
202.929,3.31665,2.20642,0.838,19.9734,426,5,
202.929,3.31787,2.20795,0.838,19.9734,426,5,
202.93,3.31818,2.2049,0.838,19.9734,426,5,
202.93,3.31848,2.20642,0.838,19.9734,426,5,
202.93,3.32275,2.20642,0.838,19.9734,426,5,
202.93,3.32336,2.21253,0.838,19.9734,426,5,
202.93,3.32306,2.20642,0.838,19.9734,426,5,
202.93,3.32306,2.20795,0.838,19.9734,426,5,
202.93,3.32764,2.20795,0.838,19.9734,426,5,
202.93,3.32794,2.20337,0.838,19.9734,426,5,
202.93,3.32794,2.20795,0.838,19.9734,426,5,
202.93,3.3313,2.2049,0.838,19.9734,426,5,
202.93,3.33313,2.2049,0.838,19.9734,426,5,
202.93,3.33282,2.20795,0.838,19.9734,426,5,
202.93,3.33252,2.20642,0.838,19.9734,426,5,
202.93,3.33771,2.20642,0.838,19.9734,426,5,
202.93,3.3374,2.20642,0.838,19.9734,426,5,
202.93,3.33771,2.2049,0.838,19.9734,426,5,
202.93,3.33832,2.20337,0.838,19.9734,426,5,
202.93,3.3429,2.20642,0.838,19.9734,426,5,
202.93,3.3429,2.20642,0.838,19.9734,426,5,
202.93,3.34259,2.2049,0.838,19.9734,426,5,
202.93,3.34534,2.20795,0.838,19.9734,426,5,
202.93,3.34747,2.20795,0.838,19.9734,426,5,
202.93,3.34747,2.20642,0.838,19.9734,426,5,
202.93,3.34747,2.20642,0.838,19.9734,426,5,
202.93,3.35266,2.2049,0.838,19.9734,426,5,
202.93,3.35266,2.20337,0.838,19.9734,426,5,
202.93,3.35236,2.2049,0.838,19.9734,426,5,
202.93,3.35266,2.20795,0.838,19.9734,426,5,
202.93,3.35693,2.20642,0.838,19.9734,426,5,
202.93,3.35724,2.20795,0.838,19.9734,426,5,
202.931,3.35724,2.20642,0.838,19.9734,426,5,
202.931,3.36182,2.2049,0.838,19.9734,426,5,
202.931,3.36212,2.20947,0.838,19.9734,426,5,
202.931,3.36273,2.2049,0.838,19.9734,426,5,
202.931,3.36212,2.20642,0.838,19.9734,426,5,
202.931,3.36731,2.20337,0.838,19.9734,426,5,
202.931,3.3667,2.20337,0.838,19.9734,426,5,
202.931,3.36639,2.20642,0.838,19.9734,426,5,
202.931,3.37158,2.20642,0.838,19.9734,426,5,
202.931,3.37219,2.20947,0.838,19.9734,426,5,
202.931,3.37341,2.2049,0.838,19.9734,426,5,
202.931,3.37219,2.20642,0.838,19.9734,426,5,
202.931,3.37677,2.20642,0.838,19.9734,426,5,
202.931,3.37769,2.2049,0.838,19.9734,426,5,
202.931,3.37677,2.20795,0.838,19.9734,426,5,
202.931,3.37708,2.20947,0.838,19.9734,426,5,
202.931,3.38226,2.20642,0.838,19.9734,426,5,
202.931,3.38196,2.20795,0.838,19.9734,426,5,
202.931,3.38196,2.20337,0.838,19.9734,426,5,
202.931,3.38226,2.20795,0.838,19.9734,426,5,
202.931,3.38715,2.20337,0.838,19.9734,426,5,
202.931,3.38715,2.20947,0.838,19.9734,426,5,
202.931,3.38684,2.20642,0.838,19.9734,426,5,
202.931,3.38989,2.20184,0.838,19.9734,426,5,
202.931,3.39111,2.20795,0.838,19.9734,426,5,
202.931,3.39142,2.20642,0.838,19.9734,426,5,
202.931,3.39142,2.21863,0.838,19.9734,426,5,
202.931,3.3963,2.21863,0.838,19.9734,426,5,
202.931,3.39661,2.2171,0.838,19.9734,426,5,
202.931,3.39722,2.21863,0.838,19.9734,426,5,
202.932,3.39722,2.21863,0.838,19.9734,426,5,
202.932,3.40088,2.21863,0.838,19.9734,426,5,
202.932,3.40118,2.22015,0.838,19.9734,426,5,
202.932,3.40057,2.2171,0.838,19.9734,426,5,
202.932,3.40149,2.21863,0.838,19.9734,426,5,
202.932,3.40607,2.21863,0.838,19.9734,426,5,
202.932,3.40607,2.2171,0.838,19.9734,426,5,
202.932,3.40607,2.21558,0.838,19.9734,426,5,
202.932,3.40637,2.22015,0.838,19.9734,426,5,
202.932,3.41095,2.22015,0.838,19.9734,426,5,
202.932,3.41095,2.21863,0.838,19.9734,426,5,
202.932,3.41095,2.21558,0.838,19.9734,426,5,
202.932,3.41064,2.21863,0.838,19.9734,426,5,
202.932,3.41583,2.22015,0.838,19.9734,426,5,
202.932,3.41644,2.21863,0.838,19.9734,426,5,
202.932,3.41583,2.2171,0.838,19.9734,426,5,
202.932,3.41583,2.21863,0.838,19.9734,426,5,
202.932,3.42072,2.21863,0.838,19.9734,426,5,
202.932,3.42072,2.21863,0.838,19.9734,426,5,
202.932,3.42041,2.21558,0.838,19.9734,426,5,
202.932,3.42407,2.21863,0.838,19.9734,426,5,
202.932,3.42621,2.2171,0.838,19.9734,426,5,
202.932,3.4259,2.2171,0.838,19.9734,426,5,
202.932,3.4259,2.21863,0.838,19.9734,426,5,
202.932,3.42926,2.2171,0.838,19.9734,426,5,
202.932,3.43048,2.21863,0.838,19.9734,426,5,
202.932,3.43048,2.2171,0.838,19.9734,426,5,
202.932,3.43109,2.21863,0.838,19.9734,426,5,
202.932,3.43109,2.21558,0.838,19.9734,426,5,
202.933,3.43567,2.22015,0.838,19.9734,426,5,
202.933,3.43628,2.22015,0.838,19.9734,426,5,
202.933,3.43536,2.21863,0.838,19.9734,426,5,
202.933,3.43628,2.21558,0.838,19.9734,426,5,
202.933,3.44055,2.22168,0.838,19.9734,426,5,
202.933,3.44025,2.22015,0.838,19.9734,426,5,
202.933,3.43994,2.22931,0.838,19.9734,426,5,
202.933,3.44116,2.22931,0.838,19.9734,426,5,
202.933,3.44513,2.23084,0.838,19.9734,426,5,
202.933,3.44574,2.23236,0.838,19.9734,426,5,
202.933,3.44543,2.23236,0.838,19.9734,426,5,
202.933,3.44543,2.23236,0.838,19.9734,426,5,
202.933,3.45001,2.23389,0.838,19.9734,426,5,
202.933,3.45032,2.23541,0.838,19.9734,426,5,
202.933,3.45062,2.23236,0.838,19.9734,426,5,
202.933,3.45032,2.22931,0.838,19.9734,426,5,
202.933,3.45093,2.23236,0.838,19.9734,426,5,
202.933,3.4552,2.23389,0.838,19.9734,426,5,
202.933,3.4549,2.23084,0.838,19.9734,426,5,
202.933,3.4549,2.23236,0.838,19.9734,426,5,
202.933,3.4549,2.22931,0.838,19.9734,426,5,
202.933,3.46039,2.23236,0.838,19.9734,426,5,
202.933,3.46039,2.23236,0.838,19.9734,426,5,
202.933,3.45978,2.23084,0.838,19.9734,426,5,
202.933,3.45947,2.23236,0.838,19.9734,426,5,
202.933,3.46283,2.23541,0.838,19.9734,426,5,
202.933,3.46527,2.23084,0.838,19.9734,426,5,
202.933,3.46527,2.23084,0.838,19.9734,426,5,
202.933,3.46466,2.23236,0.838,19.9734,426,5,
202.933,3.46497,2.22931,0.838,19.9734,426,5,
202.934,3.47046,2.22778,0.838,19.9734,426,5,
202.934,3.46954,2.23084,0.838,19.9734,426,5,
202.934,3.47015,2.23236,0.838,19.9734,426,5,
202.934,3.46985,2.23084,0.336,19.9734,426,5,
202.934,3.4729,2.22626,0.336,19.9734,426,5,
202.934,3.47534,2.22931,0.336,19.9734,426,5,
202.934,3.47473,2.23236,0.336,19.9734,426,5,
202.934,3.47534,2.22778,0.336,19.9734,426,5,
202.934,3.47473,2.23084,0.336,19.9734,426,5,
202.934,3.47961,2.22931,0.336,19.9734,426,5,
202.934,3.47931,2.23236,0.336,19.9734,426,5,
202.934,3.47961,2.23389,0.336,19.9734,426,5,
202.934,3.47992,2.23236,0.336,19.9734,426,5,
202.934,3.48267,2.22778,0.336,19.9734,426,5,
202.934,3.4848,2.23084,0.336,19.9734,426,5,
202.934,3.4848,2.23694,0.336,19.9734,426,5,
202.934,3.4845,2.24304,0.336,19.9734,426,5,
202.934,3.48572,2.24304,0.336,19.9734,426,5,
202.934,3.48938,2.24304,0.336,19.9734,426,5,
202.934,3.48938,2.24304,0.336,19.9734,426,5,
202.934,3.48907,2.23999,0.336,19.9734,426,5,
202.934,3.48877,2.24152,0.336,19.9734,426,5,
202.934,3.49274,2.24609,0.336,19.9734,426,5,
202.934,3.49457,2.24304,0.336,19.9734,426,5,
202.934,3.49487,2.24152,0.336,19.9734,426,5,
202.934,3.49457,2.24152,0.336,19.9734,426,5,
202.934,3.49487,2.24304,0.336,19.9734,426,5,
202.934,3.49915,2.24152,0.336,19.9734,426,5,
202.934,3.49976,2.24152,0.336,19.9734,426,5,
202.934,3.49976,2.23847,0.336,19.9734,426,5,
202.935,3.49884,2.24152,0.336,19.9734,426,5,
202.935,3.50403,2.24152,0.336,19.9734,426,5,
202.935,3.50433,2.23999,0.336,19.9734,426,5,
202.935,3.50464,2.24304,0.336,19.9734,426,5,
202.935,3.50464,2.24609,0.336,19.9734,426,5,
202.935,3.50891,2.23999,0.336,19.9734,426,5,
202.935,3.50952,2.24304,0.336,19.9734,426,5,
202.935,3.50922,2.24304,0.336,19.9734,426,5,
202.935,3.50983,2.24457,0.336,19.9734,426,5,
202.935,3.51257,2.24457,0.336,19.9734,426,5,
202.935,3.51379,2.24152,0.336,19.9734,426,5,
202.935,3.5144,2.24152,0.336,19.9734,426,5,
202.935,3.51471,2.24152,0.336,19.9734,426,5,
202.935,3.51471,2.24304,0.336,19.9734,426,5,
202.935,3.51959,2.24457,0.336,19.9734,426,5,
202.935,3.51898,2.24304,0.336,19.9734,426,5,
202.935,3.51898,2.24304,0.336,19.9734,426,5,
202.935,3.51929,2.24304,0.336,19.9734,426,5,
202.935,3.52295,2.24304,0.336,19.9734,426,5,
202.935,3.52417,2.24304,0.336,19.9734,426,5,
202.935,3.52448,2.24457,0.336,19.9734,426,5,
202.935,3.52386,2.24304,0.336,19.9734,426,5,
202.935,3.52692,2.24304,0.336,19.9734,426,5,
202.935,3.52936,2.23999,0.336,19.9734,426,5,
202.935,3.52814,2.24304,0.336,19.9734,426,5,
202.935,3.52875,2.24457,0.336,19.9734,426,5,
202.935,3.52905,2.24152,0.336,19.9734,426,5,
202.935,3.53394,2.24304,0.336,19.9734,426,5,
202.935,3.53363,2.24152,0.336,19.9734,426,5,
202.935,3.53363,2.24152,0.336,19.9734,426,5,
202.935,3.53394,2.24304,0.336,19.9734,426,5,
202.936,3.5376,2.24457,0.336,19.9734,426,5,
202.936,3.53851,2.24457,0.336,19.9734,426,5,
202.936,3.53882,2.23999,0.336,19.9734,426,5,
202.936,3.53851,2.24152,0.336,19.9734,426,5,
202.936,3.53882,2.24457,0.336,19.9734,426,5,
202.936,3.54431,2.24457,0.336,19.9734,426,5,
202.936,3.54309,2.25678,0.336,19.9734,426,5,
202.936,3.54401,2.25372,0.336,19.9734,426,5,
202.936,3.54401,2.25372,0.336,19.9734,426,5,
202.936,3.54645,2.2583,0.336,19.9734,426,5,
202.936,3.54828,2.25983,0.336,19.9734,426,5,
202.936,3.54889,2.25678,0.336,19.9734,426,5,
202.936,3.54797,2.25372,0.336,19.9734,426,5,
202.936,3.54889,2.2522,0.336,19.9734,426,5,
202.936,3.55286,2.25372,0.336,19.9734,426,5,
202.936,3.55347,2.25525,0.336,19.9734,426,5,
202.936,3.55347,2.25525,0.336,19.9734,426,5,
202.936,3.55347,2.25678,0.336,19.9734,426,5,
202.936,3.55377,2.25372,0.336,19.9734,426,5,
202.936,3.55804,2.25525,0.336,19.9734,426,5,
202.936,3.55835,2.25525,0.336,19.9734,426,5,
202.936,3.55865,2.25525,0.336,19.9734,426,5,
202.936,3.55804,2.2583,0.336,19.9734,426,5,
202.936,3.55865,2.25067,0.336,19.9734,426,5,
202.936,3.56293,2.25525,0.336,19.9734,426,5,
202.936,3.56323,2.2583,0.336,19.9734,426,5,
202.936,3.56323,2.25678,0.336,19.9734,426,5,
202.936,3.56323,2.25372,0.336,19.9734,426,5,
202.936,3.56354,2.25372,0.336,19.9734,426,5,
202.936,3.56659,2.25678,0.336,19.9734,426,5,
202.937,3.56903,2.25525,0.336,19.9734,426,5,
202.937,3.56842,2.25525,0.336,19.9734,426,5,
202.937,3.56873,2.25525,0.336,19.9734,426,5,
202.937,3.56812,2.2583,0.336,19.9734,426,5,
202.937,3.56842,2.25525,0.336,19.9734,426,5,
202.937,3.573,2.25067,0.336,19.9734,426,5,
202.937,3.573,2.25525,0.336,19.9734,426,5,
202.937,3.57269,2.25525,0.336,19.9734,426,5,
202.937,3.573,2.25372,0.336,19.9734,426,5,
202.937,3.57269,2.25372,0.336,19.9734,426,5,
202.937,3.57605,2.25525,0.336,19.9734,426,5,
202.937,3.57819,2.25525,0.336,19.9734,426,5,
202.937,3.5788,2.25678,0.336,19.9734,426,5,
202.937,3.57788,2.25678,0.336,19.9734,426,5,
202.937,3.57758,2.25678,0.336,19.9734,426,5,
202.937,3.57819,2.25678,0.336,19.9734,426,5,
202.937,3.58307,2.25372,0.336,19.9734,426,5,
202.937,3.58276,2.25525,0.336,19.9734,426,5,
202.937,3.58307,2.2583,0.336,19.9734,426,5,
202.937,3.58246,2.25525,0.336,19.9734,426,5,
202.937,3.58276,2.25372,0.336,19.9734,426,5,
202.937,3.58307,2.25525,0.336,19.9734,426,5,
202.937,3.58612,2.25525,0.336,19.9734,426,5,
202.937,3.58795,2.25525,0.336,19.9734,426,5,
202.937,3.58826,2.2522,0.336,19.9734,426,5,
202.937,3.58887,2.25525,0.336,19.9734,426,5,
202.937,3.58765,2.26288,0.336,19.9734,426,5,
202.937,3.58826,2.26898,0.336,19.9734,426,5,
202.937,3.58826,2.26746,0.336,19.9734,426,5,
202.938,3.59253,2.27051,0.336,19.9734,426,5,
202.938,3.59283,2.26593,0.336,19.9734,426,5,
202.938,3.59283,2.26593,0.336,19.9734,426,5,
202.938,3.59253,2.26898,0.336,19.9734,426,5,
202.938,3.59283,2.26746,0.336,19.9734,426,5,
202.938,3.59222,2.26746,0.336,19.9734,426,5,
202.938,3.59253,2.26746,0.336,19.9734,426,5,
202.938,3.59741,2.26898,0.336,19.9734,426,5,
202.938,3.59741,2.26746,0.336,19.9734,426,5,
202.938,3.59711,2.26593,0.336,19.9734,426,5,
202.938,3.59772,2.26593,0.336,19.9734,426,5,
202.938,3.59802,2.26746,0.336,19.9734,426,5,
202.938,3.59802,2.26441,0.336,19.9734,426,5,
