5800-SECPT.acq
2 msec/sample
6 channels
RSP, X, RSPEC-R
Volts
EDA, Y, PPGED-R
microsiemens
ECG R-R
Seconds
Respiration Rate
BPM
C7 - EDR
Peaks
C14 - Control
Volts
min,CH1,CH14,CH40,CH42,CH47,CH54,
,90518,90518,90518,90518,90518,90518,
184.477,4.98474,9.95789,2.256,16.9779,590,5,
184.477,4.98505,9.95941,2.256,16.9779,590,5,
184.477,4.98383,9.95941,2.256,16.9779,590,5,
184.477,4.98444,9.96246,2.256,16.9779,590,5,
184.477,4.98444,9.95636,2.256,16.9779,590,5,
184.477,4.98901,9.95789,2.256,16.9779,590,5,
184.477,4.98932,9.95636,2.256,16.9779,590,5,
184.477,4.99023,9.95789,2.256,16.9779,590,5,
184.477,4.98962,9.96094,2.256,16.9779,590,5,
184.477,4.98871,9.95941,2.256,16.9779,590,5,
184.477,4.98932,9.95636,2.256,16.9779,590,5,
184.477,4.9942,9.96094,2.256,16.9779,590,5,
184.477,4.99481,9.97009,2.256,16.9779,590,5,
184.477,4.99512,9.97162,2.256,16.9779,590,5,
184.477,4.99451,9.97009,2.256,16.9779,590,5,
184.477,4.9942,9.97009,2.256,16.9779,590,5,
184.477,4.99878,9.96704,2.256,16.9779,590,5,
184.477,4.99939,9.97162,2.256,16.9779,590,5,
184.477,4.99908,9.97315,2.256,16.9779,590,5,
184.477,4.99939,9.97009,2.256,16.9779,590,5,
184.477,4.99878,9.97009,2.256,16.9779,590,5,
184.477,5.00458,9.97009,2.256,16.9779,590,5,
184.477,5.00397,9.96857,2.256,16.9779,590,5,
184.477,5.00397,9.96704,2.256,16.9779,590,5,
184.477,5.00397,9.97162,2.256,16.9779,590,5,
184.477,5.00824,9.97162,2.256,16.9779,590,5,
184.477,5.00916,9.97009,2.256,16.9779,590,5,
184.477,5.00916,9.97162,2.256,16.9779,590,5,
184.477,5.00916,9.96857,2.256,16.9779,590,5,
184.478,5.0119,9.97009,2.256,16.9779,590,5,
184.478,5.01434,9.96857,2.256,16.9779,590,5,
184.478,5.01404,9.97315,2.256,16.9779,590,5,
184.478,5.01312,9.97009,2.256,16.9779,590,5,
184.478,5.01648,9.97162,2.256,16.9779,590,5,
184.478,5.01923,9.97162,2.256,16.9779,590,5,
184.478,5.01801,9.97009,2.256,16.9779,590,5,
184.478,5.01862,9.97162,2.256,16.9779,590,5,
184.478,5.02319,9.96857,2.256,16.9779,590,5,
184.478,5.0238,9.96857,2.256,16.9779,590,5,
184.478,5.02441,9.97009,2.256,16.9779,590,5,
184.478,5.0238,9.97162,2.256,16.9779,590,5,
184.478,5.02838,9.97009,2.256,16.9779,590,5,
184.478,5.02808,9.97009,2.256,16.9779,590,5,
184.478,5.02869,9.96857,2.256,16.9779,590,5,
184.478,5.03296,9.96552,2.256,16.9779,590,5,
184.478,5.03357,9.96857,2.256,16.9779,590,5,
184.478,5.03296,9.97009,2.256,16.9779,590,5,
184.478,5.03387,9.97162,2.256,16.9779,590,5,
184.478,5.03815,9.96552,2.256,16.9779,590,5,
184.478,5.03845,9.97009,2.256,16.9779,590,5,
184.478,5.03815,9.96857,2.256,16.9779,590,5,
184.478,5.04303,9.96552,2.256,16.9779,590,5,
184.478,5.04333,9.97009,2.256,16.9779,590,5,
184.478,5.04303,9.96704,2.256,16.9779,590,5,
184.478,5.0473,9.96704,2.256,16.9779,590,5,
184.478,5.04822,9.97315,2.256,16.9779,590,5,
184.478,5.04791,9.96857,2.256,16.9779,590,5,
184.478,5.05066,9.96399,2.256,16.9779,590,5,
184.478,5.05249,9.97315,2.256,16.9779,590,5,
184.479,5.0528,9.96857,2.256,16.9779,590,5,
184.479,5.0528,9.96857,2.256,16.9779,590,5,
184.479,5.05737,9.97009,2.256,16.9779,590,5,
184.479,5.05768,9.96857,2.256,16.9779,590,5,
184.479,5.05859,9.97009,2.256,16.9779,590,5,
184.479,5.06226,9.97009,2.256,16.9779,590,5,
184.479,5.06287,9.97162,2.256,16.9779,590,5,
184.479,5.06256,9.97315,2.256,16.9779,590,5,
184.479,5.06683,9.97162,2.256,16.9779,590,5,
184.479,5.06775,9.97315,2.256,16.9779,590,5,
184.479,5.06775,9.97009,2.256,16.9779,590,5,
184.479,5.07294,9.97162,2.256,16.9779,590,5,
184.479,5.07233,9.97009,2.256,16.9779,590,5,
184.479,5.07355,9.97162,2.256,16.9779,590,5,
184.479,5.07751,9.96857,2.256,16.9779,590,5,
184.479,5.07721,9.97162,2.256,16.9779,590,5,
184.479,5.07843,9.96857,2.256,16.9779,590,5,
184.479,5.08148,9.96857,2.256,16.9779,590,5,
184.479,5.08179,9.96857,2.256,16.9779,590,5,
184.479,5.08209,9.97009,2.256,16.9779,590,5,
184.479,5.08636,9.97162,2.256,16.9779,590,5,
184.479,5.0882,9.97162,2.256,16.9779,590,5,
184.479,5.08759,9.96552,2.256,16.9779,590,5,
184.479,5.09186,9.96857,2.256,16.9779,590,5,
184.479,5.09277,9.96857,2.256,16.9779,590,5,
184.479,5.09277,9.97009,2.256,16.9779,590,5,
184.479,5.09491,9.96857,2.256,16.9779,590,5,
184.479,5.09796,9.97162,2.256,16.9779,590,5,
184.479,5.09796,9.97315,2.256,16.9779,590,5,
184.48,5.1001,9.97009,2.256,16.9779,590,5,
184.48,5.10162,9.96552,2.256,16.9779,590,5,
184.48,5.10162,9.96857,2.256,16.9779,590,5,
184.48,5.10254,9.97009,2.256,16.9779,590,5,
184.48,5.10651,9.96704,2.256,16.9779,590,5,
184.48,5.10681,9.97009,2.256,16.9779,590,5,
184.48,5.10681,9.97162,2.256,16.9779,590,5,
184.48,5.11108,9.97009,2.256,16.9779,590,5,
184.48,5.11169,9.96704,2.256,16.9779,590,5,
184.48,5.11108,9.97315,2.256,16.9779,590,5,
184.48,5.11566,9.96857,2.256,16.9779,590,5,
184.48,5.11597,9.96857,2.256,16.9779,590,5,
184.48,5.11658,9.9762,2.256,16.9779,590,5,
184.48,5.12085,9.97315,2.256,16.9779,590,5,
184.48,5.12177,9.97315,2.256,16.9779,590,5,
184.48,5.12146,9.97009,2.256,16.9779,590,5,
184.48,5.12604,9.96857,2.256,16.9779,590,5,
184.48,5.12634,9.97009,2.256,16.9779,590,5,
184.48,5.12604,9.97315,2.256,16.9779,590,5,
184.48,5.12909,9.97009,2.256,16.9779,590,5,
184.48,5.13092,9.97315,2.256,16.9779,590,5,
184.48,5.13123,9.97162,2.256,16.9779,590,5,
184.48,5.13123,9.96704,2.256,16.9779,590,5,
184.48,5.1358,9.97009,2.256,16.9779,590,5,
184.48,5.13672,9.97009,2.256,16.9779,590,5,
184.48,5.1358,9.97009,2.256,16.9779,590,5,
184.48,5.14069,9.96704,2.256,16.9779,590,5,
184.48,5.1416,9.96857,2.256,16.9779,590,5,
184.48,5.1416,9.96857,2.256,16.9779,590,5,
184.48,5.14618,9.96857,2.256,16.9779,590,5,
184.481,5.14648,9.97315,2.256,16.9779,590,5,
184.481,5.14587,9.97009,2.256,16.9779,590,5,
184.481,5.15076,9.96857,2.256,16.9779,590,5,
184.481,5.15137,9.96857,2.256,16.9779,590,5,
184.481,5.15015,9.97315,2.256,16.9779,590,5,
184.481,5.15564,9.97009,2.256,16.9779,590,5,
184.481,5.15533,9.97009,2.256,16.9779,590,5,
184.481,5.15564,9.97162,2.256,16.9779,590,5,
184.481,5.16083,9.97009,2.256,16.9779,590,5,
184.481,5.16052,9.97009,2.256,16.9779,590,5,
184.481,5.16022,9.97162,2.256,16.9779,590,5,
184.481,5.16479,9.96857,2.256,16.9779,590,5,
184.481,5.16541,9.97009,2.256,16.9779,590,5,
184.481,5.1651,9.97009,2.256,16.9779,590,5,
184.481,5.16907,9.96857,2.256,16.9779,590,5,
184.481,5.16998,9.96857,2.256,16.9779,590,5,
184.481,5.16998,9.97009,2.256,16.9779,590,5,
184.481,5.17456,9.97009,2.256,16.9779,590,5,
184.481,5.17517,9.96857,2.256,16.9779,590,5,
184.481,5.17487,9.96704,2.256,16.9779,590,5,
184.481,5.18005,9.96857,2.256,16.9779,590,5,
184.481,5.17914,9.97009,2.256,16.9779,590,5,
184.481,5.18066,9.97162,2.256,16.9779,590,5,
184.481,5.18494,9.97315,2.256,16.9779,590,5,
184.481,5.18494,9.96857,2.256,16.9779,590,5,
184.481,5.18463,9.97009,2.256,16.9779,590,5,
184.481,5.19043,9.97315,2.256,16.9779,590,5,
184.481,5.18982,9.96704,2.256,16.9779,590,5,
184.481,5.19012,9.96857,2.256,16.9779,590,5,
184.481,5.1947,9.96857,2.256,16.9779,590,5,
184.482,5.1947,9.96857,2.256,16.9779,590,5,
184.482,5.19409,9.97315,2.256,16.9779,590,5,
184.482,5.19958,9.97009,2.256,16.9779,590,5,
184.482,5.19928,9.97009,2.256,16.9779,590,5,
184.482,5.19928,9.96857,2.256,16.9779,590,5,
184.482,5.20538,9.97315,2.256,16.9779,590,5,
184.482,5.20416,9.96857,2.256,16.9779,590,5,
184.482,5.20416,9.97315,2.256,16.9779,590,5,
184.482,5.20935,9.97009,2.256,16.9779,590,5,
184.482,5.20905,9.96857,2.256,16.9779,590,5,
184.482,5.21179,9.97009,2.256,16.9779,590,5,
184.482,5.21393,9.97009,2.256,16.9779,590,5,
184.482,5.21423,9.96704,2.256,16.9779,590,5,
184.482,5.21667,9.97009,2.256,16.9779,590,5,
184.482,5.21942,9.96857,2.256,16.9779,590,5,
184.482,5.21912,9.97009,2.256,16.9779,590,5,
184.482,5.22217,9.97162,2.256,16.9779,590,5,
184.482,5.22491,9.96857,2.256,16.9779,590,5,
184.482,5.224,9.97009,2.256,16.9779,590,5,
184.482,5.22797,9.97315,2.256,16.9779,590,5,
184.482,5.22949,9.97162,2.256,16.9779,590,5,
184.482,5.22919,9.97009,2.256,16.9779,590,5,
184.482,5.23376,9.97467,2.256,16.9779,590,5,
184.482,5.23438,9.96704,2.256,16.9779,590,5,
184.482,5.23438,9.97162,2.256,16.9779,590,5,
184.482,5.23804,9.97009,2.256,16.9779,590,5,
184.482,5.23834,9.97009,2.256,16.9779,590,5,
184.482,5.23956,9.97009,2.256,16.9779,590,5,
184.482,5.24445,9.97162,2.256,16.9779,590,5,
184.482,5.24353,9.97009,2.256,16.9779,590,5,
184.482,5.24353,9.96857,2.256,16.9779,590,5,
184.483,5.24902,9.96857,2.256,16.9779,590,5,
184.483,5.24963,9.97009,2.256,16.9779,590,5,
184.483,5.2478,9.97009,2.256,16.9779,590,5,
184.483,5.2533,9.97315,2.256,16.9779,590,5,
184.483,5.25391,9.96857,2.256,16.9779,590,5,
184.483,5.25391,9.96857,2.256,16.9779,590,5,
184.483,5.25879,9.96857,2.256,16.9779,590,5,
184.483,5.25848,9.97009,2.256,16.9779,590,5,
184.483,5.2594,9.97009,2.256,16.9779,590,5,
184.483,5.26306,9.97009,2.256,16.9779,590,5,
184.483,5.26367,9.97009,2.256,16.9779,590,5,
184.483,5.26367,9.97009,2.256,16.9779,590,5,
184.483,5.26825,9.97009,2.256,16.9779,590,5,
184.483,5.26855,9.97009,2.256,16.9779,590,5,
184.483,5.27069,9.96857,2.256,16.9779,590,5,
184.483,5.27405,9.96857,2.256,16.9779,590,5,
184.483,5.27252,9.96857,2.256,16.9779,590,5,
184.483,5.27557,9.97315,2.256,16.9779,590,5,
184.483,5.27863,9.96857,2.256,16.9779,590,5,
184.483,5.27863,9.96552,2.256,16.9779,590,5,
184.483,5.28107,9.97009,2.256,16.9779,590,5,
184.483,5.28351,9.97315,2.256,16.9779,590,5,
184.483,5.2829,9.97315,2.256,16.9779,590,5,
184.483,5.28778,9.96704,2.256,16.9779,590,5,
184.483,5.28839,9.96857,2.256,16.9779,590,5,
184.483,5.28778,9.97162,2.256,16.9779,590,5,
184.483,5.29297,9.97162,2.256,16.9779,590,5,
184.483,5.29266,9.97009,2.256,16.9779,590,5,
184.483,5.29297,9.96857,2.256,16.9779,590,5,
184.483,5.29663,9.97162,2.256,16.9779,590,5,
184.484,5.29785,9.97009,2.256,16.9779,590,5,
184.484,5.29846,9.97315,2.256,16.9779,590,5,
184.484,5.30273,9.97009,2.256,16.9779,590,5,
184.484,5.30212,9.97162,2.256,16.9779,590,5,
184.484,5.30334,9.97162,2.256,16.9779,590,5,
184.484,5.30823,9.97162,2.256,16.9779,590,5,
184.484,5.30731,9.96857,2.256,16.9779,590,5,
184.484,5.30731,9.97009,2.256,16.9779,590,5,
184.484,5.31189,9.96857,2.256,16.9779,590,5,
184.484,5.31219,9.97315,2.256,16.9779,590,5,
184.484,5.3125,9.97009,2.256,16.9779,590,5,
184.484,5.31769,9.97009,2.256,16.9779,590,5,
184.484,5.31799,9.97009,2.256,16.9779,590,5,
184.484,5.31738,9.97315,2.256,16.9779,590,5,
184.484,5.32227,9.97009,2.256,16.9779,590,5,
184.484,5.32288,9.96857,2.256,16.9779,590,5,
184.484,5.32196,9.97162,2.256,16.9779,590,5,
184.484,5.32684,9.96857,2.256,16.9779,590,5,
184.484,5.32684,9.96857,2.256,16.9779,590,5,
184.484,5.32745,9.97009,2.256,16.9779,590,5,
184.484,5.33234,9.96704,2.256,16.9779,590,5,
184.484,5.33173,9.97009,2.256,16.9779,590,5,
184.484,5.33112,9.96857,2.256,16.9779,590,5,
184.484,5.33722,9.97009,2.256,16.9779,590,5,
184.484,5.336,9.97009,2.256,16.9779,590,5,
184.484,5.33691,9.97009,2.256,16.9779,590,5,
184.484,5.3418,9.96704,2.256,16.9779,590,5,
184.484,5.3421,9.97315,2.256,16.9779,590,5,
184.484,5.34119,9.97162,2.256,16.9779,590,5,
184.484,5.34637,9.96857,2.256,16.9779,590,5,
184.485,5.34607,9.97009,2.256,16.9779,590,5,
184.485,5.34607,9.96857,2.256,16.9779,590,5,
184.485,5.35065,9.97009,2.256,16.9779,590,5,
184.485,5.35187,9.96704,2.256,16.9779,590,5,
184.485,5.35126,9.96857,2.256,16.9779,590,5,
184.485,5.35675,9.96857,2.256,16.9779,590,5,
184.485,5.35645,9.96857,2.256,16.9779,590,5,
184.485,5.35614,9.97009,2.256,16.9779,590,5,
184.485,5.36194,9.97009,2.256,16.9779,590,5,
184.485,5.36163,9.97162,2.256,16.9779,590,5,
184.485,5.36133,9.97009,2.256,16.9779,590,5,
184.485,5.36621,9.97162,2.256,16.9779,590,5,
184.485,5.36652,9.97315,2.256,16.9779,590,5,
184.485,5.36621,9.97009,2.256,16.9779,590,5,
184.485,5.37109,9.96857,2.256,16.9779,590,5,
184.485,5.37109,9.97315,2.256,16.9779,590,5,
184.485,5.3714,9.97009,2.256,16.9779,590,5,
184.485,5.37598,9.96704,2.256,16.9779,590,5,
184.485,5.37628,9.97009,2.256,16.9779,590,5,
184.485,5.37628,9.97009,2.256,16.9779,590,5,
184.485,5.38177,9.96857,2.256,16.9779,590,5,
184.485,5.38116,9.96857,2.256,16.9779,590,5,
184.485,5.38116,9.97009,2.256,16.9779,590,5,
184.485,5.38605,9.96704,2.256,16.9779,590,5,
184.485,5.38574,9.96857,2.256,16.9779,590,5,
184.485,5.38666,9.98688,2.256,16.9779,590,5,
184.485,5.39093,9.97772,2.256,16.9779,590,5,
184.485,5.39124,9.9823,2.256,16.9779,590,5,
184.485,5.39398,9.97925,2.256,16.9779,590,5,
184.486,5.39551,9.98535,2.256,16.9779,590,5,
184.486,5.39551,9.98383,2.256,16.9779,590,5,
184.486,5.39825,9.9823,2.256,16.9779,590,5,
184.486,5.401,9.98383,2.256,16.9779,590,5,
184.486,5.40131,9.9823,2.256,16.9779,590,5,
184.486,5.40527,9.98383,2.256,16.9779,590,5,
184.486,5.40588,9.98383,2.256,16.9779,590,5,
184.486,5.40588,9.98383,2.256,16.9779,590,5,
184.486,5.41046,9.98077,2.256,16.9779,590,5,
184.486,5.40985,9.9823,2.256,16.9779,590,5,
184.486,5.41046,9.98535,2.256,16.9779,590,5,
184.486,5.41504,9.9823,2.256,16.9779,590,5,
184.486,5.41504,9.98383,2.256,16.9779,590,5,
184.486,5.41565,9.9823,2.256,16.9779,590,5,
184.486,5.42023,9.9823,2.256,16.9779,590,5,
184.486,5.42053,9.98077,2.256,16.9779,590,5,
184.486,5.42297,9.98535,2.256,16.9779,590,5,
184.486,5.42572,9.98383,2.256,16.9779,590,5,
184.486,5.42572,9.98535,2.256,16.9779,590,5,
184.486,5.42969,9.98077,2.256,16.9779,590,5,
184.486,5.42999,9.98077,2.256,16.9779,590,5,
184.486,5.42969,9.9823,2.256,16.9779,590,5,
184.486,5.43457,9.98383,2.256,16.9779,590,5,
184.486,5.43518,9.9823,2.256,16.9779,590,5,
184.486,5.43488,9.98383,2.256,16.9779,590,5,
184.486,5.44098,9.98535,2.256,16.9779,590,5,
184.486,5.43976,9.98077,2.256,16.9779,590,5,
184.486,5.4422,9.98383,2.256,16.9779,590,5,
184.486,5.44464,9.98077,2.256,16.9779,590,5,
184.486,5.44434,9.98535,2.256,16.9779,590,5,
184.487,5.44952,9.98077,2.256,16.9779,590,5,
184.487,5.44952,9.98535,2.256,16.9779,590,5,
184.487,5.44952,9.97925,2.256,16.9779,590,5,
184.487,5.45441,9.98077,2.256,16.9779,590,5,
184.487,5.45532,9.98535,2.256,16.9779,590,5,
184.487,5.45471,9.9823,2.256,16.9779,590,5,
184.487,5.4599,9.9823,2.256,16.9779,590,5,
184.487,5.46021,9.9823,2.256,16.9779,590,5,
184.487,5.46173,9.98077,2.256,16.9779,590,5,
184.487,5.46509,9.98077,2.256,16.9779,590,5,
184.487,5.46417,9.9823,2.256,16.9779,590,5,
184.487,5.46844,9.98383,2.256,16.9779,590,5,
184.487,5.46936,9.98077,2.256,16.9779,590,5,
184.487,5.46906,9.98077,2.256,16.9779,590,5,
184.487,5.47424,9.98077,2.256,16.9779,590,5,
184.487,5.47455,9.98383,2.256,16.9779,590,5,
184.487,5.47455,9.98535,2.256,16.9779,590,5,
184.487,5.47913,9.9823,2.256,16.9779,590,5,
184.487,5.47882,9.9823,2.256,16.9779,590,5,
184.487,5.48096,9.98535,2.256,16.9779,590,5,
184.487,5.48401,9.98383,2.256,16.9779,590,5,
184.487,5.48401,9.97925,2.256,16.9779,590,5,
184.487,5.48767,9.9823,2.256,16.9779,590,5,
184.487,5.48828,9.98077,2.256,16.9779,590,5,
184.487,5.48859,9.98383,2.256,16.9779,590,5,
184.487,5.49408,9.9823,2.256,16.9779,590,5,
184.487,5.49408,9.98383,2.256,16.9779,590,5,
184.487,5.49377,9.9823,2.256,16.9779,590,5,
184.487,5.49835,9.97925,2.256,16.9779,590,5,
184.487,5.49866,9.98383,2.256,16.9779,590,5,
184.488,5.49896,9.9823,2.256,16.9779,590,5,
184.488,5.50385,9.9823,2.256,16.9779,590,5,
184.488,5.50354,9.9823,2.256,16.9779,590,5,
184.488,5.50385,9.9823,2.256,16.9779,590,5,
184.488,5.50934,9.98383,2.256,16.9779,590,5,
184.488,5.50842,9.98383,2.256,16.9779,590,5,
184.488,5.50812,9.98383,2.256,16.9779,590,5,
184.488,5.51331,9.98535,2.256,16.9779,590,5,
184.488,5.51392,9.98383,2.256,16.9779,590,5,
184.488,5.51636,9.97925,2.256,16.9779,590,5,
184.488,5.5191,9.98077,2.256,16.9779,590,5,
184.488,5.51788,9.98383,2.256,16.9779,590,5,
184.488,5.52063,9.97925,2.256,16.9779,590,5,
184.488,5.52307,9.98077,2.256,16.9779,590,5,
184.488,5.52368,9.98383,2.256,16.9779,590,5,
184.488,5.52582,9.98535,2.256,16.9779,590,5,
184.488,5.52795,9.98077,2.256,16.9779,590,5,
184.488,5.52795,9.9823,2.256,16.9779,590,5,
184.488,5.52979,9.98077,2.256,16.9779,590,5,
184.488,5.53375,9.97772,2.256,16.9779,590,5,
184.488,5.53314,9.98077,2.256,16.9779,590,5,
184.488,5.53284,9.98077,2.256,16.9779,590,5,
184.488,5.53802,9.98383,2.256,16.9779,590,5,
184.488,5.53833,9.98077,2.256,16.9779,590,5,
184.488,5.53833,9.97925,2.256,16.9779,590,5,
184.488,5.54321,9.9823,2.256,16.9779,590,5,
184.488,5.54321,9.98077,2.256,16.9779,590,5,
184.488,5.54321,9.9823,2.256,16.9779,590,5,
184.488,5.54749,9.9823,2.256,16.9779,590,5,
184.488,5.54718,9.97925,2.256,16.9779,590,5,
184.488,5.54779,9.98383,2.256,16.9779,590,5,
184.489,5.55237,9.97925,2.256,16.9779,590,5,
184.489,5.55267,9.98383,2.256,16.9779,590,5,
184.489,5.55237,9.97925,2.256,16.9779,590,5,
184.489,5.55511,9.97925,2.256,16.9779,590,5,
184.489,5.55786,9.9823,2.256,16.9779,590,5,
184.489,5.55786,9.98383,2.256,16.9779,590,5,
184.489,5.55725,9.9823,2.256,16.9779,590,5,
184.489,5.56274,9.98077,2.256,16.9779,590,5,
184.489,5.56213,9.9823,2.256,16.9779,590,5,
184.489,5.56152,9.9823,2.256,16.9779,590,5,
184.489,5.56671,9.97925,2.256,16.9779,590,5,
184.489,5.56671,9.98077,2.256,16.9779,590,5,
184.489,5.56763,9.98383,2.256,16.9779,590,5,
184.489,5.56702,9.9823,2.256,16.9779,590,5,
184.489,5.5722,9.9823,2.256,16.9779,590,5,
184.489,5.57312,9.98383,2.256,16.9779,590,5,
184.489,5.5719,9.9823,2.256,16.9779,590,5,
184.489,5.57648,9.9823,2.256,16.9779,590,5,
184.489,5.57709,9.9823,2.256,16.9779,590,5,
184.489,5.57709,9.98077,2.256,16.9779,590,5,
184.489,5.57709,9.98383,2.256,16.9779,590,5,
184.489,5.58228,9.98383,2.256,16.9779,590,5,
184.489,5.58258,9.9823,2.256,16.9779,590,5,
184.489,5.58258,9.9823,2.256,16.9779,590,5,
184.489,5.58228,9.97925,2.256,16.9779,590,5,
184.489,5.58716,9.98383,2.256,16.9779,590,5,
184.489,5.58716,9.9823,2.256,16.9779,590,5,
184.489,5.58685,9.9823,2.256,16.9779,590,5,
184.489,5.58685,9.98535,2.256,16.9779,590,5,
184.489,5.59174,9.98077,2.256,16.9779,590,5,
184.49,5.59235,9.98535,2.256,16.9779,590,5,
184.49,5.59143,9.98077,2.256,16.9779,590,5,
184.49,5.59204,9.98077,2.256,16.9779,590,5,
184.49,5.59631,9.9823,2.256,16.9779,590,5,
184.49,5.59662,9.98077,2.256,16.9779,590,5,
184.49,5.59662,9.98383,2.256,16.9779,590,5,
184.49,5.59631,9.9823,2.256,16.9779,590,5,
184.49,5.60089,9.9823,2.256,16.9779,590,5,
184.49,5.6015,9.98077,2.256,16.9779,590,5,
184.49,5.60211,9.9823,2.256,16.9779,590,5,
184.49,5.60181,9.98383,2.256,16.9779,590,5,
184.49,5.60211,9.9823,2.256,16.9779,590,5,
184.49,5.60699,9.9823,2.256,16.9779,590,5,
184.49,5.60608,9.98383,2.256,16.9779,590,5,
184.49,5.60669,9.97925,2.256,16.9779,590,5,
184.49,5.60669,9.9823,2.256,16.9779,590,5,
184.49,5.6073,9.9823,2.256,16.9779,590,5,
184.49,5.61157,9.9823,2.256,16.9779,590,5,
184.49,5.61188,9.98383,2.256,16.9779,590,5,
184.49,5.61157,9.98383,2.256,16.9779,590,5,
184.49,5.61218,9.98077,2.256,16.9779,590,5,
184.49,5.61218,9.9823,2.256,16.9779,590,5,
184.49,5.61493,9.9823,2.256,16.9779,590,5,
184.49,5.61707,9.98383,2.256,16.9779,590,5,
184.49,5.61707,9.98383,2.256,16.9779,590,5,
184.49,5.61707,9.9823,2.256,16.9779,590,5,
184.49,5.61646,9.9823,2.256,16.9779,590,5,
184.49,5.61676,9.99451,2.256,16.9779,590,5,
184.49,5.61615,9.99451,2.256,16.9779,590,5,
184.49,5.6192,9.99451,2.256,16.9779,590,5,
184.491,5.62134,9.99603,2.256,16.9779,590,5,
184.491,5.62103,9.99451,2.256,16.9779,590,5,
184.491,5.62134,9.99603,2.256,16.9779,590,5,
184.491,5.62134,9.99603,2.256,16.9779,590,5,
184.491,5.62134,9.99451,2.256,16.9779,590,5,
184.491,5.62164,9.99756,2.256,16.9779,590,5,
184.491,5.62134,9.99451,2.256,16.9779,590,5,
184.491,5.62073,9.99756,2.256,16.9779,590,5,
184.491,5.62073,9.99298,2.256,16.9779,590,5,
184.491,5.625,9.99603,2.256,16.9779,590,5,
184.491,5.62561,9.99146,2.256,16.9779,590,5,
184.491,5.62592,9.99603,2.256,16.9779,590,5,
184.491,5.625,9.99298,2.256,16.9779,590,5,
184.491,5.62622,9.99603,2.256,16.9779,590,5,
184.491,5.62592,9.99603,2.256,16.9779,590,5,
184.491,5.62653,9.99603,2.256,16.9779,590,5,
184.491,5.62683,9.99146,2.256,16.9779,590,5,
184.491,5.62592,9.99298,2.256,16.9779,590,5,
184.491,5.62592,9.99451,2.256,16.9779,590,5,
184.491,5.62592,9.99451,2.256,16.9779,590,5,
184.491,5.62622,9.99451,2.256,16.9779,590,5,
184.491,5.62592,9.99451,2.256,16.9779,590,5,
184.491,5.62622,9.99298,2.256,16.9779,590,5,
184.491,5.62653,9.99298,2.256,16.9779,590,5,
184.491,5.62592,9.99451,2.256,16.9779,590,5,
184.491,5.62561,9.99298,2.256,16.9779,590,5,
184.491,5.62592,9.99756,2.256,16.9779,590,5,
184.491,5.62592,9.99146,2.256,16.9779,590,5,
184.491,5.62622,9.99756,2.256,16.9779,590,5,
184.492,5.62561,9.99756,2.256,16.9779,590,5,
184.492,5.62592,9.99603,2.256,16.9779,590,5,
184.492,5.62622,9.99603,2.256,16.9779,590,5,
184.492,5.62622,9.99298,2.256,16.9779,590,5,
184.492,5.62103,9.99603,1.85,20,590,5,
184.492,5.62134,9.99146,1.85,20,590,5,
184.492,5.62134,9.99756,1.85,20,590,5,
184.492,5.62134,9.99603,1.85,20,590,5,
184.492,5.62073,9.99451,1.85,20,590,5,
184.492,5.62103,9.99603,1.85,20,590,5,
184.492,5.62134,9.99298,1.85,20,590,5,
184.492,5.62134,9.99298,1.85,20,590,5,
184.492,5.61615,9.99603,1.85,20,590,5,
184.492,5.61615,9.99146,1.85,20,590,5,
184.492,5.61646,9.99451,1.85,20,590,5,
184.492,5.61615,9.99756,1.85,20,590,5,
184.492,5.61676,9.99603,1.85,20,590,5,
184.492,5.61615,9.99451,1.85,20,590,5,
184.492,5.61218,9.99451,1.85,20,590,5,
184.492,5.61127,9.99451,1.85,20,590,5,
184.492,5.61157,9.99451,1.85,20,590,5,
184.492,5.61157,9.99756,1.85,20,590,5,
184.492,5.61157,9.99298,1.85,20,590,5,
184.492,5.60577,9.99298,1.85,20,590,5,
184.492,5.60577,9.99603,1.85,20,590,5,
184.492,5.60669,9.99298,1.85,20,590,5,
184.492,5.60608,9.99298,1.85,20,590,5,
184.492,5.60181,9.99756,1.85,20,590,5,
184.492,5.60181,9.99603,1.85,20,590,5,
184.492,5.60211,9.99451,1.85,20,590,5,
184.493,5.60211,9.99603,1.85,20,590,5,
184.493,5.59723,9.99909,1.85,20,590,5,
184.493,5.59662,9.99603,1.85,20,590,5,
184.493,5.59662,9.99603,1.85,20,590,5,
184.493,5.59235,9.99298,1.85,20,590,5,
184.493,5.59143,9.99603,1.85,20,590,5,
184.493,5.59235,9.99756,1.85,20,590,5,
184.493,5.58929,9.99756,1.85,20,590,5,
184.493,5.58685,9.99909,1.85,20,590,5,
184.493,5.58655,9.99603,1.85,20,590,5,
184.493,5.58411,9.99146,1.85,20,590,5,
184.493,5.58167,9.99146,1.85,20,590,5,
184.493,5.58228,9.99298,1.85,20,590,5,
184.493,5.57739,9.99146,1.85,20,590,5,
184.493,5.57709,9.99603,1.85,20,590,5,
184.493,5.57648,9.99909,1.85,20,590,5,
184.493,5.57129,9.99451,1.85,20,590,5,
184.493,5.5719,9.99451,1.85,20,590,5,
184.493,5.56946,9.99298,1.85,20,590,5,
184.493,5.56763,9.99451,1.85,20,590,5,
184.493,5.56702,9.99451,1.85,20,590,5,
184.493,5.56213,9.99451,1.85,20,590,5,
184.493,5.56244,9.99451,1.85,20,590,5,
184.493,5.55847,9.99451,1.85,20,590,5,
184.493,5.55756,9.99451,1.85,20,590,5,
184.493,5.55511,9.99603,1.85,20,590,5,
184.493,5.55267,9.99603,1.85,20,590,5,
184.493,5.55267,9.99146,1.85,20,590,5,
184.493,5.54749,9.99603,1.85,20,590,5,
184.493,5.54779,9.99298,1.85,20,590,5,
184.494,5.5426,9.99451,1.85,20,590,5,
184.494,5.54321,9.99298,1.85,20,590,5,
184.494,5.53802,9.99451,1.85,20,590,5,
184.494,5.53772,9.99146,1.85,20,590,5,
184.494,5.53284,9.99298,1.85,20,590,5,
184.494,5.53284,9.99603,1.85,20,590,5,
184.494,5.52856,9.99603,1.85,20,590,5,
184.494,5.52765,9.99451,1.85,20,590,5,
184.494,5.52368,9.99298,1.85,20,590,5,
184.494,5.52368,9.99603,1.85,20,590,5,
184.494,5.51849,9.99146,1.85,20,590,5,
184.494,5.51819,9.99146,1.85,20,590,5,
184.494,5.51361,9.99451,1.85,20,590,5,
184.494,5.51117,9.99756,1.85,20,590,5,
184.494,5.50873,9.99451,1.85,20,590,5,
184.494,5.50385,9.99451,1.85,20,590,5,
184.494,5.50323,9.99756,1.85,20,590,5,
184.494,5.49896,9.99603,1.85,20,590,5,
184.494,5.49896,9.99451,1.85,20,590,5,
184.494,5.49377,9.99298,1.85,20,590,5,
184.494,5.49133,9.99146,1.85,20,590,5,
184.494,5.48859,9.99298,1.85,20,590,5,
184.494,5.48462,9.99603,1.85,20,590,5,
184.494,5.48401,9.99298,1.85,20,590,5,
184.494,5.48004,9.99298,1.85,20,590,5,
184.494,5.47607,9.9884,1.85,20,590,5,
184.494,5.47455,9.99909,1.85,20,590,5,
184.494,5.46936,9.99298,1.85,20,590,5,
184.494,5.46997,9.99603,1.85,20,590,5,
184.494,5.46448,9.99603,1.85,20,590,5,
184.494,5.46051,9.99451,1.85,20,590,5,
184.495,5.45929,9.99451,1.85,20,590,5,
184.495,5.45471,9.99298,1.85,20,590,5,
184.495,5.45197,9.99603,1.85,20,590,5,
184.495,5.45013,9.99451,1.85,20,590,5,
184.495,5.44525,9.99146,1.85,20,590,5,
184.495,5.4425,9.99298,1.85,20,590,5,
184.495,5.44037,10.0052,1.85,20,590,5,
184.495,5.43579,10.0067,1.85,20,590,5,
184.495,5.43274,10.0067,1.85,20,590,5,
184.495,5.4306,10.0037,1.85,20,590,5,
184.495,5.42572,10.0067,1.85,20,590,5,
184.495,5.42236,10.0067,1.85,20,590,5,
184.495,5.42053,10.0082,1.85,20,590,5,
184.495,5.41504,10.0067,1.85,20,590,5,
184.495,5.41077,10.0052,1.85,20,590,5,
184.495,5.41016,10.0052,1.85,20,590,5,
184.495,5.40497,10.0052,1.85,20,590,5,
184.495,5.40131,10.0098,1.85,20,590,5,
184.495,5.39825,10.0052,1.85,20,590,5,
184.495,5.3952,10.0067,1.85,20,590,5,
184.495,5.39062,10.0082,1.85,20,590,5,
184.495,5.38849,10.0082,1.85,20,590,5,
184.495,5.38574,10.0082,1.85,20,590,5,
184.495,5.38086,10.0113,1.85,20,590,5,
184.495,5.37628,10.0067,1.85,20,590,5,
184.495,5.37323,10.0082,1.85,20,590,5,
184.495,5.37201,10.0067,1.85,20,590,5,
184.495,5.36652,10.0067,1.85,20,590,5,
184.495,5.36224,10.0052,1.85,20,590,5,
184.495,5.36163,10.0098,1.85,20,590,5,
184.496,5.35614,10.0113,1.85,20,590,5,
184.496,5.35126,10.0052,1.85,20,590,5,
184.496,5.34698,10.0052,1.85,20,590,5,
184.496,5.34607,10.0082,1.85,20,590,5,
184.496,5.3421,10.0067,1.85,20,590,5,
184.496,5.33691,10.0067,1.85,20,590,5,
184.496,5.33417,10.0098,1.85,20,590,5,
184.496,5.33203,10.0067,1.85,20,590,5,
184.496,5.32715,10.0052,1.85,20,590,5,
184.496,5.32227,10.0052,1.85,20,590,5,
184.496,5.31891,10.0067,1.85,20,590,5,
184.496,5.31769,10.0067,1.85,20,590,5,
184.496,5.3125,10.0082,1.85,20,590,5,
184.496,5.30823,10.0037,1.85,20,590,5,
184.496,5.30518,10.0082,1.85,20,590,5,
184.496,5.30243,10.0067,1.85,20,590,5,
184.496,5.29816,10.0082,1.85,20,590,5,
184.496,5.29297,10.0052,1.85,20,590,5,
184.496,5.29083,10.0067,1.85,20,590,5,
184.496,5.28839,10.0082,1.85,20,590,5,
184.496,5.2829,10.0052,1.85,20,590,5,
184.496,5.27802,10.0082,1.85,20,590,5,
184.496,5.27374,10.0052,1.85,20,590,5,
184.496,5.27283,10.0082,1.85,20,590,5,
184.496,5.26855,10.0067,1.85,20,590,5,
184.496,5.26367,10.0052,1.85,20,590,5,
184.496,5.25909,10.0067,1.85,20,590,5,
184.496,5.25879,10.0052,1.85,20,590,5,
184.496,5.25391,10.0067,1.85,20,590,5,
184.496,5.24902,10.0113,1.85,20,590,5,
184.497,5.24475,10.0082,1.85,20,590,5,
184.497,5.24445,10.0067,1.85,20,590,5,
184.497,5.23956,10.0098,1.85,20,590,5,
184.497,5.23346,10.0082,1.85,20,590,5,
184.497,5.22949,10.0082,1.85,20,590,5,
184.497,5.22858,10.0082,1.85,20,590,5,
184.497,5.22461,10.0052,1.85,20,590,5,
184.497,5.21881,10.0067,1.85,20,590,5,
184.497,5.21454,10.0067,1.85,20,590,5,
184.497,5.21362,10.0037,1.85,20,590,5,
184.497,5.20966,10.0082,1.85,20,590,5,
184.497,5.20447,10.0052,1.85,20,590,5,
184.497,5.20203,10.0052,1.85,20,590,5,
184.497,5.19989,10.0098,1.85,20,590,5,
184.497,5.1944,10.0067,1.85,20,590,5,
184.497,5.1947,10.0052,1.85,20,590,5,
184.497,5.18066,10.0082,1.85,20,590,5,
184.497,5.17761,10.0052,1.85,20,590,5,
184.497,5.17609,10.0098,1.85,20,590,5,
184.497,5.1709,10.0052,1.85,20,590,5,
184.497,5.16663,10.0082,1.85,20,590,5,
184.497,5.16266,10.0082,1.85,20,590,5,
184.497,5.16022,10.0052,1.85,20,590,5,
184.497,5.15564,10.0098,1.85,20,590,5,
184.497,5.15137,10.0052,1.85,20,590,5,
184.497,5.15076,10.0082,1.85,20,590,5,
184.497,5.14557,10.0082,1.85,20,590,5,
184.497,5.14038,10.0067,1.85,20,590,5,
184.497,5.13794,10.0113,1.85,20,590,5,
184.498,5.1358,10.0082,1.85,20,590,5,
184.498,5.13062,10.0082,1.85,20,590,5,
184.498,5.12634,10.0052,1.85,20,590,5,
184.498,5.12604,10.0052,1.85,20,590,5,
184.498,5.12146,10.0067,1.85,20,590,5,
184.498,5.11627,10.0067,1.85,20,590,5,
184.498,5.11353,10.0098,1.85,20,590,5,
184.498,5.11108,10.0067,1.85,20,590,5,
184.498,5.11169,10.0052,1.85,20,590,5,
184.498,5.1059,10.0113,1.85,20,590,5,
184.498,5.10284,10.0067,1.85,20,590,5,
184.498,5.10101,10.0113,1.85,20,590,5,
184.498,5.09644,10.0006,1.85,20,590,5,
184.498,5.09308,10.0067,1.85,20,590,5,
184.498,5.09247,10.0067,1.85,20,590,5,
184.498,5.08789,10.0052,1.85,20,590,5,
184.498,5.0824,10.0067,1.85,20,590,5,
184.498,5.07965,10.0067,1.85,20,590,5,
184.498,5.07812,10.0037,1.85,20,590,5,
184.498,5.07324,10.0098,1.85,20,590,5,
184.498,5.07019,10.0052,1.85,20,590,5,
184.498,5.06744,10.0052,1.85,20,590,5,
184.498,5.06287,10.0082,1.85,20,590,5,
184.498,5.06042,10.0037,1.85,20,590,5,
184.498,5.05829,10.0052,1.85,20,590,5,
184.498,5.05341,10.0082,1.85,20,590,5,
184.498,5.05096,10.0113,1.85,20,590,5,
184.498,5.04852,10.0067,1.85,20,590,5,
184.498,5.04333,10.0067,1.85,20,590,5,
184.498,5.04089,10.0067,1.85,20,590,5,
184.499,5.03845,10.0021,1.85,20,590,5,
184.499,5.03418,10.0098,1.85,20,590,5,
184.499,5.03357,10.0067,1.85,20,590,5,
184.499,5.0296,10.0052,1.85,20,590,5,
184.499,5.02441,10.0098,1.85,20,590,5,
184.499,5.02472,10.0082,1.85,20,590,5,
184.499,5.01892,10.0082,1.85,20,590,5,
184.499,5.01709,10.0052,1.85,20,590,5,
184.499,5.01373,10.0021,1.85,20,590,5,
184.499,5.00885,10.0082,1.85,20,590,5,
184.499,5.0061,10.0067,1.85,20,590,5,
184.499,5.00366,10.0082,1.85,20,590,5,
184.499,4.99939,10.0052,1.85,20,590,5,
184.499,4.99969,10.0052,1.85,20,590,5,
184.499,4.99451,10.0082,1.85,20,590,5,
184.499,4.99176,10.0052,1.85,20,590,5,
184.499,4.98962,10.0067,1.85,20,590,5,
184.499,4.98505,10.0067,1.85,20,590,5,
184.499,4.98444,10.0037,1.85,20,590,5,
184.499,4.97925,10.0067,1.85,20,590,5,
184.499,4.97528,10.0067,1.85,20,590,5,
184.499,4.97437,10.0052,1.85,20,590,5,
184.499,4.96979,10.0067,1.85,20,590,5,
184.499,4.9704,10.0067,1.85,20,590,5,
184.499,4.9649,10.0082,1.85,20,590,5,
184.499,4.96155,10.0098,1.85,20,590,5,
184.499,4.95941,10.0052,1.85,20,590,5,
184.499,4.95544,10.0067,1.85,20,590,5,
184.499,4.95514,10.0052,1.85,20,590,5,
184.499,4.95056,10.0052,1.85,20,590,5,
184.5,4.9472,10.0143,1.85,20,590,5,
184.5,4.94568,10.0174,1.85,20,590,5,
184.5,4.94263,10.0204,1.85,20,590,5,
184.5,4.94049,10.0174,1.85,20,590,5,
184.5,4.93622,10.0189,1.85,20,590,5,
184.5,4.9353,10.0159,1.85,20,590,5,
184.5,4.93042,10.022,1.85,20,590,5,
184.5,4.93073,10.0174,1.85,20,590,5,
184.5,4.92615,10.0174,1.85,20,590,5,
184.5,4.92279,10.0204,1.85,20,590,5,
184.5,4.92065,10.0235,1.85,20,590,5,
184.5,4.91852,10.0174,1.85,20,590,5,
184.5,4.91577,10.022,1.85,20,590,5,
184.5,4.9118,10.0174,1.85,20,590,5,
184.5,4.91028,10.0159,1.85,20,590,5,
184.5,4.90662,10.0174,1.85,20,590,5,
184.5,4.90601,10.0204,1.85,20,590,5,
184.5,4.90204,10.0204,1.85,20,590,5,
184.5,4.90021,10.0174,1.85,20,590,5,
184.5,4.89624,10.022,1.85,20,590,5,
184.5,4.89594,10.0159,1.85,20,590,5,
184.5,4.89105,10.022,1.85,20,590,5,
184.5,4.89105,10.022,1.85,20,590,5,
184.5,4.88617,10.0204,1.85,20,590,5,
184.5,4.88617,10.0159,1.85,20,590,5,
184.5,4.88129,10.0204,1.85,20,590,5,
184.5,4.8819,10.0159,1.85,20,590,5,
184.5,4.87732,10.0189,1.85,20,590,5,
184.5,4.8764,10.0235,1.85,20,590,5,
184.5,4.87244,10.022,1.85,20,590,5,
184.5,4.87183,10.0189,1.85,20,590,5,
184.501,4.86755,10.0189,1.85,20,590,5,
184.501,4.86725,10.0159,1.85,20,590,5,
184.501,4.8645,10.0174,1.85,20,590,5,
184.501,4.86206,10.0189,1.85,20,590,5,
184.501,4.85962,10.0189,1.85,20,590,5,
184.501,4.85748,10.0174,1.85,20,590,5,
184.501,4.85718,10.0204,1.85,20,590,5,
184.501,4.85291,10.0204,1.85,20,590,5,
184.501,4.85199,10.0189,1.85,20,590,5,
184.501,4.84802,10.0174,1.85,20,590,5,
184.501,4.84802,10.0189,1.85,20,590,5,
184.501,4.84314,10.0189,1.85,20,590,5,
184.501,4.84192,10.0174,1.85,20,590,5,
184.501,4.83948,10.022,1.85,20,590,5,
184.501,4.83734,10.0204,1.85,20,590,5,
184.501,4.83734,10.0189,1.85,20,590,5,
184.501,4.83215,10.022,1.85,20,590,5,
184.501,4.83246,10.0174,1.85,20,590,5,
184.501,4.82819,10.0143,1.85,20,590,5,
184.501,4.82758,10.022,1.85,20,590,5,
184.501,4.82483,10.022,1.85,20,590,5,
184.501,4.82269,10.022,1.85,20,590,5,
184.501,4.82269,10.0174,1.85,20,590,5,
184.501,4.8175,10.0174,1.85,20,590,5,
184.501,4.81812,10.0189,1.85,20,590,5,
184.501,4.81323,10.022,1.85,20,590,5,
184.501,4.81232,10.022,1.85,20,590,5,
184.501,4.81232,10.0204,1.85,20,590,5,
184.501,4.80774,10.022,1.85,20,590,5,
184.501,4.80774,10.022,1.85,20,590,5,
184.502,4.80347,10.0189,1.85,20,590,5,
184.502,4.80316,10.0189,1.85,20,590,5,
184.502,4.80225,10.0174,1.85,20,590,5,
184.502,4.79858,10.022,1.85,20,590,5,
184.502,4.79828,10.0174,1.85,20,590,5,
184.502,4.7934,10.0159,1.85,20,590,5,
184.502,4.79218,10.0204,1.85,20,590,5,
184.502,4.79279,10.0159,1.85,20,590,5,
184.502,4.78912,10.0174,1.85,20,590,5,
184.502,4.78851,10.0204,1.85,20,590,5,
184.502,4.78394,10.0189,1.85,20,590,5,
184.502,4.78333,10.022,1.85,20,590,5,
184.502,4.78333,10.0174,1.85,20,590,5,
184.502,4.77844,10.0174,1.85,20,590,5,
184.502,4.77814,10.0204,1.85,20,590,5,
184.502,4.77386,10.0189,1.85,20,590,5,
184.502,4.77325,10.0235,1.85,20,590,5,
184.502,4.77386,10.0174,1.85,20,590,5,
184.502,4.76837,10.0235,1.85,20,590,5,
184.502,4.76898,10.022,1.85,20,590,5,
184.502,4.76593,10.0159,1.85,20,590,5,
184.502,4.76318,10.0174,1.85,20,590,5,
184.502,4.76318,10.0174,1.85,20,590,5,
184.502,4.75952,10.0189,1.85,20,590,5,
184.502,4.7583,10.0174,1.85,20,590,5,
184.502,4.7583,10.0204,1.85,20,590,5,
184.502,4.75342,10.0174,1.85,20,590,5,
184.502,4.75433,10.0189,1.85,20,590,5,
184.502,4.74976,10.022,1.85,20,590,5,
184.502,4.74884,10.0174,1.85,20,590,5,
184.503,4.74884,10.0189,1.85,20,590,5,
184.503,4.74426,10.0204,1.85,20,590,5,
184.503,4.74396,10.0235,1.85,20,590,5,
184.503,4.74152,10.0174,1.85,20,590,5,
184.503,4.73938,10.0189,1.85,20,590,5,
184.503,4.73938,10.0174,1.85,20,590,5,
184.503,4.7348,10.0174,1.85,20,590,5,
184.503,4.73358,10.022,1.85,20,590,5,
184.503,4.73389,10.0174,1.85,20,590,5,
184.503,4.72992,10.0174,1.85,20,590,5,
184.503,4.72961,10.022,1.85,20,590,5,
184.503,4.7287,10.0174,1.85,20,590,5,
184.503,4.72412,10.0174,1.85,20,590,5,
184.503,4.72382,10.0189,1.85,20,590,5,
184.503,4.72198,10.022,1.85,20,590,5,
184.503,4.71893,10.0235,1.85,20,590,5,
184.503,4.71985,10.0204,1.85,20,590,5,
184.503,4.71497,10.0174,1.85,20,590,5,
184.503,4.71558,10.0204,1.85,20,590,5,
184.503,4.71497,10.0235,1.85,20,590,5,
184.503,4.70947,10.0235,1.85,20,590,5,
184.503,4.70978,10.0189,1.85,20,590,5,
184.503,4.70917,10.0159,1.85,20,590,5,
184.503,4.70551,10.0159,1.85,20,590,5,
184.503,4.70428,10.022,1.85,20,590,5,
184.503,4.7049,10.0189,1.85,20,590,5,
184.503,4.70032,10.0189,1.85,20,590,5,
184.503,4.70032,10.0189,1.85,20,590,5,
184.503,4.69788,10.0174,1.85,20,590,5,
184.504,4.69513,10.0204,1.85,20,590,5,
184.504,4.69543,10.0174,1.85,20,590,5,
184.504,4.69269,10.0159,1.85,20,590,5,
184.504,4.69025,10.0174,1.85,20,590,5,
184.504,4.69055,10.0143,1.85,20,590,5,
184.504,4.68597,10.0174,1.85,20,590,5,
184.504,4.68506,10.0204,1.85,20,590,5,
184.504,4.68567,10.0174,1.85,20,590,5,
184.504,4.68109,10.022,1.85,20,590,5,
184.504,4.68079,10.022,1.85,20,590,5,
184.504,4.68018,10.0189,1.85,20,590,5,
184.504,4.67499,10.0174,1.85,20,590,5,
184.504,4.6759,10.022,1.85,20,590,5,
184.504,4.6756,10.0174,1.85,20,590,5,
184.504,4.67072,10.0189,1.85,20,590,5,
184.504,4.67102,10.0204,1.85,20,590,5,
184.504,4.67072,10.0189,1.85,20,590,5,
184.504,4.66675,10.0174,1.85,20,590,5,
184.504,4.66614,10.022,1.85,20,590,5,
184.504,4.66614,10.0204,1.85,20,590,5,
184.504,4.66125,10.022,1.85,20,590,5,
184.504,4.66095,10.022,1.85,20,590,5,
184.504,4.66064,10.0189,1.85,20,590,5,
184.504,4.65851,10.0174,1.85,20,590,5,
184.504,4.65637,10.0204,1.85,20,590,5,
184.504,4.65637,10.0159,1.85,20,590,5,
184.504,4.65363,10.0204,1.85,20,590,5,
184.504,4.65149,10.0189,1.85,20,590,5,
184.504,4.65057,10.0204,1.85,20,590,5,
184.504,4.65149,10.0174,1.85,20,590,5,
184.505,4.6463,10.0174,1.85,20,590,5,
184.505,4.646,10.0189,1.85,20,590,5,
184.505,4.64661,10.0174,1.85,20,590,5,
184.505,4.64172,10.0189,1.85,20,590,5,
184.505,4.64142,10.0174,1.85,20,590,5,
184.505,4.64142,10.022,1.85,20,590,5,
184.505,4.63623,10.0174,1.85,20,590,5,
184.505,4.63654,10.0174,1.85,20,590,5,
184.505,4.63593,10.0174,1.85,20,590,5,
184.505,4.63287,10.022,1.85,20,590,5,
184.505,4.63135,10.0189,1.85,20,590,5,
184.505,4.63074,10.022,1.85,20,590,5,
184.505,4.6283,10.0189,1.85,20,590,5,
184.505,4.62708,10.0143,1.85,20,590,5,
184.505,4.62616,10.0235,1.85,20,590,5,
184.505,4.62616,10.0174,1.85,20,590,5,
184.505,4.62128,10.0189,1.85,20,590,5,
184.505,4.62128,10.0204,1.85,20,590,5,
184.505,4.62128,10.0189,1.85,20,590,5,
184.505,4.61731,10.022,1.85,20,590,5,
184.505,4.6167,10.0189,1.85,20,590,5,
184.505,4.61639,10.0204,1.85,20,590,5,
184.505,4.61731,10.0143,1.85,20,590,5,
184.505,4.61243,10.0159,1.85,20,590,5,
184.505,4.61151,10.022,1.85,20,590,5,
184.505,4.61182,10.0174,1.85,20,590,5,
184.505,4.60754,10.0189,1.85,20,590,5,
184.505,4.60693,10.0189,1.85,20,590,5,
184.505,4.60693,10.0235,1.85,20,590,5,
184.505,4.60724,10.0189,1.85,20,590,5,
184.506,4.60205,10.0174,1.85,20,590,5,
184.506,4.60236,10.0204,1.85,20,590,5,
184.506,4.60175,10.0235,1.85,20,590,5,
184.506,4.60266,10.022,1.85,20,590,5,
184.506,4.59686,10.0174,1.85,20,590,5,
184.506,4.59656,10.0189,1.85,20,590,5,
184.506,4.59747,10.0174,1.85,20,590,5,
184.506,4.59686,10.0159,1.85,20,590,5,
184.506,4.59198,10.022,1.85,20,590,5,
184.506,4.59198,10.022,1.85,20,590,5,
184.506,4.59198,10.022,1.85,20,590,5,
184.506,4.58893,10.0159,1.85,20,590,5,
184.506,4.5871,10.022,1.85,20,590,5,
184.506,4.58679,10.0174,1.85,20,590,5,
184.506,4.5874,10.0189,1.85,20,590,5,
184.506,4.58435,10.0189,1.85,20,590,5,
184.506,4.58191,10.0189,1.85,20,590,5,
184.506,4.58191,10.0189,1.85,20,590,5,
184.506,4.58252,10.0189,1.85,20,590,5,
184.506,4.58008,10.0189,1.85,20,590,5,
184.506,4.57764,10.0189,1.85,20,590,5,
184.506,4.57764,10.0204,1.85,20,590,5,
184.506,4.57733,10.022,1.85,20,590,5,
184.506,4.57733,10.0189,1.85,20,590,5,
184.506,4.57275,10.0204,1.85,20,590,5,
184.506,4.57245,10.0174,1.85,20,590,5,
184.506,4.57214,10.0189,1.85,20,590,5,
184.506,4.57245,10.0189,1.85,20,590,5,
184.506,4.56787,10.0174,1.85,20,590,5,
184.506,4.56787,10.022,1.85,20,590,5,
184.506,4.56787,10.0204,1.85,20,590,5,
184.507,4.56726,10.022,1.85,20,590,5,
184.507,4.56787,10.022,1.85,20,590,5,
184.507,4.56299,10.0174,1.85,20,590,5,
184.507,4.56329,10.0235,1.85,20,590,5,
184.507,4.56238,10.022,1.85,20,590,5,
184.507,4.56268,10.022,1.85,20,590,5,
184.507,4.56024,10.0174,1.85,20,590,5,
184.507,4.5578,10.0174,1.85,20,590,5,
184.507,4.55841,10.0189,1.85,20,590,5,
184.507,4.5578,10.0189,1.85,20,590,5,
184.507,4.5578,10.022,1.85,20,590,5,
184.507,4.55811,10.0235,1.85,20,590,5,
184.507,4.55322,10.0174,1.85,20,590,5,
184.507,4.55292,10.0204,1.85,20,590,5,
184.507,4.55322,10.0159,1.85,20,590,5,
184.507,4.55322,10.0189,1.85,20,590,5,
184.507,4.55292,10.0159,1.85,20,590,5,
184.507,4.54865,10.0159,1.85,20,590,5,
184.507,4.54803,10.0189,1.85,20,590,5,
184.507,4.54834,10.0204,1.85,20,590,5,
184.507,4.54865,10.0189,1.85,20,590,5,
184.507,4.54803,10.0189,1.85,20,590,5,
184.507,4.54803,10.0189,1.85,20,590,5,
184.507,4.54437,10.0159,1.85,20,590,5,
184.507,4.54346,10.022,1.85,20,590,5,
184.507,4.54254,10.022,1.85,20,590,5,
184.507,4.54346,10.0189,1.85,20,590,5,
184.507,4.54407,10.0159,1.85,20,590,5,
184.507,4.54315,10.0174,1.85,20,590,5,
184.507,4.54346,10.0174,1.85,20,590,5,
184.508,4.53827,10.0189,1.85,20,590,5,
184.508,4.53827,10.0189,1.85,20,590,5,
184.508,4.53827,10.0189,1.85,20,590,5,
184.508,4.53888,10.022,1.85,20,590,5,
184.508,4.53796,10.0159,1.85,20,590,5,
184.508,4.53766,10.0159,1.85,20,590,5,
184.508,4.53796,10.0189,1.85,20,590,5,
184.508,4.53796,10.0174,1.85,20,590,5,
184.508,4.53339,10.0189,1.85,20,590,5,
184.508,4.53339,10.0113,1.85,20,590,5,
184.508,4.534,10.0098,1.85,20,590,5,
184.508,4.53339,10.0098,1.85,20,590,5,
184.508,4.53308,10.0067,1.85,20,590,5,
184.508,4.53369,10.0067,1.85,20,590,5,
184.508,4.53339,10.0067,1.85,20,590,5,
184.508,4.534,10.0067,1.85,20,590,5,
184.508,4.53369,10.0082,1.85,20,590,5,
184.508,4.53369,10.0082,1.85,20,590,5,
184.508,4.53064,10.0067,1.85,20,590,5,
184.508,4.5285,10.0098,1.85,20,590,5,
184.508,4.5285,10.0098,1.85,20,590,5,
184.508,4.5285,10.0082,1.85,20,590,5,
184.508,4.5285,10.0082,1.85,20,590,5,
184.508,4.5285,10.0082,1.85,20,590,5,
184.508,4.52881,10.0067,1.85,20,590,5,
184.508,4.52789,10.0082,1.85,20,590,5,
184.508,4.5285,10.0082,1.85,20,590,5,
184.508,4.5282,10.0113,1.85,20,590,5,
184.508,4.5285,10.0052,1.85,20,590,5,
184.508,4.52911,10.0052,1.85,20,590,5,
184.509,4.5285,10.0052,1.85,20,590,5,
184.509,4.52881,10.0082,1.85,20,590,5,
184.509,4.52881,10.0052,1.85,20,590,5,
184.509,4.52881,10.0067,1.85,20,590,5,
184.509,4.5285,10.0082,1.85,20,590,5,
184.509,4.5282,10.0052,1.85,20,590,5,
184.509,4.5285,10.0052,1.85,20,590,5,
184.509,4.52423,10.0052,1.85,20,590,5,
184.509,4.52393,10.0067,1.85,20,590,5,
184.509,4.52362,10.0082,1.85,20,590,5,
184.509,4.52393,10.0113,1.85,20,590,5,
184.509,4.52393,10.0098,1.85,20,590,5,
184.509,4.52393,10.0082,1.85,20,590,5,
184.509,4.52332,10.0067,1.85,20,590,5,
184.509,4.52301,10.0052,1.85,20,590,5,
184.509,4.52301,10.0082,1.85,20,590,5,
184.509,4.52332,10.0098,1.85,20,590,5,
184.509,4.52332,10.0067,1.85,20,590,5,
184.509,4.52423,10.0082,1.85,20,590,5,
184.509,4.52393,10.0052,1.85,20,590,5,
184.509,4.52393,10.0067,1.85,20,590,5,
184.509,4.52393,10.0067,1.85,20,590,5,
184.509,4.52423,10.0082,1.85,20,590,5,
184.509,4.52423,10.0082,1.85,20,590,5,
184.509,4.52362,10.0082,1.85,20,590,5,
184.509,4.5285,10.0052,1.85,20,590,5,
184.509,4.52881,10.0067,1.85,20,590,5,
184.509,4.5285,10.0098,1.85,20,590,5,
184.509,4.52881,10.0052,1.85,20,590,5,
184.51,4.5285,10.0067,1.85,20,590,5,
184.51,4.5285,10.0052,1.85,20,590,5,
184.51,4.52911,10.0067,1.85,20,590,5,
184.51,4.5285,10.0052,1.85,20,590,5,
184.51,4.52881,10.0082,1.85,20,590,5,
184.51,4.52789,10.0067,1.85,20,590,5,
184.51,4.52881,10.0052,1.85,20,590,5,
184.51,4.52789,10.0082,1.85,20,590,5,
184.51,4.5282,10.0082,1.85,20,590,5,
184.51,4.52911,10.0067,1.85,20,590,5,
184.51,4.5285,10.0082,1.85,20,590,5,
184.51,4.5285,10.0082,1.85,20,590,5,
184.51,4.5285,10.0067,1.85,20,590,5,
184.51,4.5285,10.0082,1.85,20,590,5,
184.51,4.52789,10.0067,1.85,20,590,5,
184.51,4.52881,10.0067,1.85,20,590,5,
184.51,4.53339,10.0052,1.85,20,590,5,
184.51,4.53339,10.0067,1.85,20,590,5,
184.51,4.53369,10.0082,1.85,20,590,5,
184.51,4.53308,10.0098,1.85,20,590,5,
184.51,4.534,10.0021,1.85,20,590,5,
184.51,4.53339,10.0052,1.85,20,590,5,
184.51,4.53308,10.0021,1.85,20,590,5,
184.51,4.53308,10.0052,1.85,20,590,5,
184.51,4.53369,10.0037,1.85,20,590,5,
184.51,4.53369,10.0067,1.85,20,590,5,
184.51,4.53278,10.0098,1.85,20,590,5,
184.51,4.53644,10.0082,1.85,20,590,5,
184.51,4.53888,10.0067,1.85,20,590,5,
184.51,4.53796,10.0037,1.85,20,590,5,
184.511,4.53735,10.0098,1.85,20,590,5,
184.511,4.53827,10.0037,1.85,20,590,5,
184.511,4.53827,10.0082,1.85,20,590,5,
184.511,4.53857,10.0082,1.85,20,590,5,
184.511,4.53766,10.0098,1.85,20,590,5,
184.511,4.53827,10.0113,1.85,20,590,5,
184.511,4.53857,10.0098,1.85,20,590,5,
184.511,4.54224,10.0067,1.85,20,590,5,
184.511,4.54346,10.0082,1.85,20,590,5,
184.511,4.54376,10.0098,1.85,20,590,5,
184.511,4.54346,10.0082,1.85,20,590,5,
184.511,4.54315,10.0082,1.85,20,590,5,
184.511,4.54407,10.0082,1.85,20,590,5,
184.511,4.54254,10.0067,1.85,20,590,5,
184.511,4.54315,10.0067,1.85,20,590,5,
184.511,4.54315,10.0082,1.85,20,590,5,
184.511,4.54803,10.0067,1.85,20,590,5,
184.511,4.54834,10.0098,1.85,20,590,5,
184.511,4.54834,10.0037,1.85,20,590,5,
184.511,4.54895,10.0082,1.85,20,590,5,
184.511,4.54803,10.0082,1.85,20,590,5,
184.511,4.54834,10.0082,1.85,20,590,5,
184.511,4.54803,10.0082,1.85,20,590,5,
184.511,4.54834,10.0052,1.85,20,590,5,
184.511,4.55231,10.0067,1.85,20,590,5,
184.511,4.55353,10.0052,1.85,20,590,5,
184.511,4.55292,10.0052,1.85,20,590,5,
184.511,4.55414,10.0067,1.85,20,590,5,
184.511,4.55414,10.0037,1.85,20,590,5,
184.511,4.55292,10.0067,1.85,20,590,5,
184.512,4.55414,10.0052,1.85,20,590,5,
184.512,4.55353,10.0067,1.85,20,590,5,
184.512,4.55841,10.0082,1.85,20,590,5,
184.512,4.55841,10.0067,1.85,20,590,5,
184.512,4.55841,10.0067,1.85,20,590,5,
184.512,4.5578,10.0082,1.85,20,590,5,
184.512,4.55811,10.0082,1.85,20,590,5,
184.512,4.5575,10.0098,1.85,20,590,5,
184.512,4.55811,10.0067,1.85,20,590,5,
184.512,4.5578,10.0067,1.85,20,590,5,
184.512,4.56329,10.0113,1.85,20,590,5,
184.512,4.5636,10.0082,1.85,20,590,5,
184.512,4.56238,10.0082,1.85,20,590,5,
184.512,4.56299,10.0113,1.85,20,590,5,
184.512,4.56268,10.0052,1.85,20,590,5,
184.512,4.56268,10.0082,1.85,20,590,5,
184.512,4.56207,10.0098,1.85,20,590,5,
184.512,4.56726,10.0067,1.85,20,590,5,
184.512,4.56665,10.0098,1.85,20,590,5,
184.512,4.56726,10.0052,1.85,20,590,5,
184.512,4.56726,10.0052,1.85,20,590,5,
184.512,4.56757,10.0052,1.85,20,590,5,
184.512,4.56757,10.0082,1.85,20,590,5,
184.512,4.56696,10.0082,1.85,20,590,5,
184.512,4.57245,10.0037,1.85,20,590,5,
184.512,4.57275,10.0067,1.85,20,590,5,
184.512,4.57153,10.0067,1.85,20,590,5,
184.512,4.57306,10.0052,1.85,20,590,5,
184.512,4.57214,10.0052,1.85,20,590,5,
184.512,4.57245,10.0082,1.85,20,590,5,
184.512,4.57245,10.0067,1.85,20,590,5,
184.513,4.57642,10.0082,1.85,20,590,5,
184.513,4.57733,10.0052,1.85,20,590,5,
184.513,4.57764,10.0006,1.85,20,590,5,
184.513,4.57703,9.99603,1.85,20,590,5,
184.513,4.57733,9.99451,1.85,20,590,5,
184.513,4.57794,9.99451,1.85,20,590,5,
184.513,4.57764,9.99756,1.85,20,590,5,
184.513,4.58191,9.99451,1.85,20,590,5,
184.513,4.58221,9.99451,1.85,20,590,5,
184.513,4.58221,9.99603,1.85,20,590,5,
184.513,4.58191,9.99298,1.85,20,590,5,
184.513,4.58282,9.99603,1.85,20,590,5,
184.513,4.58221,9.99298,1.85,20,590,5,
184.513,4.58191,9.99146,1.85,20,590,5,
184.513,4.58801,9.99298,1.85,20,590,5,
184.513,4.5874,9.99451,1.85,20,590,5,
184.513,4.58679,9.99603,1.85,20,590,5,
184.513,4.5871,9.99298,1.85,20,590,5,
184.513,4.5871,9.99909,1.85,20,590,5,
184.513,4.5871,9.99298,1.85,20,590,5,
184.513,4.59137,9.99451,1.85,20,590,5,
184.513,4.59198,9.99603,1.85,20,590,5,
184.513,4.59229,9.99603,1.85,20,590,5,
184.513,4.59198,9.99298,1.85,20,590,5,
184.513,4.59167,9.99451,1.85,20,590,5,
184.513,4.59229,9.99146,1.85,20,590,5,
184.513,4.59717,9.99451,1.85,20,590,5,
184.513,4.59808,9.99451,1.85,20,590,5,
184.513,4.59686,9.99451,1.85,20,590,5,
184.513,4.59747,9.99756,1.85,20,590,5,
184.514,4.59686,9.99451,1.85,20,590,5,
184.514,4.59717,9.99756,1.85,20,590,5,
184.514,4.60236,9.99451,1.85,20,590,5,
184.514,4.60205,9.99451,1.85,20,590,5,
184.514,4.60236,9.99756,1.85,20,590,5,
184.514,4.60175,9.99451,1.85,20,590,5,
184.514,4.60205,9.99756,1.85,20,590,5,
184.514,4.60205,9.99298,1.85,20,590,5,
184.514,4.60693,9.99146,1.85,20,590,5,
184.514,4.60693,9.99298,1.85,20,590,5,
184.514,4.60663,9.99603,1.85,20,590,5,
184.514,4.60632,9.99756,1.85,20,590,5,
184.514,4.60693,9.99756,1.85,20,590,5,
184.514,4.60999,9.99909,1.85,20,590,5,
184.514,4.61182,9.99451,1.85,20,590,5,
184.514,4.61243,9.99146,1.85,20,590,5,
184.514,4.6109,9.99451,1.85,20,590,5,
184.514,4.61212,9.99756,1.85,20,590,5,
184.514,4.6109,9.99756,1.85,20,590,5,
184.514,4.6167,9.99451,1.85,20,590,5,
184.514,4.61639,9.99603,1.85,20,590,5,
184.514,4.617,9.99603,1.85,20,590,5,
184.514,4.61639,9.99603,1.85,20,590,5,
184.514,4.61731,9.99451,1.85,20,590,5,
184.514,4.61914,9.99756,1.85,20,590,5,
184.514,4.62128,9.99756,1.85,20,590,5,
184.514,4.62158,9.99451,1.85,20,590,5,
184.514,4.62158,9.99603,1.85,20,590,5,
184.514,4.62189,9.99756,1.85,20,590,5,
184.514,4.62158,9.99756,1.85,20,590,5,
184.515,4.62646,9.99603,1.85,20,590,5,
184.515,4.62677,9.99146,1.85,20,590,5,
184.515,4.62646,9.99603,1.85,20,590,5,
184.515,4.62708,9.99603,1.85,20,590,5,
184.515,4.62646,9.99756,1.85,20,590,5,
184.515,4.63104,9.99451,1.85,20,590,5,
184.515,4.63104,9.99451,1.85,20,590,5,
184.515,4.63104,9.99909,1.85,20,590,5,
184.515,4.63165,9.99603,1.85,20,590,5,
184.515,4.63104,9.99756,1.85,20,590,5,
184.515,4.63409,9.99451,1.85,20,590,5,
184.515,4.63623,9.99603,1.85,20,590,5,
184.515,4.63654,9.99298,1.85,20,590,5,
184.515,4.63684,9.99756,1.85,20,590,5,
184.515,4.63684,9.99603,1.85,20,590,5,
184.515,4.63654,9.99756,1.85,20,590,5,
184.515,4.64172,9.99451,1.85,20,590,5,
184.515,4.64111,9.99146,1.85,20,590,5,
184.515,4.64142,9.99451,1.85,20,590,5,
184.515,4.64233,9.99756,1.85,20,590,5,
184.515,4.64142,9.99451,1.85,20,590,5,
184.515,4.646,9.99451,1.85,20,590,5,
184.515,4.6463,9.99451,1.85,20,590,5,
184.515,4.64661,9.99298,1.85,20,590,5,
184.515,4.646,9.99756,1.85,20,590,5,
184.515,4.64661,9.99451,1.85,20,590,5,
184.515,4.65118,9.99603,1.85,20,590,5,
184.515,4.65057,9.99909,1.85,20,590,5,
184.515,4.65118,9.99451,1.85,20,590,5,
184.516,4.65088,9.99451,1.85,20,590,5,
184.516,4.65149,9.99451,1.85,20,590,5,
184.516,4.65546,9.99451,1.85,20,590,5,
184.516,4.65637,9.99451,1.85,20,590,5,
184.516,4.65576,9.99298,1.85,20,590,5,
184.516,4.65607,9.99756,1.85,20,590,5,
184.516,4.65607,9.99451,1.85,20,590,5,
184.516,4.65912,9.98077,1.85,20,590,5,
184.516,4.66095,9.98383,1.85,20,590,5,
184.516,4.66064,9.9823,1.85,20,590,5,
184.516,4.66095,9.98383,1.85,20,590,5,
184.516,4.66064,9.98535,1.85,20,590,5,
184.516,4.66522,9.9823,1.85,20,590,5,
184.516,4.66553,9.98077,1.85,20,590,5,
184.516,4.66553,9.9823,1.85,20,590,5,
184.516,4.66522,9.98383,1.85,20,590,5,
184.516,4.66583,9.98077,1.85,20,590,5,
184.516,4.67041,9.9823,1.85,20,590,5,
184.516,4.67102,9.9823,1.85,20,590,5,
184.516,4.67072,9.98383,1.85,20,590,5,
184.516,4.67072,9.9823,1.85,20,590,5,
184.516,4.67072,9.98383,1.85,20,590,5,
184.516,4.6756,9.98383,1.85,20,590,5,
184.516,4.6759,9.97925,1.85,20,590,5,
184.516,4.67499,9.98077,1.85,20,590,5,
184.516,4.6756,9.9823,1.85,20,590,5,
184.516,4.6759,9.98077,1.85,20,590,5,
184.516,4.68109,9.98077,1.85,20,590,5,
184.516,4.68079,9.98535,1.85,20,590,5,
184.516,4.68018,9.9823,1.85,20,590,5,
184.517,4.68079,9.98077,1.85,20,590,5,
184.517,4.68323,9.98077,1.85,20,590,5,
184.517,4.68567,9.98077,1.85,20,590,5,
184.517,4.68536,9.98077,1.85,20,590,5,
184.517,4.68536,9.98383,1.85,20,590,5,
184.517,4.68506,9.98383,1.85,20,590,5,
184.517,4.69025,9.9823,1.85,20,590,5,
184.517,4.68994,9.9823,1.85,20,590,5,
184.517,4.69025,9.9823,1.85,20,590,5,
184.517,4.69025,9.97925,1.85,20,590,5,
184.517,4.69482,9.98535,1.85,20,590,5,
184.517,4.69513,9.98688,1.85,20,590,5,
184.517,4.69513,9.98383,1.85,20,590,5,
184.517,4.69513,9.9823,1.85,20,590,5,
184.517,4.69757,9.98077,1.85,20,590,5,
184.517,4.70032,9.98535,1.85,20,590,5,
184.517,4.69971,9.98535,1.85,20,590,5,
184.517,4.70032,9.98383,1.85,20,590,5,
184.517,4.70032,9.98383,1.85,20,590,5,
184.517,4.7052,9.97925,1.85,20,590,5,
184.517,4.7049,9.97925,1.85,20,590,5,
184.517,4.7052,9.9823,1.85,20,590,5,
184.517,4.7049,9.9823,1.85,20,590,5,
184.517,4.70947,9.97772,1.85,20,590,5,
184.517,4.70978,9.9823,1.85,20,590,5,
184.517,4.70947,9.9823,1.85,20,590,5,
184.517,4.71252,9.98077,1.85,20,590,5,
184.517,4.71466,9.98077,1.85,20,590,5,
184.517,4.71466,9.98688,1.85,20,590,5,
184.517,4.71497,9.98383,1.85,20,590,5,
184.518,4.71985,9.98077,1.85,20,590,5,
184.518,4.71924,9.98077,1.85,20,590,5,
184.518,4.71954,9.9823,1.85,20,590,5,
184.518,4.71954,9.98383,1.85,20,590,5,
184.518,4.72473,9.98383,1.85,20,590,5,
184.518,4.72382,9.98077,1.85,20,590,5,
184.518,4.72473,9.98383,1.85,20,590,5,
184.518,4.729,9.97925,1.85,20,590,5,
184.518,4.72931,9.98383,1.85,20,590,5,
184.518,4.72931,9.98383,1.85,20,590,5,
184.518,4.72931,9.98077,1.85,20,590,5,
184.518,4.73419,9.98383,1.85,20,590,5,
184.518,4.73419,9.98383,1.85,20,590,5,
184.518,4.7348,9.98077,1.85,20,590,5,
184.518,4.73938,9.98383,1.85,20,590,5,
184.518,4.73938,9.98535,1.85,20,590,5,
184.518,4.73907,9.98077,1.85,20,590,5,
184.518,4.74365,9.98383,1.85,20,590,5,
184.518,4.74487,9.9823,1.85,20,590,5,
184.518,4.74426,9.9823,1.85,20,590,5,
184.518,4.74823,9.97925,1.85,20,590,5,
184.518,4.74915,9.9823,1.85,20,590,5,
184.518,4.74915,9.9823,1.85,20,590,5,
184.518,4.7522,9.9823,1.85,20,590,5,
184.518,4.75403,9.98383,1.85,20,590,5,
184.518,4.75372,9.98535,1.85,20,590,5,
184.518,4.75616,9.9823,1.85,20,590,5,
184.518,4.7583,9.97009,1.85,20,590,5,
184.518,4.75861,9.97315,1.85,20,590,5,
184.518,4.76166,9.97009,1.85,20,590,5,
184.518,4.76379,9.96704,1.85,20,590,5,
184.519,4.76349,9.97315,1.85,20,590,5,
184.519,4.76685,9.97162,1.85,20,590,5,
184.519,4.76868,9.96704,1.85,20,590,5,
184.519,4.76868,9.96704,1.85,20,590,5,
184.519,4.77264,9.97162,1.85,20,590,5,
184.519,4.77356,9.97467,1.85,20,590,5,
184.519,4.77295,9.97162,1.85,20,590,5,
184.519,4.77753,9.97162,1.85,20,590,5,
184.519,4.77814,9.97162,1.85,20,590,5,
184.519,4.77814,9.97009,1.85,20,590,5,
184.519,4.78333,9.97009,1.85,20,590,5,
184.519,4.78424,9.97315,1.85,20,590,5,
184.519,4.78333,9.96857,1.85,20,590,5,
184.519,4.7879,9.97009,1.85,20,590,5,
184.519,4.7876,9.97009,1.85,20,590,5,
184.519,4.79126,9.97009,1.85,20,590,5,
184.519,4.79401,9.97009,1.85,20,590,5,
184.519,4.7934,9.96857,1.85,20,590,5,
184.519,4.79767,9.97315,1.85,20,590,5,
184.519,4.79858,9.97162,1.85,20,590,5,
184.519,4.79828,9.96857,1.85,20,590,5,
184.519,4.80316,9.97162,1.85,20,590,5,
184.519,4.80347,9.97162,1.85,20,590,5,
184.519,4.80652,9.97315,1.85,20,590,5,
184.519,4.80835,9.96857,1.85,20,590,5,
184.519,4.80835,9.97315,1.85,20,590,5,
184.519,4.81293,9.97315,1.85,20,590,5,
184.519,4.81232,9.96857,1.85,20,590,5,
184.519,4.81354,9.96857,1.85,20,590,5,
184.519,4.81842,9.97009,1.85,20,590,5,
184.52,4.8175,9.96857,1.85,20,590,5,
184.52,4.82269,9.97315,1.85,20,590,5,
184.52,4.82269,9.97315,1.85,20,590,5,
184.52,4.823,9.96857,1.85,20,590,5,
184.52,4.82819,9.96704,1.85,20,590,5,
184.52,4.82819,9.97162,1.85,20,590,5,
184.52,4.83185,9.96857,1.85,20,590,5,
184.52,4.83246,9.97467,1.85,20,590,5,
184.52,4.83276,9.97009,1.85,20,590,5,
184.52,4.83734,9.96857,1.85,20,590,5,
184.52,4.83856,9.97467,1.85,20,590,5,
184.52,4.84253,9.96704,1.85,20,590,5,
184.52,4.84161,9.97162,1.85,20,590,5,
184.52,4.84222,9.97315,1.85,20,590,5,
184.52,4.84711,9.97009,1.85,20,590,5,
184.52,4.84772,9.96857,1.85,20,590,5,
184.52,4.85229,9.97009,1.85,20,590,5,
184.52,4.85168,9.97162,1.85,20,590,5,
184.52,4.85443,9.97162,1.85,20,590,5,
184.52,4.85748,9.97009,1.85,20,590,5,
184.52,4.85779,9.97315,1.85,20,590,5,
184.52,4.86206,9.97315,1.85,20,590,5,
184.52,4.86206,9.96704,1.85,20,590,5,
184.52,4.86694,9.97162,1.85,20,590,5,
184.52,4.86694,9.97162,1.85,20,590,5,
184.52,4.86938,9.97162,1.85,20,590,5,
184.52,4.87213,9.97009,1.85,20,590,5,
184.52,4.87213,9.97162,1.85,20,590,5,
184.52,4.87183,9.96857,1.85,20,590,5,
184.52,4.87183,9.96704,1.85,20,590,5,
184.521,4.88068,9.97009,1.85,20,590,5,
184.521,4.88129,9.96857,1.85,20,590,5,
184.521,4.88586,9.97009,1.85,20,590,5,
184.521,4.88586,9.97162,1.85,20,590,5,
184.521,4.88892,9.96704,1.85,20,590,5,
184.521,4.89105,9.97009,1.85,20,590,5,
184.521,4.89136,9.95789,1.85,20,590,5,
184.521,4.89594,9.95636,1.85,20,590,5,
184.521,4.89655,9.96094,1.85,20,590,5,
184.521,4.90051,9.95789,1.85,20,590,5,
184.521,4.90051,9.95789,1.85,20,590,5,
184.521,4.90356,9.95789,1.85,20,590,5,
184.521,4.9054,9.95636,1.85,20,590,5,
184.521,4.90601,9.95483,1.85,20,590,5,
184.521,4.91089,9.95789,1.85,20,590,5,
184.521,4.91089,9.96094,1.85,20,590,5,
184.521,4.91486,9.95636,1.85,20,590,5,
184.521,4.91608,9.96094,1.85,20,590,5,
184.521,4.92004,9.95941,1.85,20,590,5,
184.521,4.92096,9.95941,1.85,20,590,5,
184.521,4.9234,9.95789,1.85,20,590,5,
184.521,4.92584,9.95941,1.85,20,590,5,
184.521,4.92462,9.95636,1.85,20,590,5,
184.521,4.93073,9.95789,1.85,20,590,5,
184.521,4.93011,9.95636,1.85,20,590,5,
184.521,4.935,9.95941,1.85,20,590,5,
184.521,4.93561,9.95636,1.85,20,590,5,
184.521,4.93958,9.96246,1.85,20,590,5,
184.521,4.94019,9.95941,1.85,20,590,5,
184.522,4.94324,9.95789,1.85,20,590,5,
184.522,4.94507,9.95789,1.85,20,590,5,
184.522,4.94537,9.95483,1.85,20,590,5,
184.522,4.94965,9.95789,1.85,20,590,5,
184.522,4.95056,9.96094,1.85,20,590,5,
184.522,4.95544,9.95636,1.85,20,590,5,
184.522,4.95514,9.95789,1.85,20,590,5,
184.522,4.95941,9.95941,1.85,20,590,5,
184.522,4.95941,9.95789,1.85,20,590,5,
184.522,4.96246,9.96094,1.85,20,590,5,
184.522,4.9649,9.95941,1.85,20,590,5,
184.522,4.96552,9.95789,1.85,20,590,5,
184.522,4.96918,9.96094,1.85,20,590,5,
184.522,4.96979,9.96094,1.85,20,590,5,
184.522,4.97437,9.95789,1.85,20,590,5,
184.522,4.97498,9.95941,1.85,20,590,5,
184.522,4.97803,9.96094,1.85,20,590,5,
184.522,4.97955,9.95636,1.85,20,590,5,
184.522,4.98077,9.96246,1.85,20,590,5,
184.522,4.98505,9.95789,1.85,20,590,5,
184.522,4.98444,9.95789,1.85,20,590,5,
184.522,4.98932,9.95636,1.85,20,590,5,
184.522,4.98932,9.95636,1.85,20,590,5,
184.522,4.99512,9.95636,1.85,20,590,5,
184.522,4.99512,9.96094,1.85,20,590,5,
184.522,4.99756,9.95636,1.85,20,590,5,
184.522,5,9.96094,1.85,20,590,5,
184.522,5.00031,9.96094,1.85,20,590,5,
184.522,5.00519,9.96094,1.85,20,590,5,
184.522,5.00458,9.95941,1.85,20,590,5,
184.523,5.00854,9.95941,1.85,20,590,5,
184.523,5.00916,9.95789,1.85,20,590,5,
184.523,5.01221,9.95941,1.85,20,590,5,
184.523,5.01373,9.96094,1.85,20,590,5,
184.523,5.01373,9.95941,1.85,20,590,5,
184.523,5.01862,9.95789,1.85,20,590,5,
184.523,5.01892,9.94873,1.85,20,590,5,
184.523,5.0235,9.94415,1.85,20,590,5,
184.523,5.02319,9.94721,1.85,20,590,5,
184.523,5.02655,9.94721,1.85,20,590,5,
184.523,5.02777,9.94568,1.85,20,590,5,
184.523,5.02838,9.94568,1.85,20,590,5,
184.523,5.03296,9.94873,1.85,20,590,5,
184.523,5.03326,9.94415,1.85,20,590,5,
184.523,5.03784,9.94721,1.85,20,590,5,
184.523,5.03784,9.94568,1.85,20,590,5,
184.523,5.0415,9.94873,1.85,20,590,5,
184.523,5.04395,9.94568,1.85,20,590,5,
184.523,5.04364,9.94873,1.85,20,590,5,
184.523,5.0473,9.94568,1.85,20,590,5,
184.523,5.04791,9.94568,1.85,20,590,5,
184.523,5.05249,9.94568,1.85,20,590,5,
184.523,5.0531,9.94263,1.85,20,590,5,
184.523,5.05585,9.94721,1.85,20,590,5,
184.523,5.05768,9.94263,1.85,20,590,5,
184.523,5.05859,9.94263,1.85,20,590,5,
184.523,5.06226,9.95026,1.85,20,590,5,
184.523,5.06287,9.94415,1.85,20,590,5,
184.523,5.06775,9.94263,1.85,20,590,5,
184.523,5.06775,9.94721,1.85,20,590,5,
184.524,5.07172,9.94263,1.85,20,590,5,
184.524,5.07202,9.94721,1.85,20,590,5,
184.524,5.07538,9.94415,1.85,20,590,5,
184.524,5.07782,9.94568,1.85,20,590,5,
184.524,5.07782,9.94721,1.85,20,590,5,
184.524,5.08087,9.94568,1.85,20,590,5,
184.524,5.08209,9.94415,1.85,20,590,5,
184.524,5.08606,9.94721,1.85,20,590,5,
184.524,5.08667,9.94568,1.85,20,590,5,
184.524,5.09003,9.94415,1.85,20,590,5,
184.524,5.09186,9.94873,0,20,590,5,
184.524,5.09155,9.94415,0,20,590,5,
184.524,5.09857,9.94721,0,20,590,5,
184.524,5.10254,9.94873,0,20,590,5,
184.524,5.10162,9.94568,0,20,590,5,
184.524,5.10651,9.94873,0,20,590,5,
184.524,5.10651,9.94568,0,20,590,5,
184.524,5.11139,9.94415,0,20,590,5,
184.524,5.11139,9.94721,0,20,590,5,
184.524,5.11353,9.94721,0,20,590,5,
184.524,5.11627,9.94263,0,20,590,5,
184.524,5.11719,9.94873,0,20,590,5,
184.524,5.12146,9.94415,0,20,590,5,
184.524,5.12115,9.94721,0,20,590,5,
184.524,5.12604,9.94568,0,20,590,5,
184.524,5.12695,9.94721,0,20,590,5,
184.524,5.12878,9.94568,0,20,590,5,
184.524,5.13092,9.94263,0,20,590,5,
184.524,5.13123,9.94568,0,20,590,5,
184.524,5.13611,9.94568,0,20,590,5,
184.524,5.13641,9.94873,0,20,590,5,
184.525,5.13977,9.94873,0,20,590,5,
184.525,5.14038,9.935,0,20,590,5,
184.525,5.14404,9.93195,0,20,590,5,
184.525,5.14557,9.93347,0,20,590,5,
184.525,5.14557,9.935,0,20,590,5,
184.525,5.15076,9.935,0,20,590,5,
184.525,5.15167,9.93652,0,20,590,5,
184.525,5.1532,9.93195,0,20,590,5,
184.525,5.15503,9.935,0,20,590,5,
184.525,5.15533,9.93195,0,20,590,5,
184.525,5.16113,9.93347,0,20,590,5,
184.525,5.16022,9.935,0,20,590,5,
184.525,5.16479,9.93652,0,20,590,5,
184.525,5.16479,9.93652,0,20,590,5,
184.525,5.16479,9.93652,0,20,590,5,
184.525,5.17059,9.93805,0,20,590,5,
184.525,5.1709,9.93652,0,20,590,5,
184.525,5.17487,9.93347,0,20,590,5,
184.525,5.17548,9.93195,0,20,590,5,
184.525,5.17456,9.93347,0,20,590,5,
184.525,5.17975,9.935,0,20,590,5,
184.525,5.17975,9.93347,0,20,590,5,
184.525,5.18402,9.93652,0,20,590,5,
184.525,5.18463,9.93195,0,20,590,5,
184.525,5.18524,9.93652,0,20,590,5,
184.525,5.18982,9.93195,0,20,590,5,
184.525,5.19043,9.93195,0,20,590,5,
184.525,5.19348,9.93652,0,20,590,5,
184.525,5.1944,9.93347,0,20,590,5,
184.525,5.1947,9.93195,0,20,590,5,
184.526,5.19897,9.93347,0,20,590,5,
184.526,5.19989,9.935,0,20,590,5,
184.526,5.19989,9.935,0,20,590,5,
184.526,5.20386,9.935,0,20,590,5,
184.526,5.20477,9.93347,0,20,590,5,
184.526,5.20721,9.93347,0,20,590,5,
184.526,5.20905,9.935,0,20,590,5,
184.526,5.21027,9.935,0,20,590,5,
184.526,5.21362,9.935,0,20,590,5,
184.526,5.21423,9.93195,0,20,590,5,
184.526,5.21423,9.935,0,20,590,5,
184.526,5.21973,9.93347,0,20,590,5,
184.526,5.22003,9.93195,0,20,590,5,
184.526,5.21973,9.93195,0,20,590,5,
184.526,5.22522,9.93652,0,20,590,5,
184.526,5.22491,9.935,0,20,590,5,
184.526,5.22736,9.93195,0,20,590,5,
184.526,5.22888,9.93347,0,20,590,5,
184.526,5.22949,9.93347,0,20,590,5,
184.526,5.23224,9.93347,0,20,590,5,
184.526,5.23499,9.935,0,20,590,5,
184.526,5.23438,9.93347,0,20,590,5,
184.526,5.23865,9.93347,0,20,590,5,
184.526,5.23956,9.93347,0,20,590,5,
184.526,5.23865,9.92584,0,20,590,5,
184.526,5.24323,9.91821,0,20,590,5,
184.526,5.24353,9.92432,0,20,590,5,
184.526,5.24384,9.92279,0,20,590,5,
184.526,5.2478,9.92432,0,20,590,5,
184.526,5.24963,9.91974,0,20,590,5,
184.527,5.24841,9.91974,0,20,590,5,
184.527,5.25238,9.91974,0,20,590,5,
184.527,5.2536,9.91821,0,20,590,5,
184.527,5.25299,9.92127,0,20,590,5,
184.527,5.25635,9.92127,0,20,590,5,
184.527,5.25909,9.92127,0,20,590,5,
184.527,5.25848,9.92279,0,20,590,5,
184.527,5.25848,9.92279,0,20,590,5,
184.527,5.26367,9.92432,0,20,590,5,
184.527,5.26306,9.92432,0,20,590,5,
184.527,5.26337,9.92127,0,20,590,5,
184.527,5.26825,9.92584,0,20,590,5,
184.527,5.26794,9.92432,0,20,590,5,
184.527,5.26917,9.91974,0,20,590,5,
184.527,5.27344,9.92432,0,20,590,5,
184.527,5.27283,9.91821,0,20,590,5,
184.527,5.27344,9.92127,0,20,590,5,
184.527,5.27649,9.92279,0,20,590,5,
184.527,5.27832,9.92432,0,20,590,5,
184.527,5.27771,9.91821,0,20,590,5,
184.527,5.27802,9.92279,0,20,590,5,
184.527,5.27832,9.92279,0,20,590,5,
184.527,5.27771,9.91974,0,20,590,5,
184.527,5.28259,9.92432,0,20,590,5,
184.527,5.28809,9.91669,0,20,590,5,
184.527,5.28809,9.92127,0,20,590,5,
184.527,5.289,9.92279,0,20,590,5,
184.527,5.28778,9.92127,0,20,590,5,
184.527,5.29358,9.92127,0,20,591,5,
184.528,5.29327,9.91974,0,20,591,5,
184.528,5.29327,9.92127,0,20,591,5,
184.528,5.29816,9.92127,0,20,591,5,
184.528,5.29816,9.92127,0,20,591,5,
184.528,5.29785,9.92127,0,20,591,5,
184.528,5.3009,9.92127,0,20,591,5,
184.528,5.30334,9.91974,0,20,591,5,
184.528,5.30243,9.91821,0,20,591,5,
184.528,5.30273,9.92432,0,20,591,5,
184.528,5.30823,9.92127,0,20,591,5,
184.528,5.30792,9.92127,0,20,591,5,
184.528,5.30792,9.92127,0,20,591,5,
184.528,5.31067,9.92432,0,20,591,5,
184.528,5.31219,9.90906,0,20,591,5,
184.528,5.3125,9.90753,0,20,591,5,
184.528,5.3125,9.90753,0,20,591,5,
184.528,5.31677,9.90906,0,20,591,5,
184.528,5.31708,9.91058,0,20,591,5,
184.528,5.31769,9.91058,0,20,591,5,
184.528,5.31769,9.90601,0,20,591,5,
184.528,5.32227,9.91058,0,20,591,5,
184.528,5.32196,9.90906,0,20,591,5,
184.528,5.32166,9.90906,0,20,591,5,
184.528,5.32623,9.90906,0,20,591,5,
184.528,5.32654,9.90906,0,20,591,5,
184.528,5.32715,9.91211,0,20,591,5,
184.528,5.32715,9.90906,0,20,591,5,
184.528,5.33234,9.90906,0,20,591,5,
184.528,5.33203,9.90753,0,20,591,5,
184.528,5.33203,9.91058,0,20,591,5,
184.529,5.336,9.90906,0,20,591,5,
184.529,5.33722,9.90753,0,20,591,5,
184.529,5.33661,9.91058,0,20,591,5,
184.529,5.33722,9.90753,0,20,591,5,
184.529,5.34119,9.90906,0,20,591,5,
184.529,5.34241,9.90753,0,20,591,5,
184.529,5.3421,9.91211,0,20,591,5,
184.529,5.34393,9.91058,0,20,591,5,
184.529,5.34668,9.90601,0,20,591,5,
184.529,5.34698,9.90906,0,20,591,5,
184.529,5.34698,9.90906,0,20,591,5,
184.529,5.35095,9.91211,0,20,591,5,
184.529,5.35126,9.90753,0,20,591,5,
184.529,5.35065,9.91058,0,20,591,5,
184.529,5.35156,9.90906,0,20,591,5,
184.529,5.35675,9.91058,0,20,591,5,
184.529,5.35706,9.91211,0,20,591,5,
184.529,5.35614,9.90753,0,20,591,5,
184.529,5.35706,9.90753,0,20,591,5,
184.529,5.36194,9.90753,0,20,591,5,
184.529,5.36133,9.91058,0,20,591,5,
184.529,5.36133,9.91516,0,20,591,5,
184.529,5.36163,9.91211,0,20,591,5,
184.529,5.36621,9.90753,0,20,591,5,
184.529,5.36652,9.90448,0,20,591,5,
184.529,5.36591,9.90906,0,20,591,5,
184.529,5.36926,9.90906,0,20,591,5,
184.529,5.37201,9.91058,0,20,591,5,
184.529,5.3714,9.91058,0,20,591,5,
184.529,5.3714,9.91211,0,20,591,5,
184.53,5.37506,9.90448,0,20,591,5,
184.53,5.37567,9.8999,0,20,591,5,
184.53,5.37659,9.8999,0,20,591,5,
184.53,5.37537,9.89838,0,20,591,5,
184.53,5.38086,9.89685,0,20,591,5,
184.53,5.38116,9.89838,0,20,591,5,
184.53,5.38116,9.89685,0,20,591,5,
184.53,5.38116,9.8938,0,20,591,5,
184.53,5.38574,9.89533,0,20,591,5,
184.53,5.38574,9.90143,0,20,591,5,
184.53,5.38635,9.89533,0,20,591,5,
184.53,5.38635,9.89838,0,20,591,5,
184.53,5.39062,9.8938,0,20,591,5,
184.53,5.39062,9.8938,0,20,591,5,
184.53,5.39032,9.89685,0,20,591,5,
184.53,5.39062,9.89685,0,20,591,5,
184.53,5.39612,9.89685,0,20,591,5,
184.53,5.39612,9.89838,0,20,591,5,
184.53,5.39612,9.89533,0,20,591,5,
184.53,5.39581,9.89227,0,20,591,5,
184.53,5.40039,9.89685,0,20,591,5,
184.53,5.4007,9.89533,0,20,591,5,
184.53,5.40039,9.89685,0,20,591,5,
184.53,5.4007,9.8938,0,20,591,5,
184.53,5.40588,9.89685,0,20,591,5,
184.53,5.40619,9.8999,0,20,591,5,
184.53,5.40527,9.89838,0,20,591,5,
184.53,5.40558,9.89838,0,20,591,5,
184.53,5.41016,9.89838,0,20,591,5,
184.53,5.41046,9.89685,0,20,591,5,
184.53,5.41077,9.89685,0,20,591,5,
184.531,5.41016,9.90143,0,20,591,5,
184.531,5.41321,9.89685,0,20,591,5,
184.531,5.41626,9.89685,0,20,591,5,
184.531,5.41534,9.89685,0,20,591,5,
184.531,5.41504,9.8999,0,20,591,5,
184.531,5.41534,9.89533,0,20,591,5,
184.531,5.41534,9.8999,0,20,591,5,
184.531,5.41992,9.89838,0,20,591,5,
184.531,5.42023,9.8999,0,20,591,5,
184.531,5.42023,9.8938,0,20,591,5,
184.531,5.42023,9.89838,0,20,591,5,
184.531,5.42023,9.8938,0,20,591,5,
184.531,5.4248,9.8938,0,20,591,5,
184.531,5.42511,9.8938,0,20,591,5,
184.531,5.42572,9.89685,0,20,591,5,
184.531,5.4248,9.88922,0,20,591,5,
184.531,5.42816,9.88464,0,20,591,5,
184.531,5.43091,9.88312,0,20,591,5,
184.531,5.43091,9.88922,0,20,591,5,
184.531,5.42999,9.88159,0,20,591,5,
184.531,5.4303,9.88312,0,20,591,5,
184.531,5.43274,9.88464,0,20,591,5,
184.531,5.43549,9.8877,0,20,591,5,
184.531,5.43518,9.88312,0,20,591,5,
184.531,5.43579,9.88617,0,20,591,5,
184.531,5.43579,9.88464,0,20,591,5,
184.531,5.43762,9.88464,0,20,591,5,
184.531,5.44037,9.8877,0,20,591,5,
184.531,5.43976,9.88312,0,20,591,5,
184.531,5.44067,9.88617,0,20,591,5,
184.532,5.43976,9.88464,0,20,591,5,
184.532,5.44067,9.88464,0,20,591,5,
184.532,5.44464,9.88617,0,20,591,5,
184.532,5.44556,9.88617,0,20,591,5,
184.532,5.44495,9.88617,0,20,591,5,
184.532,5.44525,9.88312,0,20,591,5,
184.532,5.44525,9.88312,0,20,591,5,
184.532,5.4483,9.88464,0,20,591,5,
184.532,5.44952,9.88617,0,20,591,5,
184.532,5.44983,9.88464,0,20,591,5,
184.532,5.44983,9.88312,0,20,591,5,
184.532,5.45074,9.88464,0,20,591,5,
184.532,5.45013,9.88464,0,20,591,5,
184.532,5.4538,9.88617,0,20,591,5,
184.532,5.4541,9.88312,0,20,591,5,
184.532,5.45471,9.88617,0,20,591,5,
184.532,5.45502,9.88617,0,20,591,5,
184.532,5.45441,9.88617,0,20,591,5,
184.532,5.45532,9.88617,0,20,591,5,
184.532,5.45776,9.88159,0,20,591,5,
184.532,5.45929,9.88617,0,20,591,5,
184.532,5.4599,9.88464,0,20,591,5,
184.532,5.46021,9.88159,0,20,591,5,
184.532,5.45929,9.8877,0,20,591,5,
184.532,5.45959,9.88617,0,20,591,5,
184.532,5.45959,9.88464,0,20,591,5,
184.532,5.46387,9.88464,0,20,591,5,
184.532,5.46478,9.88617,0,20,591,5,
184.532,5.46509,9.88464,0,20,591,5,
184.532,5.46478,9.88617,0,20,591,5,
184.533,5.46417,9.88464,0,20,591,5,
184.533,5.46478,9.87396,0,20,591,5,
184.533,5.46509,9.86939,0,20,591,5,
184.533,5.46936,9.87091,0,20,591,5,
184.533,5.46906,9.87091,0,20,591,5,
184.533,5.46967,9.87091,0,20,591,5,
184.533,5.46967,9.87244,0,20,591,5,
184.533,5.46967,9.87396,0,20,591,5,
184.533,5.46967,9.87091,0,20,591,5,
184.533,5.46906,9.87244,0,20,591,5,
184.533,5.46906,9.86939,0,20,591,5,
184.533,5.47394,9.87091,0,20,591,5,
184.533,5.47424,9.87091,0,20,591,5,
184.533,5.47394,9.87244,0,20,591,5,
184.533,5.47424,9.87396,0,20,591,5,
184.533,5.47363,9.87244,0,20,591,5,
184.533,5.47424,9.87091,0,20,591,5,
184.533,5.47424,9.87244,0,20,591,5,
184.533,5.47455,9.87091,0,20,591,5,
184.533,5.47424,9.87244,0,20,591,5,
184.533,5.47913,9.87244,0,20,591,5,
184.533,5.47913,9.87549,0,20,591,5,
184.533,5.47882,9.87091,0,20,591,5,
184.533,5.47882,9.87396,0,20,591,5,
184.533,5.47943,9.87244,0,20,591,5,
184.533,5.47974,9.87091,0,20,591,5,
184.533,5.47882,9.87396,0,20,591,5,
184.533,5.47974,9.87091,0,20,591,5,
184.533,5.47943,9.87244,0,20,591,5,
184.534,5.47913,9.87091,0,20,591,5,
184.534,5.47943,9.87244,0,20,591,5,
184.534,5.48462,9.87396,0,20,591,5,
184.534,5.4837,9.87091,0,20,591,5,
184.534,5.48431,9.87244,0,20,591,5,
184.534,5.48401,9.87549,0,20,591,5,
184.534,5.48462,9.87396,0,20,591,5,
184.534,5.48462,9.87396,0,20,591,5,
184.534,5.4834,9.87244,0,20,591,5,
184.534,5.4837,9.87396,0,20,591,5,
184.534,5.4834,9.86939,0,20,591,5,
184.534,5.4834,9.87244,0,20,591,5,
184.534,5.4834,9.86939,0,20,591,5,
184.534,5.48431,9.86023,0,20,591,5,
184.534,5.48309,9.86176,2.074,20,591,5,
184.534,5.48401,9.86023,2.074,20,591,5,
184.534,5.4834,9.86176,2.074,20,591,5,
184.534,5.48309,9.86023,2.074,20,591,5,
184.534,5.4837,9.86023,2.074,20,591,5,
184.534,5.48859,9.85718,2.074,20,591,5,
184.534,5.48859,9.8587,2.074,20,591,5,
184.534,5.4892,9.86023,2.074,20,591,5,
184.534,5.4895,9.8587,2.074,20,591,5,
184.534,5.48859,9.85718,2.074,20,591,5,
184.534,5.48889,9.86023,2.074,20,591,5,
184.534,5.48859,9.86176,2.074,20,591,5,
184.534,5.48798,9.86023,2.074,20,591,5,
184.534,5.48859,9.86023,2.074,20,591,5,
184.534,5.48889,9.8587,2.074,20,591,5,
184.534,5.48828,9.86023,2.074,20,591,5,
184.535,5.48889,9.86023,2.074,20,591,5,
184.535,5.48859,9.86023,2.074,20,591,5,
184.535,5.4892,9.86328,2.074,20,591,5,
184.535,5.48889,9.8587,2.074,20,591,5,
184.535,5.4892,9.8587,2.074,20,591,5,
184.535,5.48401,9.85718,2.074,20,591,5,
184.535,5.48431,9.85718,2.074,20,591,5,
184.535,5.4837,9.8587,2.074,20,591,5,
184.535,5.48462,9.8587,2.074,20,591,5,
184.535,5.4837,9.86023,2.074,20,591,5,
184.535,5.4837,9.86023,2.074,20,591,5,
184.535,5.48309,9.8587,2.074,20,591,5,
184.535,5.48401,9.86023,2.074,20,591,5,
184.535,5.4837,9.85718,2.074,20,591,5,
184.535,5.4837,9.86023,2.074,20,591,5,
184.535,5.48431,9.86176,2.074,20,591,5,
184.535,5.4837,9.8587,2.074,20,591,5,
184.535,5.48401,9.8587,2.074,20,591,5,
184.535,5.48401,9.8587,2.074,20,591,5,
184.535,5.47852,9.86023,2.074,20,591,5,
184.535,5.47852,9.86176,2.074,20,591,5,
184.535,5.47882,9.86023,2.074,20,591,5,
184.535,5.47882,9.8587,2.074,20,591,5,
184.535,5.47852,9.84802,2.074,20,591,5,
184.535,5.47943,9.84497,2.074,20,591,5,
184.535,5.47882,9.85108,2.074,20,591,5,
184.535,5.47852,9.84955,2.074,20,591,5,
184.535,5.47394,9.84802,2.074,20,591,5,
184.535,5.47424,9.84802,2.074,20,591,5,
184.535,5.47394,9.84802,2.074,20,591,5,
184.536,5.47455,9.84955,2.074,20,591,5,
184.536,5.47424,9.84497,2.074,20,591,5,
184.536,5.47424,9.8465,2.074,20,591,5,
184.536,5.47363,9.8465,2.074,20,591,5,
184.536,5.47363,9.84955,2.074,20,591,5,
184.536,5.47394,9.8465,2.074,20,591,5,
184.536,5.47363,9.84802,2.074,20,591,5,
184.536,5.47455,9.8465,2.074,20,591,5,
184.536,5.47333,9.8465,2.074,20,591,5,
184.536,5.47455,9.85108,2.074,20,591,5,
184.536,5.47302,9.84802,2.074,20,591,5,
184.536,5.47424,9.84497,2.074,20,591,5,
184.536,5.47363,9.84802,2.074,20,591,5,
184.536,5.47394,9.84497,2.074,20,591,5,
184.536,5.47363,9.84802,2.074,20,591,5,
184.536,5.47424,9.8465,2.074,20,591,5,
184.536,5.47363,9.84802,2.074,20,591,5,
184.536,5.47424,9.85108,2.074,20,591,5,
184.536,5.47302,9.85108,2.074,20,591,5,
184.536,5.47302,9.84497,2.074,20,591,5,
184.536,5.47394,9.84955,2.074,20,591,5,
184.536,5.47424,9.8465,2.074,20,591,5,
184.536,5.47363,9.84802,2.074,20,591,5,
184.536,5.47363,9.8465,2.074,20,591,5,
184.536,5.47363,9.84802,2.074,20,591,5,
184.536,5.47302,9.8465,2.074,20,591,5,
184.536,5.47363,9.84497,2.074,20,591,5,
184.536,5.47455,9.84802,2.074,20,591,5,
184.536,5.47394,9.8465,2.074,20,591,5,
184.536,5.47394,9.84497,2.074,20,591,5,
184.536,5.47394,9.8465,2.074,20,591,5,
184.537,5.47455,9.84497,2.074,20,591,5,
184.537,5.47394,9.84955,2.074,20,591,5,
184.537,5.45166,9.84039,2.074,20,591,5,
184.537,5.43518,9.83734,2.074,20,591,5,
184.537,5.43213,9.83734,2.074,20,591,5,
184.537,5.4303,9.83582,2.074,20,591,5,
184.537,5.42999,9.83582,2.074,20,591,5,
184.537,5.42755,9.83429,2.074,20,591,5,
184.537,5.42603,9.83429,2.074,20,591,5,
184.537,5.42511,9.83582,2.074,20,591,5,
184.537,5.42114,9.83582,2.074,20,591,5,
184.537,5.42023,9.83887,2.074,20,591,5,
184.537,5.42084,9.83124,2.074,20,591,5,
184.537,5.41565,9.83276,2.074,20,591,5,
184.537,5.41565,9.83734,2.074,20,591,5,
184.537,5.41168,9.83887,2.074,20,591,5,
184.537,5.41138,9.83582,2.074,20,591,5,
184.537,5.41016,9.83582,2.074,20,591,5,
184.537,5.40619,9.83734,2.074,20,591,5,
184.537,5.40588,9.83734,2.074,20,591,5,
184.537,5.40131,9.83734,2.074,20,591,5,
184.537,5.401,9.83582,2.074,20,591,5,
184.537,5.39764,9.83734,2.074,20,591,5,
184.537,5.39581,9.83429,2.074,20,591,5,
184.537,5.39612,9.83124,2.074,20,591,5,
184.537,5.39093,9.83734,2.074,20,591,5,
184.537,5.39062,9.83887,2.074,20,591,5,
184.537,5.38635,9.83734,2.074,20,591,5,
184.537,5.38696,9.83582,2.074,20,591,5,
184.537,5.38116,9.83429,2.074,20,591,5,
184.538,5.38116,9.83276,2.074,20,591,5,
184.538,5.37384,9.83429,2.074,20,591,5,
184.538,5.3714,9.83582,2.074,20,591,5,
184.538,5.36774,9.83582,2.074,20,591,5,
184.538,5.3656,9.83734,2.074,20,591,5,
184.538,5.36346,9.84039,2.074,20,591,5,
184.538,5.36133,9.83429,2.074,20,591,5,
184.538,5.35706,9.83429,2.074,20,591,5,
184.538,5.35583,9.83582,2.074,20,591,5,
184.538,5.35645,9.83582,2.074,20,591,5,
184.538,5.35217,9.83734,2.074,20,591,5,
184.538,5.35126,9.83887,2.074,20,591,5,
184.538,5.3476,9.83582,2.074,20,591,5,
184.538,5.34668,9.83734,2.074,20,591,5,
184.538,5.3421,9.82666,2.074,20,591,5,
184.538,5.34149,9.82208,2.074,20,591,5,
184.538,5.33722,9.81903,2.074,20,591,5,
184.538,5.33722,9.82056,2.074,20,591,5,
184.538,5.33142,9.82361,2.074,20,591,5,
184.538,5.32928,9.82361,2.074,20,591,5,
184.538,5.32715,9.82208,2.074,20,591,5,
184.538,5.32257,9.82208,2.074,20,591,5,
184.538,5.32257,9.82056,2.074,20,591,5,
184.538,5.31708,9.82361,2.074,20,591,5,
184.538,5.31799,9.82208,2.074,20,591,5,
184.538,5.3125,9.82056,2.074,20,591,5,
184.538,5.31189,9.82208,2.074,20,591,5,
184.538,5.30762,9.82361,2.074,20,591,5,
184.538,5.30548,9.81903,2.074,20,591,5,
184.538,5.30273,9.82514,2.074,20,591,5,
184.539,5.29877,9.82361,2.074,20,591,5,
184.539,5.29755,9.82208,2.074,20,591,5,
184.539,5.29358,9.82666,2.074,20,591,5,
184.539,5.29053,9.82514,2.074,20,591,5,
184.539,5.2887,9.82056,2.074,20,591,5,
184.539,5.28442,9.82514,2.074,20,591,5,
184.539,5.28259,9.82666,2.074,20,591,5,
184.539,5.27863,9.82514,2.074,20,591,5,
184.539,5.27771,9.82514,2.074,20,591,5,
184.539,5.27252,9.82361,2.074,20,591,5,
184.539,5.27069,9.82361,2.074,20,591,5,
184.539,5.26794,9.82819,2.074,20,591,5,
184.539,5.26428,9.82208,2.074,20,591,5,
184.539,5.26306,9.82208,2.074,20,591,5,
184.539,5.25787,9.82361,2.074,20,591,5,
184.539,5.25574,9.82514,2.074,20,591,5,
184.539,5.25299,9.82666,2.074,20,591,5,
184.539,5.24963,9.82208,2.074,20,591,5,
184.539,5.24841,9.82819,2.074,20,591,5,
184.539,5.24384,9.82819,2.074,20,591,5,
184.539,5.24353,9.82361,2.074,20,591,5,
184.539,5.23895,9.82361,2.074,20,591,5,
184.539,5.23651,9.82361,2.074,20,591,5,
184.539,5.23499,9.82056,2.074,20,591,5,
184.539,5.22919,9.82361,2.074,20,591,5,
184.539,5.22888,9.8114,2.074,20,591,5,
184.539,5.2243,9.8114,2.074,20,591,5,
184.539,5.22156,9.81293,2.074,20,591,5,
184.539,5.21881,9.8114,2.074,20,591,5,
184.54,5.21454,9.8114,2.074,20,591,5,
184.54,5.21454,9.80988,2.074,20,591,5,
184.54,5.20935,9.81293,2.074,20,591,5,
184.54,5.20935,9.81293,2.074,20,591,5,
184.54,5.20477,9.80988,2.074,20,591,5,
184.54,5.20203,9.8114,2.074,20,591,5,
184.54,5.19958,9.80835,2.074,20,591,5,
184.54,5.19531,9.81445,2.074,20,591,5,
184.54,5.1944,9.8114,2.074,20,591,5,
184.54,5.18982,9.81293,2.074,20,591,5,
184.54,5.18982,9.81293,2.074,20,591,5,
184.54,5.18463,9.80988,2.074,20,591,5,
184.54,5.18188,9.80988,2.074,20,591,5,
184.54,5.18005,9.8114,2.074,20,591,5,
184.54,5.17578,9.81293,2.074,20,591,5,
184.54,5.17578,9.80835,2.074,20,591,5,
184.54,5.17151,9.8114,2.074,20,591,5,
184.54,5.17059,9.81293,2.074,20,591,5,
184.54,5.16541,9.80835,2.074,20,591,5,
184.54,5.16205,9.8114,2.074,20,591,5,
184.54,5.16022,9.81293,2.074,20,591,5,
184.54,5.15808,9.8114,2.074,20,591,5,
184.54,5.15564,9.8114,2.074,20,591,5,
184.54,5.15167,9.8114,2.074,20,591,5,
184.54,5.15106,9.8114,2.074,20,591,5,
184.54,5.14679,9.81293,2.074,20,591,5,
184.54,5.14679,9.8114,2.074,20,591,5,
184.54,5.14099,9.81293,2.074,20,591,5,
184.54,5.13794,9.8114,2.074,20,591,5,
184.54,5.13672,9.80988,2.074,20,591,5,
184.541,5.13367,9.81445,2.074,20,591,5,
184.541,5.13214,9.8114,2.074,20,591,5,
184.541,5.12634,9.81445,2.074,20,591,5,
184.541,5.12634,9.8114,2.074,20,591,5,
184.541,5.12177,9.8114,2.074,20,591,5,
184.541,5.12085,9.8114,2.074,20,591,5,
184.541,5.11627,9.8114,2.074,20,591,5,
184.541,5.11627,9.80377,2.074,20,591,5,
184.541,5.112,9.80072,2.074,20,591,5,
184.541,5.10925,9.79614,2.074,20,591,5,
184.541,5.10651,9.7992,2.074,20,591,5,
184.541,5.10162,9.80072,2.074,20,591,5,
184.541,5.10101,9.80072,2.074,20,591,5,
184.541,5.09766,9.79462,2.074,20,591,5,
184.541,5.09705,9.7992,2.074,20,591,5,
184.541,5.09216,9.7992,2.074,20,591,5,
184.541,5.09216,9.79767,2.074,20,591,5,
184.541,5.08759,9.7992,2.074,20,591,5,
184.541,5.08698,9.7992,2.074,20,591,5,
184.541,5.0824,9.79767,2.074,20,591,5,
184.541,5.07935,9.79767,2.074,20,591,5,
184.541,5.07721,9.80072,2.074,20,591,5,
184.541,5.07568,9.79767,2.074,20,591,5,
184.541,5.07233,9.80377,2.074,20,591,5,
184.541,5.06775,9.7992,2.074,20,591,5,
184.541,5.06805,9.79767,2.074,20,591,5,
184.541,5.06317,9.7992,2.074,20,591,5,
184.541,5.06287,9.79767,2.074,20,591,5,
184.541,5.05768,9.7992,2.074,20,591,5,
184.541,5.05768,9.7992,2.074,20,591,5,
184.542,5.0528,9.80072,2.074,20,591,5,
184.542,5.0531,9.79614,2.074,20,591,5,
184.542,5.04822,9.80225,2.074,20,591,5,
184.542,5.04791,9.80377,2.074,20,591,5,
184.542,5.04303,9.80072,2.074,20,591,5,
184.542,5.04333,9.7992,2.074,20,591,5,
184.542,5.03784,9.80072,2.074,20,591,5,
184.542,5.03571,9.79767,2.074,20,591,5,
184.542,5.03357,9.7992,2.074,20,591,5,
184.542,5.03082,9.80225,2.074,20,591,5,
184.542,5.0296,9.79614,2.074,20,591,5,
184.542,5.02533,9.80377,2.074,20,591,5,
184.542,5.0235,9.7992,2.074,20,591,5,
184.542,5.02075,9.7992,2.074,20,591,5,
184.542,5.01862,9.7992,2.074,20,591,5,
184.542,5.01587,9.7992,2.074,20,591,5,
184.542,5.01434,9.79767,2.074,20,591,5,
184.542,5.01099,9.79767,2.074,20,591,5,
184.542,5.00977,9.79767,2.074,20,591,5,
184.542,5.0058,9.80072,2.074,20,591,5,
184.542,5.00427,9.79004,2.074,20,591,5,
184.542,5.00122,9.78851,2.074,20,591,5,
184.542,4.99969,9.78699,2.074,20,591,5,
184.542,4.99664,9.78546,2.074,20,591,5,
184.542,4.9942,9.78546,2.074,20,591,5,
184.542,4.99176,9.78394,2.074,20,591,5,
184.542,4.98962,9.78699,2.074,20,591,5,
184.542,4.99023,9.78851,2.074,20,591,5,
184.542,4.98535,9.79004,2.074,20,591,5,
184.542,4.98444,9.78546,2.074,20,591,5,
184.542,4.97986,9.78546,2.074,20,591,5,
184.543,4.97894,9.78851,2.074,20,591,5,
184.543,4.97467,9.78699,2.074,20,591,5,
184.543,4.97498,9.78546,2.074,20,591,5,
184.543,4.97009,9.78851,2.074,20,591,5,
184.543,4.9707,9.78546,2.074,20,591,5,
184.543,4.96552,9.78546,2.074,20,591,5,
184.543,4.96521,9.78394,2.074,20,591,5,
184.543,4.96033,9.79004,2.074,20,591,5,
184.543,4.96094,9.78699,2.074,20,591,5,
184.543,4.95697,9.78699,2.074,20,591,5,
184.543,4.95544,9.78851,2.074,20,591,5,
184.543,4.95514,9.78851,2.074,20,591,5,
184.543,4.95026,9.78394,2.074,20,591,5,
184.543,4.94995,9.78546,2.074,20,591,5,
184.543,4.94598,9.78546,2.074,20,591,5,
184.543,4.94537,9.78546,2.074,20,591,5,
184.543,4.9408,9.78851,2.074,20,591,5,
184.543,4.94049,9.78394,2.074,20,591,5,
184.543,4.9408,9.78851,2.074,20,591,5,
184.543,4.935,9.78851,2.074,20,591,5,
184.543,4.93622,9.78699,2.074,20,591,5,
184.543,4.93134,9.78699,2.074,20,591,5,
184.543,4.93103,9.78546,2.074,20,591,5,
184.543,4.92615,9.78699,2.074,20,591,5,
184.543,4.92554,9.78394,2.074,20,591,5,
184.543,4.92584,9.78851,2.074,20,591,5,
184.543,4.92096,9.78546,2.074,20,591,5,
184.543,4.92096,9.79004,2.074,20,591,5,
184.543,4.91608,9.78699,2.074,20,591,5,
184.543,4.91547,9.78546,2.074,20,591,5,
184.544,4.91302,9.79004,2.074,20,591,5,
184.544,4.9115,9.78241,2.074,20,591,5,
184.544,4.91089,9.77326,2.074,20,591,5,
184.544,4.90631,9.77478,2.074,20,591,5,
184.544,4.9057,9.77326,2.074,20,591,5,
184.544,4.90356,9.77478,2.074,20,591,5,
184.544,4.90143,9.77783,2.074,20,591,5,
184.544,4.90143,9.77478,2.074,20,591,5,
184.544,4.89624,9.77631,2.074,20,591,5,
184.544,4.89624,9.77478,2.074,20,591,5,
184.544,4.89319,9.77173,2.074,20,591,5,
184.544,4.89166,9.77326,2.074,20,591,5,
184.544,4.89075,9.77326,2.074,20,591,5,
184.544,4.8877,9.77326,2.074,20,591,5,
184.544,4.88647,9.77478,2.074,20,591,5,
184.544,4.88617,9.77478,2.074,20,591,5,
184.544,4.88098,9.77326,2.074,20,591,5,
184.544,4.88159,9.77783,2.074,20,591,5,
184.544,4.87854,9.77631,2.074,20,591,5,
184.544,4.87579,9.77478,2.074,20,591,5,
184.544,4.8761,9.77631,2.074,20,591,5,
184.544,4.87213,9.77478,2.074,20,591,5,
184.544,4.87183,9.77326,2.074,20,591,5,
184.544,4.87183,9.77478,2.074,20,591,5,
184.544,4.87152,9.77173,2.074,20,591,5,
184.544,4.86694,9.77478,2.074,20,591,5,
184.544,4.86664,9.7702,2.074,20,591,5,
184.544,4.86359,9.77478,2.074,20,591,5,
184.544,4.86176,9.77631,2.074,20,591,5,
184.544,4.86176,9.77173,2.074,20,591,5,
184.545,4.8587,9.77631,2.074,20,591,5,
184.545,4.85687,9.77478,2.074,20,591,5,
184.545,4.85779,9.77478,2.074,20,591,5,
184.545,4.85413,9.77478,2.074,20,591,5,
184.545,4.85291,9.77326,2.074,20,591,5,
184.545,4.85199,9.77631,2.074,20,591,5,
184.545,4.84955,9.77326,2.074,20,591,5,
184.545,4.84802,9.77478,2.074,20,591,5,
184.545,4.84802,9.77631,2.074,20,591,5,
184.545,4.84467,9.77478,2.074,20,591,5,
184.545,4.84344,9.77631,2.074,20,591,5,
184.545,4.84283,9.77783,2.074,20,591,5,
184.545,4.84375,9.77326,2.074,20,591,5,
184.545,4.83795,9.7641,2.074,20,591,5,
184.545,4.83826,9.76563,2.074,20,591,5,
184.545,4.83826,9.7641,2.074,20,591,5,
184.545,4.83307,9.76257,2.074,20,591,5,
184.545,4.83307,9.76257,2.074,20,591,5,
184.545,4.83215,9.76105,2.074,20,591,5,
184.545,4.82941,9.76257,2.074,20,591,5,
184.545,4.82819,9.76105,2.074,20,591,5,
184.545,4.82849,9.76257,2.074,20,591,5,
184.545,4.82758,9.75952,2.074,20,591,5,
184.545,4.82269,9.7641,2.074,20,591,5,
184.545,4.82269,9.76105,2.074,20,591,5,
184.545,4.8233,9.75952,2.074,20,591,5,
184.545,4.81842,9.76257,2.074,20,591,5,
184.545,4.81812,9.75952,2.074,20,591,5,
184.545,4.8175,9.7641,2.074,20,591,5,
184.546,4.81812,9.76563,2.074,20,591,5,
184.546,4.81293,9.7641,2.074,20,591,5,
184.546,4.81262,9.76563,2.074,20,591,5,
184.546,4.81323,9.76105,2.074,20,591,5,
184.546,4.80988,9.76563,2.074,20,591,5,
184.546,4.80804,9.76105,2.074,20,591,5,
184.546,4.80804,9.76257,2.074,20,591,5,
184.546,4.80804,9.76257,2.074,20,591,5,
184.546,4.80377,9.76257,2.074,20,591,5,
184.546,4.80255,9.76563,2.074,20,591,5,
184.546,4.80286,9.7641,2.074,20,591,5,
184.546,4.80347,9.76105,2.074,20,591,5,
184.546,4.79858,9.76257,2.074,20,591,5,
184.546,4.79858,9.76105,2.074,20,591,5,
184.546,4.79828,9.76105,2.074,20,591,5,
184.546,4.79828,9.76105,2.074,20,591,5,
184.546,4.7934,9.7641,2.074,20,591,5,
184.546,4.79309,9.76257,2.074,20,591,5,
184.546,4.79309,9.7641,2.074,20,591,5,
184.546,4.79309,9.7641,2.074,20,591,5,
184.546,4.79034,9.76257,2.074,20,591,5,
184.546,4.78821,9.76105,2.074,20,591,5,
184.546,4.7876,9.76105,2.074,20,591,5,
184.546,4.7879,9.76105,2.074,20,591,5,
184.546,4.7879,9.74884,2.074,20,591,5,
184.546,4.78302,9.74732,2.074,20,591,5,
184.546,4.78333,9.74732,2.074,20,591,5,
184.546,4.78363,9.75189,2.074,20,591,5,
184.546,4.78394,9.74732,2.074,20,591,5,
184.546,4.77783,9.75342,2.074,20,591,5,
184.547,4.77814,9.75037,2.074,20,591,5,
184.547,4.77875,9.74884,2.074,20,591,5,
184.547,4.77875,9.74884,2.074,20,591,5,
184.547,4.77814,9.75189,2.074,20,591,5,
184.547,4.77356,9.74884,2.074,20,591,5,
184.547,4.77325,9.74732,2.074,20,591,5,
184.547,4.77325,9.74884,2.074,20,591,5,
184.547,4.77386,9.74884,2.074,20,591,5,
184.547,4.77081,9.75494,2.074,20,591,5,
184.547,4.76868,9.74884,2.074,20,591,5,
184.547,4.76868,9.75189,2.074,20,591,5,
184.547,4.76868,9.75189,2.074,20,591,5,
184.547,4.76868,9.75037,2.074,20,591,5,
184.547,4.7644,9.75189,2.074,20,591,5,
184.547,4.7644,9.75342,2.074,20,591,5,
184.547,4.7641,9.75037,2.074,20,591,5,
184.547,4.76379,9.74884,2.074,20,591,5,
184.547,4.7644,9.75037,2.074,20,591,5,
184.547,4.75952,9.75037,2.074,20,591,5,
184.547,4.75861,9.75037,2.074,20,591,5,
184.547,4.7583,9.75037,2.074,20,591,5,
184.547,4.75861,9.73816,2.074,20,591,5,
184.547,4.75922,9.73969,2.074,20,591,5,
184.547,4.75677,9.73816,2.074,20,591,5,
184.547,4.75372,9.73663,2.074,20,591,5,
184.547,4.75372,9.73969,2.074,20,591,5,
184.547,4.75433,9.73663,2.074,20,591,5,
184.547,4.75464,9.73663,2.074,20,591,5,
184.547,4.75128,9.73663,2.074,20,591,5,
184.547,4.74854,9.73816,2.074,20,591,5,
184.548,4.74884,9.73663,2.074,20,591,5,
184.548,4.74884,9.73969,2.074,20,591,5,
184.548,4.74945,9.73663,2.074,20,591,5,
184.548,4.74884,9.73663,2.074,20,591,5,
184.548,4.74426,9.74121,2.074,20,591,5,
184.548,4.74487,9.73663,2.074,20,591,5,
184.548,4.74365,9.73816,2.074,20,591,5,
184.548,4.74365,9.73663,2.074,20,591,5,
184.548,4.74335,9.73663,2.074,20,591,5,
184.548,4.73938,9.73511,2.074,20,591,5,
184.548,4.73877,9.73511,2.074,20,591,5,
184.548,4.73907,9.73969,2.074,20,591,5,
184.548,4.73907,9.73663,2.074,20,591,5,
184.548,4.73969,9.73816,2.074,20,591,5,
184.548,4.73419,9.73816,2.074,20,591,5,
184.548,4.73389,9.74426,2.074,20,591,5,
184.548,4.73419,9.73511,2.074,20,591,5,
184.548,4.73419,9.74121,2.074,20,591,5,
184.548,4.7348,9.73663,2.074,20,591,5,
184.548,4.72961,9.72443,2.074,20,591,5,
184.548,4.72931,9.7229,2.074,20,591,5,
184.548,4.72961,9.72595,2.074,20,591,5,
184.548,4.7287,9.729,2.074,20,591,5,
184.548,4.72931,9.72748,2.074,20,591,5,
184.548,4.72473,9.72138,2.074,20,591,5,
184.548,4.72412,9.72595,2.074,20,591,5,
184.548,4.72382,9.72443,2.074,20,591,5,
184.548,4.72473,9.729,2.074,20,591,5,
184.548,4.72504,9.729,2.074,20,591,5,
184.548,4.72076,9.72595,2.074,20,591,5,
184.548,4.71985,9.72595,2.074,20,591,5,
184.549,4.71985,9.72443,2.074,20,591,5,
184.549,4.71985,9.7229,2.074,20,591,5,
184.549,4.71497,9.72748,2.074,20,591,5,
184.549,4.71466,9.72443,2.074,20,591,5,
184.549,4.71497,9.729,2.074,20,591,5,
184.549,4.71497,9.72443,2.074,20,591,5,
184.549,4.71466,9.72595,2.074,20,591,5,
184.549,4.71069,9.72443,2.074,20,591,5,
184.549,4.71008,9.72443,2.074,20,591,5,
184.549,4.71008,9.72443,2.074,20,591,5,
184.549,4.71069,9.72595,2.074,20,591,5,
184.549,4.71069,9.72443,2.074,20,591,5,
184.549,4.70581,9.729,2.074,20,591,5,
184.549,4.70551,9.72443,2.074,20,591,5,
184.549,4.7049,9.72595,2.074,20,591,5,
184.549,4.70551,9.72443,2.074,20,591,5,
184.549,4.7049,9.72443,2.074,20,591,5,
184.549,4.70276,9.72748,2.074,20,591,5,
184.549,4.70032,9.72443,2.074,20,591,5,
184.549,4.70001,9.7229,2.074,20,591,5,
184.549,4.70032,9.72748,2.074,20,591,5,
184.549,4.70001,9.7229,2.074,20,591,5,
184.549,4.69757,9.72443,2.074,20,591,5,
184.549,4.69513,9.72443,2.074,20,591,5,
184.549,4.69482,9.71375,2.074,20,591,5,
184.549,4.69574,9.71527,2.074,20,591,5,
184.549,4.69574,9.71375,2.074,20,591,5,
184.549,4.69452,9.71222,2.074,20,591,5,
184.549,4.69025,9.71375,2.074,20,591,5,
184.549,4.69025,9.71069,2.074,20,591,5,
184.55,4.69086,9.71375,2.074,20,591,5,
184.55,4.69086,9.71375,2.074,20,591,5,
184.55,4.69055,9.71375,2.074,20,591,5,
184.55,4.68628,9.71375,2.074,20,591,5,
184.55,4.68597,9.71375,2.074,20,591,5,
184.55,4.68567,9.71222,2.074,20,591,5,
184.55,4.68536,9.71375,2.074,20,591,5,
184.55,4.68536,9.71222,2.074,20,591,5,
184.55,4.68079,9.71069,2.074,20,591,5,
184.55,4.68079,9.71527,2.074,20,591,5,
184.55,4.68109,9.71375,2.074,20,591,5,
184.55,4.68048,9.71222,2.074,20,591,5,
184.55,4.68048,9.71222,2.074,20,591,5,
184.55,4.67773,9.71527,2.074,20,591,5,
184.55,4.6756,9.71222,2.074,20,591,5,
184.55,4.67529,9.71222,2.074,20,591,5,
184.55,4.67529,9.71527,2.074,20,591,5,
184.55,4.67529,9.71069,2.074,20,591,5,
184.55,4.67499,9.7168,2.074,20,591,5,
184.55,4.67102,9.71375,2.074,20,591,5,
184.55,4.6701,9.7168,2.074,20,591,5,
184.55,4.6701,9.7168,2.074,20,591,5,
184.55,4.6701,9.71375,2.074,20,591,5,
184.55,4.67163,9.7168,2.074,20,591,5,
184.55,4.66797,9.71069,2.074,20,591,5,
184.55,4.66553,9.71222,2.074,20,591,5,
184.55,4.66553,9.71527,2.074,20,591,5,
184.55,4.66614,9.71069,2.074,20,591,5,
184.55,4.66614,9.71222,2.074,20,591,5,
184.55,4.66492,9.71375,2.074,20,591,5,
184.551,4.66156,9.71375,2.074,20,591,5,
184.551,4.66156,9.71527,2.074,20,591,5,
184.551,4.66064,9.70917,2.074,20,591,5,
184.551,4.66125,9.71375,2.074,20,591,5,
184.551,4.66064,9.71375,2.074,20,591,5,
184.551,4.66095,9.71375,2.074,20,591,5,
184.551,4.65729,9.71222,2.074,20,591,5,
184.551,4.65607,9.70154,2.074,20,591,5,
184.551,4.65576,9.70154,2.074,20,591,5,
184.551,4.65607,9.69849,2.074,20,591,5,
184.551,4.65607,9.70001,2.074,20,591,5,
184.551,4.65637,9.69849,2.074,20,591,5,
184.551,4.65149,9.70306,2.074,20,591,5,
184.551,4.65118,9.70154,2.074,20,591,5,
184.551,4.65149,9.70154,2.074,20,591,5,
184.551,4.65088,9.70154,2.074,20,591,5,
184.551,4.65088,9.70001,2.074,20,591,5,
184.551,4.65118,9.70001,2.074,20,591,5,
184.551,4.64844,9.70154,2.074,20,591,5,
184.551,4.646,9.70154,2.074,20,591,5,
184.551,4.64569,9.70154,2.074,20,591,5,
184.551,4.64691,9.70306,2.074,20,591,5,
184.551,4.6463,9.70001,2.074,20,591,5,
184.551,4.646,9.70001,2.074,20,591,5,
184.551,4.6463,9.69849,2.074,20,591,5,
184.551,4.64111,9.70154,2.074,20,591,5,
184.551,4.64111,9.70612,2.074,20,591,5,
184.551,4.64081,9.70154,2.074,20,591,5,
184.551,4.64142,9.69696,2.074,20,591,5,
184.552,4.64142,9.70001,2.074,20,591,5,
184.552,4.64172,9.70459,2.074,20,591,5,
184.552,4.64142,9.70001,2.074,20,591,5,
184.552,4.63715,9.70001,2.074,20,591,5,
184.552,4.63562,9.70154,2.074,20,591,5,
184.552,4.63654,9.69849,2.074,20,591,5,
184.552,4.63623,9.70001,2.074,20,591,5,
184.552,4.63654,9.70001,2.074,20,591,5,
184.552,4.63654,9.70154,2.074,20,591,5,
184.552,4.63593,9.70459,2.074,20,591,5,
184.552,4.63257,9.70306,2.074,20,591,5,
184.552,4.63165,9.70001,2.074,20,591,5,
184.552,4.63165,9.70001,2.074,20,591,5,
184.552,4.63135,9.70001,2.074,20,591,5,
184.552,4.63104,9.70154,2.074,20,591,5,
184.552,4.63104,9.70001,2.074,20,591,5,
184.552,4.63135,9.69849,2.074,20,591,5,
184.552,4.63196,9.69849,2.074,20,591,5,
184.552,4.62646,9.70459,2.074,20,591,5,
184.552,4.62677,9.70306,2.074,20,591,5,
184.552,4.62616,9.69696,2.074,20,591,5,
184.552,4.62677,9.70001,2.074,20,591,5,
184.552,4.62585,9.70154,2.074,20,591,5,
184.552,4.62616,9.70154,2.074,20,591,5,
184.552,4.62708,9.68781,2.074,20,591,5,
184.552,4.62646,9.68933,2.074,20,591,5,
184.552,4.62128,9.68933,2.074,20,591,5,
184.552,4.62189,9.68781,2.074,20,591,5,
184.552,4.62128,9.68933,2.074,20,591,5,
184.552,4.62189,9.68933,2.074,20,591,5,
184.553,4.62158,9.68933,2.074,20,591,5,
184.553,4.62219,9.68781,2.074,20,591,5,
184.553,4.62128,9.69086,2.074,20,591,5,
184.553,4.62189,9.68781,2.074,20,591,5,
184.553,4.61792,9.68781,2.074,20,591,5,
184.553,4.6167,9.69391,2.074,20,591,5,
184.553,4.617,9.68933,2.074,20,591,5,
184.553,4.6167,9.68781,2.074,20,591,5,
184.553,4.617,9.68781,2.074,20,591,5,
184.553,4.617,9.69086,2.074,20,591,5,
184.553,4.6167,9.68933,2.074,20,591,5,
184.553,4.6167,9.69086,2.074,20,591,5,
184.553,4.6167,9.68933,2.074,20,591,5,
184.553,4.61609,9.69086,2.074,20,591,5,
184.553,4.61243,9.68933,2.074,20,591,5,
184.553,4.61151,9.68933,2.074,20,591,5,
184.553,4.61212,9.68933,2.074,20,591,5,
184.553,4.61121,9.69238,2.074,20,591,5,
184.553,4.61151,9.68781,2.074,20,591,5,
184.553,4.61182,9.68628,2.074,20,591,5,
184.553,4.61151,9.68933,2.074,20,591,5,
184.553,4.61182,9.69086,2.074,20,591,5,
184.553,4.61182,9.69238,2.074,20,591,5,
184.553,4.61182,9.68781,2.074,20,591,5,
184.553,4.60724,9.68781,2.074,20,591,5,
184.553,4.60724,9.68781,2.074,20,591,5,
184.553,4.60693,9.69238,2.074,20,591,5,
184.553,4.60693,9.68933,2.074,20,591,5,
184.553,4.60785,9.68781,2.074,20,591,5,
184.553,4.60663,9.68933,2.074,20,591,5,
184.554,4.60693,9.68781,2.074,20,591,5,
184.554,4.60724,9.68628,2.074,20,591,5,
184.554,4.60693,9.68933,2.074,20,591,5,
184.554,4.60663,9.68933,2.074,20,591,5,
184.554,4.60693,9.68781,2.074,20,591,5,
184.554,4.6048,9.68933,2.074,20,591,5,
184.554,4.60205,9.68933,2.074,20,591,5,
184.554,4.60175,9.68781,2.074,20,591,5,
184.554,4.60205,9.68781,2.074,20,591,5,
184.554,4.60175,9.68781,2.074,20,591,5,
184.554,4.60175,9.69086,2.074,20,591,5,
184.554,4.60205,9.68018,2.074,20,591,5,
184.554,4.60236,9.6817,2.074,20,591,5,
184.554,4.60205,9.67712,2.074,20,591,5,
184.554,4.60205,9.6756,2.074,20,591,5,
184.554,4.60205,9.67712,2.074,20,591,5,
184.554,4.60266,9.6756,2.074,20,591,5,
184.554,4.60205,9.67865,2.074,20,591,5,
184.554,4.59717,9.6756,2.074,20,591,5,
184.554,4.59747,9.67712,2.074,20,591,5,
184.554,4.59747,9.67712,2.074,20,591,5,
184.554,4.59686,9.68018,2.074,20,591,5,
184.554,4.59717,9.68018,2.074,20,591,5,
184.554,4.59778,9.67865,2.074,20,591,5,
184.554,4.59686,9.67712,2.074,20,591,5,
184.554,4.59747,9.67712,2.074,20,591,5,
184.554,4.59747,9.6817,2.074,20,591,5,
184.554,4.59747,9.68018,2.074,20,591,5,
184.554,4.59717,9.6756,2.074,20,591,5,
184.554,4.59778,9.67712,2.074,20,591,5,
184.554,4.59717,9.67712,2.074,20,591,5,
184.555,4.59717,9.67865,2.074,20,591,5,
184.555,4.59381,9.6817,2.074,20,591,5,
184.555,4.59198,9.6756,2.074,20,591,5,
184.555,4.59229,9.67712,2.074,20,591,5,
184.555,4.59198,9.67712,2.074,20,591,5,
184.555,4.59229,9.67712,2.074,20,591,5,
184.555,4.59259,9.67865,2.074,20,591,5,
184.555,4.59167,9.6756,2.074,20,591,5,
184.555,4.59229,9.67712,2.074,20,591,5,
184.555,4.5929,9.67865,2.074,20,591,5,
184.555,4.59229,9.67712,2.074,20,591,5,
184.555,4.59259,9.67712,2.074,20,591,5,
184.555,4.59229,9.68018,2.074,20,591,5,
184.555,4.59229,9.67712,2.074,20,591,5,
184.555,4.5929,9.67712,2.074,20,591,5,
184.555,4.59167,9.68018,2.074,20,591,5,
184.555,4.59229,9.6756,2.074,20,591,5,
184.555,4.59259,9.67712,2.074,20,591,5,
184.555,4.58832,9.6756,2.074,20,591,5,
184.555,4.5874,9.6756,2.074,20,591,5,
184.555,4.58771,9.67712,2.074,20,591,5,
184.555,4.58771,9.6756,2.074,20,591,5,
184.555,4.5874,9.67712,2.074,20,591,5,
184.555,4.5874,9.67712,2.074,20,591,5,
184.555,4.5874,9.67712,2.074,20,591,5,
184.555,4.58771,9.67407,2.074,20,591,5,
184.555,4.5871,9.67255,2.074,20,591,5,
184.555,4.58771,9.67712,2.074,20,591,5,
184.555,4.58771,9.6756,2.074,20,591,5,
184.555,4.5871,9.67255,2.074,20,591,5,
184.556,4.58771,9.67102,2.074,20,591,5,
184.556,4.58801,9.67407,2.074,20,591,5,
184.556,4.5871,9.66492,2.074,20,591,5,
184.556,4.5874,9.66644,2.074,20,591,5,
184.556,4.5871,9.66339,2.074,20,591,5,
184.556,4.58771,9.66492,2.074,20,591,5,
184.556,4.58771,9.66644,2.074,20,591,5,
184.556,4.5874,9.66644,2.074,20,591,5,
184.556,4.58282,9.66034,2.074,20,591,5,
184.556,4.58221,9.66492,2.074,20,591,5,
184.556,4.58221,9.66339,2.074,20,591,5,
184.556,4.58252,9.66492,2.074,20,591,5,
184.556,4.58252,9.66644,2.074,20,591,5,
184.556,4.58252,9.66644,2.074,20,591,5,
184.556,4.58252,9.66644,2.074,20,591,5,
184.556,4.58252,9.66187,2.074,20,591,5,
184.556,4.58252,9.66797,2.074,20,591,5,
184.556,4.58282,9.66492,2.074,20,591,5,
184.556,4.58252,9.66492,2.074,20,591,5,
184.556,4.58252,9.66644,2.074,20,591,5,
184.556,4.58282,9.66492,2.074,20,591,5,
184.556,4.58313,9.66492,2.074,20,591,5,
184.556,4.58282,9.66339,2.074,20,591,5,
184.556,4.58221,9.66797,2.074,20,591,5,
184.556,4.58252,9.66339,2.074,20,591,5,
184.556,4.58252,9.66492,2.074,20,591,5,
184.556,4.58221,9.66644,2.074,20,591,5,
184.556,4.58221,9.66492,2.074,20,591,5,
184.556,4.58252,9.66339,2.074,20,591,5,
184.556,4.58252,9.66492,2.074,20,591,5,
184.557,4.58191,9.66339,2.074,20,591,5,
184.557,4.58221,9.66797,2.074,20,591,5,
184.557,4.58252,9.66492,2.074,20,591,5,
184.557,4.5816,9.67102,2.074,20,591,5,
184.557,4.57916,9.66644,2.074,20,591,5,
184.557,4.57733,9.66644,2.074,20,591,5,
184.557,4.57794,9.66644,2.074,20,591,5,
184.557,4.57703,9.66644,2.074,20,591,5,
184.557,4.57764,9.66492,2.074,20,591,5,
184.557,4.57733,9.66797,2.074,20,591,5,
184.557,4.57764,9.66492,2.074,20,591,5,
184.557,4.57733,9.66339,2.074,20,591,5,
184.557,4.57794,9.66644,2.074,20,591,5,
184.557,4.57733,9.66187,2.074,20,591,5,
184.557,4.57764,9.66492,2.074,20,591,5,
184.557,4.57733,9.66492,2.074,20,591,5,
184.557,4.57764,9.66797,2.074,20,591,5,
184.557,4.57825,9.66492,2.074,20,591,5,
184.557,4.57825,9.6695,2.074,20,591,5,
184.557,4.57764,9.66339,2.074,20,591,5,
184.557,4.57794,9.65271,2.074,20,591,5,
184.557,4.57703,9.65271,2.074,20,591,5,
184.557,4.57794,9.64966,2.074,20,591,5,
184.557,4.57794,9.65271,2.074,20,591,5,
184.557,4.57825,9.64813,2.074,20,591,5,
184.557,4.57733,9.64966,2.074,20,591,5,
184.557,4.57764,9.65271,2.074,20,591,5,
184.557,4.57733,9.65119,2.074,20,591,5,
184.557,4.57794,9.65424,2.074,20,591,5,
184.558,4.57733,9.65576,2.074,20,591,5,
184.558,4.57764,9.65424,2.074,20,591,5,
184.558,4.57733,9.65119,2.074,20,591,5,
184.558,4.57794,9.65119,2.074,20,591,5,
184.558,4.57672,9.65424,2.074,20,591,5,
184.558,4.57764,9.65119,2.074,20,591,5,
184.558,4.57764,9.65119,2.074,20,591,5,
184.558,4.57764,9.65271,2.074,20,591,5,
184.558,4.57733,9.65271,2.074,20,591,5,
184.558,4.57764,9.65576,2.074,20,591,5,
184.558,4.57703,9.65119,2.074,20,591,5,
184.558,4.57733,9.65424,2.074,20,591,5,
184.558,4.57764,9.65424,2.074,20,591,5,
184.558,4.57733,9.65729,2.074,20,591,5,
184.558,4.57764,9.65119,2.074,20,591,5,
184.558,4.57642,9.65119,2.074,20,591,5,
184.558,4.57764,9.65576,2.074,20,591,5,
184.558,4.57764,9.65119,2.074,20,591,5,
184.558,4.57825,9.65424,2.074,20,591,5,
184.558,4.57703,9.65119,2.074,20,591,5,
184.558,4.57733,9.65119,2.074,20,591,5,
184.558,4.57733,9.65119,2.074,20,591,5,
184.558,4.57794,9.65576,2.074,20,591,5,
184.558,4.57703,9.65119,2.074,20,591,5,
184.558,4.57764,9.65271,2.074,20,591,5,
184.558,4.57703,9.65119,2.074,20,591,5,
184.558,4.57733,9.65424,2.074,20,591,5,
184.558,4.57794,9.64966,0,20,591,5,
184.558,4.57764,9.65119,0,20,591,5,
184.558,4.57672,9.65119,0,20,591,5,
184.559,4.57733,9.65576,0,20,591,5,
184.559,4.57672,9.65119,0,20,591,5,
184.559,4.57764,9.65119,0,20,591,5,
184.559,4.57703,9.65119,0,20,591,5,
184.559,4.57703,9.64966,0,20,591,5,
184.559,4.57733,9.65424,0,20,591,5,
184.559,4.57794,9.64661,0,20,591,5,
184.559,4.57855,9.63898,0,20,591,5,
184.559,4.57733,9.6405,0,20,591,5,
184.559,4.57764,9.6405,0,20,591,5,
184.559,4.57733,9.64203,0,20,591,5,
184.559,4.57336,9.6405,0,20,591,5,
184.559,4.57153,9.64203,2.25,20,591,5,
184.559,4.57245,9.63898,2.25,20,591,5,
184.559,4.57245,9.64356,2.25,20,591,5,
184.559,4.57245,9.64203,2.25,20,591,5,
184.559,4.57245,9.64203,2.25,20,591,5,
184.559,4.57275,9.63745,2.25,20,591,5,
184.559,4.57275,9.63898,2.25,20,591,5,
184.559,4.57245,9.63898,2.25,20,591,5,
184.559,4.57336,9.63898,2.25,20,591,5,
184.559,4.57306,9.64203,2.25,20,591,5,
184.559,4.57275,9.6405,2.25,20,591,5,
184.559,4.57245,9.6405,2.25,20,591,5,
184.559,4.57245,9.63898,2.25,20,591,5,
184.559,4.57336,9.63898,2.25,20,591,5,
184.559,4.57275,9.6405,2.25,20,591,5,
184.559,4.57214,9.6405,2.25,20,591,5,
184.559,4.57245,9.64356,2.25,20,591,5,
184.559,4.57275,9.63898,2.25,20,591,5,
184.56,4.57275,9.63898,2.25,20,591,5,
184.56,4.57275,9.6405,2.25,20,591,5,
184.56,4.57275,9.6405,2.25,20,591,5,
184.56,4.57245,9.63898,2.25,20,591,5,
184.56,4.57245,9.63745,2.25,20,591,5,
184.56,4.57275,9.6405,2.25,20,591,5,
184.56,4.57214,9.6405,2.25,20,591,5,
184.56,4.57245,9.64356,2.25,20,591,5,
184.56,4.57214,9.63898,2.25,20,591,5,
184.56,4.57245,9.6405,2.25,20,591,5,
184.56,4.57214,9.63898,2.25,20,591,5,
184.56,4.57275,9.6405,2.25,20,591,5,
184.56,4.57214,9.63898,2.25,20,591,5,
184.56,4.57275,9.64203,2.25,20,591,5,
184.56,4.57184,9.64508,2.25,20,591,5,
184.56,4.57275,9.63898,2.25,20,591,5,
184.56,4.57184,9.64508,2.25,20,591,5,
184.56,4.57214,9.6405,2.25,20,591,5,
184.56,4.57245,9.63898,2.25,20,591,5,
184.56,4.57245,9.6405,2.25,20,591,5,
184.56,4.57306,9.63898,2.25,20,591,5,
184.56,4.57245,9.6405,2.25,20,591,5,
184.56,4.57214,9.64203,2.25,20,591,5,
184.56,4.57214,9.63745,2.25,20,591,5,
184.56,4.57336,9.64356,2.25,20,591,5,
184.56,4.57214,9.64203,2.25,20,591,5,
184.56,4.57245,9.6405,2.25,20,591,5,
184.56,4.57306,9.6283,2.25,20,591,5,
184.56,4.57275,9.62677,2.25,20,591,5,
184.56,4.57245,9.62982,2.25,20,591,5,
184.56,4.57214,9.6283,2.25,20,591,5,
184.561,4.57245,9.62982,2.25,20,591,5,
184.561,4.57245,9.6283,2.25,20,591,5,
184.561,4.57306,9.6283,2.25,20,591,5,
184.561,4.57214,9.62677,2.25,20,591,5,
184.561,4.57275,9.63135,2.25,20,591,5,
184.561,4.57275,9.63135,2.25,20,591,5,
184.561,4.57275,9.6344,2.25,20,591,5,
184.561,4.57214,9.62677,2.25,20,591,5,
184.561,4.57275,9.6283,2.25,20,591,5,
184.561,4.57214,9.63135,2.25,20,591,5,
184.561,4.57245,9.62372,2.25,20,591,5,
184.561,4.57275,9.62677,2.25,20,591,5,
184.561,4.57306,9.62677,2.25,20,591,5,
184.561,4.57397,9.6283,2.25,20,591,5,
184.561,4.57245,9.62525,2.25,20,591,5,
184.561,4.57245,9.62677,2.25,20,591,5,
184.561,4.57245,9.62677,2.25,20,591,5,
184.561,4.57245,9.62677,2.25,20,591,5,
184.561,4.57367,9.63135,2.25,20,591,5,
184.561,4.57306,9.62677,2.25,20,591,5,
184.561,4.57275,9.62677,2.25,20,591,5,
184.561,4.57306,9.62525,2.25,20,591,5,
184.561,4.57275,9.62677,2.25,20,591,5,
184.561,4.57275,9.62982,2.25,20,591,5,
184.561,4.57184,9.62982,2.25,20,591,5,
184.561,4.57306,9.62677,2.25,20,591,5,
184.561,4.57275,9.6283,2.25,20,591,5,
184.561,4.57306,9.62982,2.25,20,591,5,
184.561,4.57245,9.6283,2.25,20,591,5,
184.561,4.57245,9.62525,2.25,20,591,5,
184.562,4.57214,9.6283,2.25,20,591,5,
184.562,4.56787,9.62677,2.25,20,591,5,
184.562,4.56757,9.62677,2.25,20,591,5,
184.562,4.56787,9.6283,2.25,20,591,5,
184.562,4.56757,9.62372,2.25,20,591,5,
184.562,4.56726,9.62677,2.25,20,591,5,
184.562,4.56726,9.62677,2.25,20,591,5,
184.562,4.56787,9.63135,2.25,20,591,5,
184.562,4.56787,9.6283,2.25,20,591,5,
184.562,4.56757,9.62525,2.25,20,591,5,
184.562,4.56818,9.62677,2.25,20,591,5,
184.562,4.56757,9.6283,2.25,20,591,5,
184.562,4.56787,9.62677,2.25,20,591,5,
184.562,4.56787,9.6283,2.25,20,591,5,
184.562,4.56787,9.6283,2.25,20,591,5,
184.562,4.56787,9.62677,2.25,20,591,5,
184.562,4.56726,9.62677,2.25,20,591,5,
184.562,4.56726,9.61762,2.25,20,591,5,
184.562,4.56726,9.61609,2.25,20,591,5,
184.562,4.56726,9.61609,2.25,20,591,5,
184.562,4.56787,9.61609,2.25,20,591,5,
184.562,4.56757,9.61762,2.25,20,591,5,
184.562,4.56787,9.61762,2.25,20,591,5,
184.562,4.56299,9.61304,2.25,20,591,5,
184.562,4.56268,9.61762,2.25,20,591,5,
184.562,4.56268,9.61609,2.25,20,591,5,
184.562,4.56268,9.61609,2.25,20,591,5,
184.562,4.56329,9.61456,2.25,20,591,5,
184.562,4.56207,9.61609,2.25,20,591,5,
184.562,4.56268,9.61304,2.25,20,591,5,
184.563,4.56238,9.61609,2.25,20,591,5,
184.563,4.56207,9.61609,2.25,20,591,5,
184.563,4.56299,9.61456,2.25,20,591,5,
184.563,4.56299,9.61456,2.25,20,591,5,
184.563,4.56329,9.61456,2.25,20,591,5,
184.563,4.56299,9.61456,2.25,20,591,5,
184.563,4.56299,9.61762,2.25,20,591,5,
184.563,4.56268,9.61609,2.25,20,591,5,
184.563,4.56329,9.61456,2.25,20,591,5,
184.563,4.56268,9.61762,2.25,20,591,5,
184.563,4.56238,9.61609,2.25,20,591,5,
184.563,4.55963,9.61151,2.25,20,591,5,
184.563,4.55811,9.61762,2.25,20,591,5,
184.563,4.5578,9.61609,2.25,20,591,5,
184.563,4.5578,9.61609,2.25,20,591,5,
184.563,4.5578,9.61762,2.25,20,591,5,
184.563,4.5578,9.61609,2.25,20,591,5,
184.563,4.55841,9.61609,2.25,20,591,5,
184.563,4.5578,9.61151,2.25,20,591,5,
184.563,4.5578,9.61456,2.25,20,591,5,
184.563,4.55872,9.61914,2.25,20,591,5,
184.563,4.5578,9.61456,2.25,20,591,5,
184.563,4.55811,9.61151,2.25,20,591,5,
184.563,4.5578,9.61762,2.25,20,591,5,
184.563,4.5575,9.61762,2.25,20,591,5,
184.563,4.55811,9.61456,2.25,20,591,5,
184.563,4.55811,9.61456,2.25,20,591,5,
184.563,4.55811,9.61151,2.25,20,591,5,
184.563,4.55872,9.61609,2.25,20,591,5,
184.564,4.55566,9.61609,2.25,20,591,5,
184.564,4.55261,9.61762,2.25,20,591,5,
184.564,4.55322,9.61456,2.25,20,591,5,
184.564,4.55292,9.61456,2.25,20,591,5,
184.564,4.55292,9.61456,2.25,20,591,5,
184.564,4.55322,9.61304,2.25,20,591,5,
184.564,4.55353,9.61304,2.25,20,591,5,
184.564,4.55292,9.61456,2.25,20,591,5,
184.564,4.55261,9.61304,2.25,20,591,5,
184.564,4.55292,9.61304,2.25,20,591,5,
184.564,4.55292,9.60999,2.25,20,591,5,
184.564,4.55292,9.60236,2.25,20,591,5,
184.564,4.55261,9.60693,2.25,20,591,5,
184.564,4.55353,9.60388,2.25,20,591,5,
184.564,4.55261,9.60083,2.25,20,591,5,
184.564,4.55261,9.60388,2.25,20,591,5,
184.564,4.55383,9.60236,2.25,20,591,5,
184.564,4.55322,9.60236,2.25,20,591,5,
184.564,4.55292,9.59778,2.25,20,591,5,
184.564,4.54803,9.60236,2.25,20,591,5,
184.564,4.54865,9.59931,2.25,20,591,5,
184.564,4.54865,9.60541,2.25,20,591,5,
184.564,4.54803,9.59931,2.25,20,591,5,
184.564,4.54834,9.60388,2.25,20,591,5,
184.564,4.54895,9.60388,2.25,20,591,5,
184.564,4.54834,9.60083,0.332,20,591,5,
184.564,4.54803,9.60541,0.332,20,591,5,
184.564,4.54803,9.60236,0.332,20,591,5,
184.564,4.54803,9.60388,0.332,20,591,5,
184.564,4.54865,9.60083,0.332,20,591,5,
184.565,4.54773,9.60083,0.332,20,591,5,
184.565,4.54834,9.60541,0.332,20,591,5,
184.565,4.54803,9.60236,0.332,20,591,5,
184.565,4.54834,9.60388,0.332,20,591,5,
184.565,4.54803,9.60083,0.332,20,591,5,
184.565,4.54834,9.60693,0.332,20,591,5,
184.565,4.54834,9.60083,0.332,20,591,5,
184.565,4.54773,9.60083,0.332,20,591,5,
184.565,4.54346,9.59931,0.332,20,591,5,
184.565,4.54254,9.60236,0.332,20,591,5,
184.565,4.54315,9.60388,0.332,20,591,5,
184.565,4.54315,9.60236,0.332,20,591,5,
184.565,4.54346,9.60236,0.332,20,591,5,
184.565,4.54315,9.60236,0.332,20,591,5,
184.565,4.54315,9.60236,0.332,20,591,5,
184.565,4.54285,9.60388,0.332,20,591,5,
184.565,4.54346,9.60236,0.332,20,591,5,
184.565,4.54315,9.60236,0.332,20,591,5,
184.565,4.54346,9.60541,0.332,20,591,5,
184.565,4.54437,9.60388,0.332,20,591,5,
184.565,4.54315,9.60388,0.332,20,591,5,
184.565,4.54315,9.60236,0.332,20,591,5,
184.565,4.54315,9.60388,0.332,20,591,5,
184.565,4.54315,9.59931,0.332,20,591,5,
184.565,4.54285,9.60083,0.332,20,591,5,
184.565,4.54315,9.60083,0.332,20,591,5,
184.565,4.54346,9.60236,0.332,20,591,5,
184.565,4.54315,9.60236,0.332,20,591,5,
184.565,4.54346,9.60236,0.332,20,591,5,
184.565,4.54346,9.60388,0.332,20,591,5,
184.565,4.54376,9.60083,0.332,20,591,5,
184.566,4.53888,9.60388,0.332,20,591,5,
184.566,4.53827,9.60693,0.332,20,591,5,
184.566,4.53796,9.59778,0.332,20,591,5,
184.566,4.53857,9.59015,0.332,20,591,5,
184.566,4.53857,9.58862,0.332,20,591,5,
184.566,4.53857,9.59015,0.332,20,591,5,
184.566,4.53918,9.59168,0.332,20,591,5,
184.566,4.53827,9.58862,0.332,20,591,5,
184.566,4.53827,9.5932,0.332,20,591,5,
184.566,4.53888,9.58862,0.332,20,591,5,
184.566,4.53857,9.58862,0.332,20,591,5,
184.566,4.53766,9.59168,0.332,20,591,5,
184.566,4.53827,9.59015,0.332,20,591,5,
184.566,4.53857,9.59168,0.332,20,591,5,
184.566,4.53796,9.5932,0.332,20,591,5,
184.566,4.53796,9.59168,0.332,20,591,5,
184.566,4.53888,9.5932,0.332,20,591,5,
184.566,4.53857,9.59015,0.332,20,591,5,
184.566,4.53796,9.5932,0.332,20,591,5,
184.566,4.53857,9.59473,0.332,20,591,5,
184.566,4.53796,9.59168,0.332,20,591,5,
184.566,4.53888,9.59015,0.332,20,591,5,
184.566,4.53796,9.59168,0.332,20,591,5,
184.566,4.53857,9.5932,0.332,20,591,5,
184.566,4.53827,9.58862,0.332,20,591,5,
184.566,4.53827,9.59015,0.332,20,591,5,
184.566,4.53766,9.59015,0.332,20,591,5,
184.566,4.53857,9.58862,0.332,20,591,5,
184.566,4.53949,9.59015,0.332,20,591,5,
184.566,4.53857,9.59015,0.332,20,591,5,
184.567,4.53827,9.59015,0.332,20,591,5,
184.567,4.53827,9.59015,0.332,20,591,5,
184.567,4.53888,9.59168,0.332,20,591,5,
184.567,4.53796,9.58862,0.332,20,591,5,
184.567,4.53766,9.58862,0.332,20,591,5,
184.567,4.53796,9.58862,0.332,20,591,5,
184.567,4.53827,9.59168,0.332,20,591,5,
184.567,4.53796,9.5932,0.332,20,591,5,
184.567,4.53308,9.5932,0.332,20,591,5,
184.567,4.53369,9.59015,0.332,20,591,5,
184.567,4.5343,9.58862,0.332,20,591,5,
184.567,4.534,9.59168,0.332,20,591,5,
184.567,4.53369,9.59168,0.332,20,591,5,
184.567,4.53308,9.58862,0.332,20,591,5,
184.567,4.53278,9.59168,0.332,20,591,5,
184.567,4.53369,9.5932,0.332,20,591,5,
184.567,4.53369,9.5871,0.332,20,591,5,
184.567,4.53339,9.58862,0.332,20,591,5,
184.567,4.53369,9.58862,0.332,20,591,5,
184.567,4.53369,9.58862,0.332,20,591,5,
184.567,4.53369,9.58862,0.332,20,591,5,
184.567,4.53308,9.59015,0.332,20,591,5,
184.567,4.53369,9.5932,0.332,20,591,5,
184.567,4.5343,9.59015,0.332,20,591,5,
184.567,4.53369,9.59168,0.332,20,591,5,
184.567,4.53339,9.59168,0.332,20,591,5,
184.567,4.53369,9.59015,0.332,20,591,5,
184.567,4.53369,9.57947,0.332,20,591,5,
184.567,4.53369,9.57794,0.332,20,591,5,
184.567,4.53339,9.57794,0.332,20,591,5,
184.568,4.534,9.57642,0.332,20,591,5,
184.568,4.53339,9.57642,0.332,20,591,5,
184.568,4.53339,9.57642,0.332,20,591,5,
184.568,4.53369,9.58099,0.332,20,591,5,
184.568,4.53339,9.57947,0.332,20,591,5,
184.568,4.53339,9.57947,0.332,20,591,5,
184.568,4.53369,9.57794,0.332,20,591,5,
184.568,4.53369,9.57947,0.332,20,591,5,
184.568,4.53369,9.57642,0.332,20,591,5,
184.568,4.534,9.58099,0.332,20,591,5,
184.568,4.53369,9.57794,0.332,20,591,5,
184.568,4.53369,9.57947,0.332,20,591,5,
184.568,4.534,9.57642,0.332,20,591,5,
184.568,4.53339,9.57794,0.332,20,591,5,
184.568,4.53339,9.57794,0.332,20,591,5,
184.568,4.534,9.58252,0.332,20,591,5,
184.568,4.53339,9.57947,0.332,20,591,5,
184.568,4.5343,9.57642,0.332,20,591,5,
184.568,4.534,9.57489,0.332,20,591,5,
184.568,4.53339,9.57642,0.332,20,591,5,
184.568,4.5343,9.57794,0.332,20,591,5,
184.568,4.534,9.58252,0.332,20,591,5,
184.568,4.53339,9.57794,0.332,20,591,5,
184.568,4.534,9.57794,0.332,20,591,5,
184.568,4.53369,9.57947,0.332,20,591,5,
184.568,4.53369,9.57794,0.332,20,591,5,
184.568,4.534,9.58099,0.332,20,591,5,
184.568,4.53369,9.57642,0.332,20,591,5,
184.568,4.53308,9.57794,0.332,20,591,5,
184.569,4.53339,9.57947,0.332,20,591,5,
184.569,4.53339,9.57947,0.332,20,591,5,
184.569,4.53339,9.57642,0.332,20,591,5,
184.569,4.53369,9.58252,0.332,20,591,5,
184.569,4.53339,9.57947,0.332,20,591,5,
184.569,4.53339,9.57794,0.332,20,591,5,
184.569,4.53644,9.57947,0.332,20,591,5,
184.569,4.53796,9.57794,0.332,20,591,5,
184.569,4.53796,9.57947,0.332,20,591,5,
184.569,4.53857,9.57794,0.332,20,591,5,
184.569,4.53827,9.57947,0.332,20,591,5,
184.569,4.53796,9.57489,0.332,20,591,5,
184.569,4.53766,9.57642,0.332,20,591,5,
184.569,4.53827,9.57794,0.332,20,591,5,
184.569,4.53827,9.57794,0.332,20,591,5,
184.569,4.53827,9.57947,0.332,20,591,5,
184.569,4.53857,9.57642,0.332,20,591,5,
184.569,4.53857,9.57947,0.332,20,591,5,
184.569,4.53766,9.58099,0.332,20,591,5,
184.569,4.53827,9.58099,0.332,20,591,5,
184.569,4.53918,9.57794,0.332,20,591,5,
184.569,4.53827,9.58099,0.332,20,591,5,
184.569,4.53888,9.57947,0.332,20,591,5,
184.569,4.53857,9.58099,0.332,20,591,5,
184.569,4.53827,9.58099,0.332,20,591,5,
184.569,4.53857,9.56574,0.332,20,591,5,
184.569,4.53918,9.56879,0.332,20,591,5,
184.569,4.53827,9.56726,0.332,20,591,5,
184.569,4.53827,9.56879,0.332,20,591,5,
184.569,4.53857,9.56726,0.332,20,591,5,
184.57,4.53857,9.56879,0.332,20,591,5,
184.57,4.53827,9.56574,0.332,20,591,5,
184.57,4.53857,9.56574,0.332,20,591,5,
184.57,4.53827,9.56574,0.332,20,591,5,
184.57,4.53827,9.56726,0.332,20,591,5,
184.57,4.53857,9.56726,0.332,20,591,5,
184.57,4.53827,9.56574,0.332,20,591,5,
184.57,4.53888,9.56574,0.332,20,591,5,
184.57,4.54346,9.56726,0.332,20,591,5,
184.57,4.54346,9.56879,0.332,20,591,5,
184.57,4.54346,9.56574,0.332,20,591,5,
184.57,4.54407,9.56726,0.332,20,591,5,
184.57,4.54407,9.56574,0.332,20,591,5,
184.57,4.54285,9.56421,0.332,20,591,5,
184.57,4.54376,9.56726,0.332,20,591,5,
184.57,4.54346,9.56879,0.332,20,591,5,
184.57,4.54315,9.56574,0.332,20,591,5,
184.57,4.54407,9.56268,0.332,20,591,5,
184.57,4.54376,9.56574,0.332,20,591,5,
184.57,4.54346,9.56726,0.332,20,591,5,
184.57,4.54407,9.56574,0.332,20,591,5,
184.57,4.54407,9.56726,0.332,20,591,5,
184.57,4.54437,9.56574,0.332,20,591,5,
184.57,4.54407,9.56421,0.332,20,591,5,
184.57,4.54376,9.56879,0.332,20,591,5,
184.57,4.54895,9.56726,0.332,20,591,5,
184.57,4.54834,9.56421,0.332,20,591,5,
184.57,4.54926,9.56574,0.332,20,591,5,
184.57,4.54865,9.56879,0.332,20,591,5,
184.57,4.54834,9.56268,0.332,20,591,5,
184.571,4.54834,9.56726,0.332,20,591,5,
184.571,4.54865,9.56726,0.332,20,591,5,
184.571,4.54834,9.56726,0.332,20,591,5,
184.571,4.54803,9.56421,0.332,20,591,5,
184.571,4.54773,9.56879,0.332,20,591,5,
184.571,4.54865,9.56421,0.332,20,591,5,
184.571,4.54834,9.56879,0.332,20,591,5,
184.571,4.55261,9.56268,0.332,20,591,5,
184.571,4.55292,9.56726,0.332,20,591,5,
184.571,4.55261,9.56726,0.332,20,591,5,
184.571,4.55292,9.56879,0.332,20,591,5,
184.571,4.55261,9.56726,0.332,20,591,5,
184.571,4.55231,9.56726,0.332,20,591,5,
184.571,4.55261,9.56268,0.332,20,591,5,
184.571,4.55353,9.56726,0.332,20,591,5,
184.571,4.55292,9.56574,0.332,20,591,5,
184.571,4.55383,9.56421,0.332,20,591,5,
184.571,4.55322,9.56421,0.332,20,591,5,
184.571,4.5578,9.56574,0.332,20,591,5,
184.571,4.5578,9.55505,0.332,20,591,5,
184.571,4.55811,9.55658,0.332,20,591,5,
184.571,4.55719,9.55811,0.332,20,591,5,
184.571,4.5575,9.55658,0.332,20,591,5,
184.571,4.55811,9.55658,0.332,20,591,5,
184.571,4.5578,9.552,0.332,20,591,5,
184.571,4.55841,9.552,0.332,20,591,5,
184.571,4.5575,9.55505,0.332,20,591,5,
184.571,4.56299,9.55505,0.332,20,591,5,
184.571,4.5636,9.55658,0.332,20,591,5,
184.571,4.56299,9.55353,0.332,20,591,5,
184.571,4.56268,9.55353,0.332,20,591,5,
184.572,4.56299,9.55505,0.332,20,591,5,
184.572,4.56299,9.55658,0.332,20,591,5,
184.572,4.56329,9.552,0.332,20,591,5,
184.572,4.56299,9.55658,0.332,20,591,5,
184.572,4.5636,9.55353,0.332,20,591,5,
184.572,4.56818,9.55505,0.332,20,591,5,
184.572,4.56787,9.55353,0.332,20,591,5,
184.572,4.56757,9.55353,0.332,20,591,5,
184.572,4.56726,9.552,0.332,20,591,5,
184.572,4.56726,9.55353,0.332,20,591,5,
184.572,4.56787,9.55505,0.332,20,591,5,
184.572,4.56757,9.55353,0.332,20,591,5,
184.572,4.56818,9.55505,0.332,20,591,5,
184.572,4.57214,9.552,0.332,20,591,5,
184.572,4.57275,9.55353,0.332,20,591,5,
184.572,4.57306,9.55353,0.332,20,591,5,
184.572,4.57306,9.55505,0.332,20,591,5,
184.572,4.57245,9.55658,0.332,20,591,5,
184.572,4.57214,9.55505,0.332,20,591,5,
184.572,4.57306,9.55505,0.332,20,591,5,
184.572,4.57275,9.55658,0.332,20,591,5,
184.572,4.57764,9.55353,0.332,20,591,5,
184.572,4.57733,9.55658,0.332,20,591,5,
184.572,4.57733,9.55353,0.332,20,591,5,
184.572,4.57733,9.55505,0.332,20,591,5,
184.572,4.57733,9.55505,0.332,20,591,5,
184.572,4.57764,9.552,0.332,20,591,5,
184.572,4.57733,9.55505,0.332,20,591,5,
184.572,4.58252,9.55505,0.332,20,591,5,
184.572,4.58221,9.552,0.332,20,591,5,
184.573,4.58282,9.55353,0.332,20,591,5,
184.573,4.58221,9.55353,0.332,20,591,5,
184.573,4.58252,9.552,0.332,20,591,5,
184.573,4.58252,9.55353,0.332,20,591,5,
184.573,4.58252,9.552,0.332,20,591,5,
184.573,4.58252,9.55658,0.332,20,591,5,
184.573,4.5871,9.55658,0.332,20,591,5,
184.573,4.5874,9.55353,0.332,20,591,5,
184.573,4.58679,9.55353,0.332,20,591,5,
184.573,4.58771,9.55658,0.332,20,591,5,
184.573,4.58771,9.55505,0.332,20,591,5,
184.573,4.5871,9.55353,0.332,20,591,5,
184.573,4.58679,9.55353,0.332,20,591,5,
184.573,4.5874,9.54437,0.332,20,591,5,
184.573,4.59259,9.5398,0.332,20,591,5,
184.573,4.5929,9.54285,0.332,20,591,5,
184.573,4.59198,9.54437,0.332,20,591,5,
184.573,4.59198,9.5398,0.332,20,591,5,
184.573,4.5929,9.54132,0.332,20,591,5,
184.573,4.5929,9.54437,0.332,20,591,5,
184.573,4.59229,9.54132,0.332,20,591,5,
184.573,4.59534,9.54285,0.332,20,591,5,
184.573,4.59717,9.5398,0.332,20,591,5,
184.573,4.59717,9.5459,0.332,20,591,5,
184.573,4.59686,9.54132,0.332,20,591,5,
184.573,4.59747,9.54285,0.332,20,591,5,
184.573,4.59686,9.5398,0.332,20,591,5,
184.573,4.59747,9.54285,0.332,20,591,5,
184.573,4.59686,9.54285,0.332,20,591,5,
184.573,4.60144,9.54132,0.332,20,591,5,
184.574,4.60236,9.54132,0.332,20,591,5,
184.574,4.60236,9.5398,0.332,20,591,5,
184.574,4.60236,9.5398,0.332,20,591,5,
184.574,4.60205,9.54437,0.332,20,591,5,
184.574,4.60266,9.54285,0.332,20,591,5,
184.574,4.60205,9.54285,0.332,20,591,5,
184.574,4.60266,9.54132,0.332,20,591,5,
184.574,4.60602,9.54132,0.332,20,591,5,
184.574,4.60693,9.5398,0.332,20,591,5,
184.574,4.60693,9.54132,0.332,20,591,5,
184.574,4.60693,9.5398,0.332,20,591,5,
184.574,4.60724,9.5398,0.332,20,591,5,
184.574,4.60693,9.54132,0.332,20,591,5,
184.574,4.60754,9.54132,0.332,20,591,5,
184.574,4.60754,9.5398,0.332,20,591,5,
184.574,4.60724,9.54132,0.332,20,591,5,
184.574,4.61182,9.54285,0.332,20,591,5,
184.574,4.61212,9.5398,0.332,20,591,5,
184.574,4.61182,9.54285,0.332,20,591,5,
184.574,4.61212,9.54132,0.332,20,591,5,
184.574,4.61243,9.54285,0.332,20,591,5,
184.574,4.61182,9.54285,0.332,20,591,5,
184.574,4.61151,9.54132,0.332,20,591,5,
184.574,4.61212,9.54285,0.332,20,591,5,
184.574,4.61304,9.54437,0.332,20,591,5,
184.574,4.617,9.54285,0.332,20,591,5,
184.574,4.61731,9.54132,0.332,20,591,5,
184.574,4.61639,9.53674,0.332,20,591,5,
184.574,4.61639,9.54285,0.332,20,591,5,
184.575,4.6167,9.54132,0.332,20,591,5,
184.575,4.6167,9.54132,0.332,20,591,5,
184.575,4.617,9.54132,0.332,20,591,5,
184.575,4.61639,9.54132,0.332,20,591,5,
184.575,4.6167,9.54437,0.332,20,591,5,
184.575,4.62158,9.54132,0.332,20,591,5,
184.575,4.62158,9.54132,0.332,20,591,5,
184.575,4.62219,9.54132,0.332,20,591,5,
184.575,4.62158,9.54285,0.332,20,591,5,
184.575,4.6225,9.54285,0.332,20,591,5,
184.575,4.62128,9.54285,0.332,20,591,5,
184.575,4.62097,9.5398,0.332,20,591,5,
184.575,4.62128,9.54132,0.332,20,591,5,
184.575,4.62158,9.54437,0.332,20,591,5,
184.575,4.62158,9.52759,0.332,20,591,5,
184.575,4.62738,9.52911,0.332,20,591,5,
184.575,4.62646,9.53217,0.332,20,591,5,
184.575,4.62677,9.52911,0.332,20,591,5,
184.575,4.62646,9.53064,0.332,20,591,5,
184.575,4.62616,9.52759,0.332,20,591,5,
184.575,4.62708,9.53217,0.332,20,591,5,
184.575,4.62616,9.53064,0.332,20,591,5,
184.575,4.62677,9.53064,0.332,20,591,5,
184.575,4.62646,9.53064,0.332,20,591,5,
184.575,4.62646,9.53064,0.332,20,591,5,
184.575,4.62982,9.52911,0.332,20,591,5,
184.575,4.63165,9.52759,0.332,20,591,5,
184.575,4.63196,9.52911,0.332,20,591,5,
184.575,4.63104,9.52911,0.332,20,591,5,
184.575,4.63165,9.53369,0.332,20,591,5,
184.576,4.63104,9.52911,0.332,20,591,5,
184.576,4.63196,9.53064,0.332,20,591,5,
184.576,4.63135,9.52911,0.332,20,591,5,
184.576,4.63165,9.52911,0.332,20,591,5,
184.576,4.63135,9.53064,0.332,20,591,5,
184.576,4.63165,9.52759,0.332,20,591,5,
184.576,4.63593,9.52606,0.332,20,591,5,
184.576,4.63623,9.53217,0.332,20,591,5,
184.576,4.63684,9.52759,0.332,20,591,5,
184.576,4.63593,9.53369,0.332,20,591,5,
184.576,4.63684,9.53064,0.332,20,591,5,
184.576,4.63623,9.52911,0.332,20,591,5,
184.576,4.63593,9.53064,0.332,20,591,5,
184.576,4.63623,9.52911,0.332,20,591,5,
184.576,4.63623,9.52606,0.332,20,591,5,
184.576,4.63562,9.52759,0.332,20,591,5,
184.576,4.63623,9.52911,0.332,20,591,5,
184.576,4.63654,9.52911,0.332,20,591,5,
184.576,4.64172,9.52759,0.332,20,591,5,
184.576,4.64081,9.52759,0.332,20,591,5,
184.576,4.64172,9.52759,0.332,20,591,5,
184.576,4.64111,9.53064,0.332,20,591,5,
184.576,4.64142,9.53217,0.332,20,591,5,
184.576,4.64172,9.52911,0.332,20,591,5,
184.576,4.64142,9.53217,0.332,20,591,5,
184.576,4.64203,9.52759,0.332,20,591,5,
184.576,4.6405,9.53064,0.332,20,591,5,
184.576,4.64111,9.53217,0.332,20,591,5,
184.576,4.6405,9.53369,0.332,20,591,5,
184.576,4.64081,9.52759,0.332,20,591,5,
184.577,4.646,9.52911,0.332,20,591,5,
184.577,4.6463,9.53064,0.332,20,591,5,
184.577,4.64722,9.52911,0.332,20,591,5,
184.577,4.646,9.52911,0.332,20,591,5,
184.577,4.6463,9.52759,0.332,20,591,5,
184.577,4.6463,9.52759,0.332,20,591,5,
184.577,4.64569,9.52911,0.332,20,591,5,
184.577,4.646,9.52759,0.332,20,591,5,
184.577,4.64569,9.52911,0.332,20,591,5,
184.577,4.6463,9.52911,0.332,20,591,5,
184.577,4.64691,9.52911,0.332,20,591,5,
184.577,4.64569,9.53064,0.332,20,591,5,
184.577,4.646,9.53064,0.332,20,591,5,
184.577,4.65057,9.53217,0.332,20,591,5,
184.577,4.65088,9.51843,0.332,20,591,5,
184.577,4.65057,9.51843,0.332,20,591,5,
184.577,4.65149,9.51843,0.332,20,591,5,
184.577,4.65149,9.51691,0.332,20,591,5,
184.577,4.65149,9.51386,0.332,20,591,5,
184.577,4.65088,9.51538,0.332,20,591,5,
184.577,4.65088,9.51691,0.332,20,591,5,
184.577,4.65057,9.51843,0.332,20,591,5,
184.577,4.65179,9.51843,0.332,20,591,5,
184.577,4.65149,9.52149,0.332,20,591,5,
184.577,4.65118,9.51691,0.332,20,591,5,
