5900-SECPT.acq
2 msec/sample
6 channels
RSP, X, RSPEC-R
Volts
EDA, Y, PPGED-R
microsiemens
ECG R-R
Seconds
Respiration Rate
BPM
C7 - EDR
Peaks
C14 - Control
Volts
min,CH1,CH14,CH40,CH42,CH47,CH54,
,90222,90222,90222,90222,90222,90222,
84.1183,4.06769,6.81915,1.606,4.1006,373,5,
84.1184,4.0683,6.82221,1.606,4.1006,373,5,
84.1184,4.06738,6.82678,1.606,4.1006,373,5,
84.1184,4.06769,6.83136,1.606,4.1006,373,5,
84.1185,4.06799,6.83441,1.606,4.1006,373,5,
84.1185,4.06799,6.83441,1.606,4.1006,373,5,
84.1185,4.06647,6.83136,1.606,4.1006,373,5,
84.1186,4.06281,6.83136,1.606,4.1006,373,5,
84.1186,4.06311,6.83441,1.606,4.1006,373,5,
84.1186,4.06281,6.83441,1.606,4.1006,373,5,
84.1187,4.06311,6.83136,1.606,4.1006,373,5,
84.1187,4.06281,6.83289,1.606,4.1006,373,5,
84.1187,4.06342,6.83289,1.606,4.1006,373,5,
84.1188,4.06372,6.82983,1.606,4.1006,373,5,
84.1188,4.05975,6.83289,1.606,4.1006,373,5,
84.1188,4.05853,6.83289,1.606,4.1006,373,5,
84.1189,4.05914,6.83441,1.606,4.1006,373,5,
84.1189,4.05884,6.83289,1.606,4.1006,373,5,
84.1189,4.05884,6.83289,1.606,4.1006,373,5,
84.119,4.05853,6.83136,1.606,4.1006,373,5,
84.119,4.05853,6.83136,1.606,4.1006,373,5,
84.119,4.05823,6.83136,1.606,4.1006,373,5,
84.1191,4.05792,6.83441,1.606,4.1006,373,5,
84.1191,4.05701,6.83594,1.606,4.1006,373,5,
84.1191,4.05304,6.83136,1.606,4.1006,373,5,
84.1192,4.05304,6.83441,1.606,4.1006,373,5,
84.1192,4.05304,6.83441,1.606,4.1006,373,5,
84.1192,4.05334,6.84815,1.606,4.1006,373,5,
84.1193,4.05273,6.84815,1.606,4.1006,373,5,
84.1193,4.05243,6.84509,1.606,4.1006,373,5,
84.1193,4.05243,6.84662,1.606,4.1006,373,5,
84.1194,4.05365,6.84662,1.606,4.1006,373,5,
84.1194,4.05273,6.84662,1.606,4.1006,373,5,
84.1194,4.05304,6.84815,1.606,4.1006,373,5,
84.1195,4.05273,6.84509,1.606,4.1006,373,5,
84.1195,4.05334,6.84357,1.606,4.1006,373,5,
84.1195,4.04846,6.84204,1.606,4.1006,373,5,
84.1196,4.04785,6.84509,1.606,4.1006,373,5,
84.1196,4.04877,6.84967,1.606,4.1006,373,5,
84.1196,4.04816,6.84662,1.606,4.1006,373,5,
84.1197,4.04816,6.84662,1.606,4.1006,373,5,
84.1197,4.04785,6.84509,1.606,4.1006,373,5,
84.1197,4.04755,6.84509,1.606,4.1006,373,5,
84.1198,4.04877,6.84357,1.606,4.1006,373,5,
84.1198,4.04846,6.85883,1.606,4.1006,373,5,
84.1198,4.04785,6.8573,1.606,4.1006,373,5,
84.1199,4.04816,6.86035,1.606,4.1006,373,5,
84.1199,4.04785,6.85883,1.606,4.1006,373,5,
84.1199,4.04846,6.8573,1.606,4.1006,373,5,
84.12,4.04816,6.85883,1.606,4.1006,373,5,
84.12,4.04877,6.85883,1.606,4.1006,373,5,
84.12,4.04846,6.85577,1.606,4.1006,373,5,
84.1201,4.04785,6.8573,1.606,4.1006,373,5,
84.1201,4.04816,6.85577,1.606,4.1006,373,5,
84.1201,4.04816,6.85425,1.606,4.1006,373,5,
84.1202,4.04816,6.8573,1.606,4.1006,373,5,
84.1202,4.04785,6.86035,1.606,4.1006,373,5,
84.1202,4.04816,6.86035,1.606,4.1006,373,5,
84.1203,4.04846,6.85883,1.606,4.1006,373,5,
84.1203,4.04816,6.86951,1.606,4.1006,373,5,
84.1203,4.04846,6.87103,1.606,4.1006,373,5,
84.1204,4.04785,6.87256,1.606,4.1006,373,5,
84.1204,4.04877,6.86646,1.606,4.1006,373,5,
84.1204,4.04816,6.87256,1.606,4.1006,373,5,
84.1205,4.04846,6.87103,1.606,4.1006,373,5,
84.1205,4.04755,6.86951,1.606,4.1006,373,5,
84.1205,4.04846,6.86951,1.606,4.1006,373,5,
84.1206,4.04877,6.86951,1.606,4.1006,373,5,
84.1206,4.04785,6.86951,1.606,4.1006,373,5,
84.1206,4.04694,6.86951,1.606,4.1006,373,5,
84.1207,4.04877,6.86798,1.606,4.1006,373,5,
84.1207,4.04755,6.86951,1.606,4.1006,373,5,
84.1207,4.04877,6.87409,1.606,4.1006,373,5,
84.1208,4.04785,6.86951,1.606,4.1006,373,5,
84.1208,4.04846,6.87103,1.606,4.1006,373,5,
84.1208,4.04816,6.87409,1.606,4.1006,373,5,
84.1209,4.04785,6.88477,1.606,4.1006,373,5,
84.1209,4.04724,6.88171,1.606,4.1006,373,5,
84.1209,4.04816,6.88019,1.606,4.1006,373,5,
84.121,4.04816,6.88324,1.606,4.1006,373,5,
84.121,4.04816,6.88019,1.606,4.1006,373,5,
84.121,4.04785,6.88629,1.606,4.1006,373,5,
84.1211,4.04785,6.88477,1.606,4.1006,373,5,
84.1211,4.05304,6.88477,1.606,4.1006,373,5,
84.1211,4.05243,6.88324,1.606,4.1006,373,5,
84.1212,4.05334,6.88171,1.606,4.1006,373,5,
84.1212,4.05273,6.88324,1.606,4.1006,373,5,
84.1212,4.05304,6.88477,1.606,4.1006,373,5,
84.1213,4.05334,6.88171,1.606,4.1006,373,5,
84.1213,4.05304,6.88019,1.606,4.1006,373,5,
84.1213,4.05304,6.88171,1.606,4.1006,373,5,
84.1214,4.05334,6.88019,1.606,4.1006,373,5,
84.1214,4.05304,6.88019,1.606,4.1006,373,5,
84.1214,4.05334,6.88324,1.606,4.1006,373,5,
84.1215,4.05365,6.88171,1.606,4.1006,373,5,
84.1215,4.05396,6.88019,1.606,4.1006,373,5,
84.1215,4.05334,6.88171,1.606,4.1006,373,5,
84.1216,4.05396,6.88324,1.606,4.1006,373,5,
84.1216,4.05701,6.89087,1.606,4.1006,373,5,
84.1216,4.05792,6.8924,1.606,4.1006,373,5,
84.1217,4.05731,6.89545,1.606,4.1006,373,5,
84.1217,4.05792,6.89392,1.606,4.1006,373,5,
84.1217,4.05792,6.89392,1.606,4.1006,373,5,
84.1218,4.05823,6.89545,1.606,4.1006,373,5,
84.1218,4.05853,6.89545,1.606,4.1006,373,5,
84.1218,4.05853,6.8924,1.606,4.1006,373,5,
84.1219,4.05792,6.89392,1.606,4.1006,373,5,
84.1219,4.05823,6.89697,1.606,4.1006,373,5,
84.1219,4.05731,6.89545,1.606,4.1006,373,5,
84.122,4.05823,6.8985,1.606,4.1006,373,5,
84.122,4.05823,6.89392,1.606,4.1006,373,5,
84.122,4.06311,6.8924,1.606,4.1006,373,5,
84.1221,4.06281,6.8924,1.606,4.1006,373,5,
84.1221,4.06158,6.89087,1.606,4.1006,373,5,
84.1221,4.06311,6.89545,1.606,4.1006,373,5,
84.1222,4.06311,6.89545,1.606,4.1006,373,5,
84.1222,4.06342,6.89392,1.606,4.1006,373,5,
84.1222,4.0625,6.8924,1.606,4.1006,373,5,
84.1223,4.06342,6.89697,1.606,4.1006,373,5,
84.1223,4.06342,6.8924,1.606,4.1006,373,5,
84.1223,4.06311,6.89392,1.606,4.1006,373,5,
84.1224,4.06311,6.89545,1.606,4.1006,373,5,
84.1224,4.06738,6.89392,1.606,4.1006,373,5,
84.1224,4.06769,6.89545,1.606,4.1006,373,5,
84.1225,4.06769,6.89545,1.606,4.1006,373,5,
84.1225,4.06799,6.89697,1.606,4.1006,373,5,
84.1225,4.06799,6.90613,1.606,4.1006,373,5,
84.1226,4.0683,6.90613,1.606,4.1006,373,5,
84.1226,4.06799,6.90613,1.606,4.1006,373,5,
84.1226,4.06799,6.90613,1.606,4.1006,373,5,
84.1227,4.06799,6.91071,1.606,4.1006,373,5,
84.1227,4.06769,6.90613,1.606,4.1006,373,5,
84.1227,4.06891,6.90765,1.606,4.1006,373,5,
84.1228,4.07349,6.90765,1.606,4.1006,373,5,
84.1228,4.07318,6.90918,1.606,4.1006,373,5,
84.1228,4.07318,6.90613,1.606,4.1006,373,5,
84.1229,4.07257,6.9046,1.606,4.1006,373,5,
84.1229,4.07227,6.9046,1.606,4.1006,373,5,
84.1229,4.07257,6.90613,1.606,4.1006,373,5,
84.123,4.07288,6.90308,1.606,4.1006,373,5,
84.123,4.07166,6.90765,1.606,4.1006,373,5,
84.123,4.07318,6.90765,1.606,4.1006,373,5,
84.1231,4.07349,6.90765,1.606,4.1006,373,5,
84.1231,4.07776,6.9046,1.606,4.1006,373,5,
84.1231,4.07745,6.9046,1.606,4.1006,373,5,
84.1232,4.07776,6.90918,1.606,4.1006,373,5,
84.1232,4.07776,6.90918,1.606,4.1006,373,5,
84.1232,4.07776,6.90613,1.606,4.1006,373,5,
84.1233,4.07776,6.90613,1.606,4.1006,373,5,
84.1233,4.07776,6.9046,1.606,4.1006,373,5,
84.1233,4.07806,6.90308,1.606,4.1006,373,5,
84.1234,4.07776,6.90765,1.606,4.1006,373,5,
84.1234,4.08295,6.90613,1.606,4.1006,373,5,
84.1234,4.08295,6.9046,1.606,4.1006,373,5,
84.1235,4.08295,6.90613,1.606,4.1006,373,5,
84.1235,4.08325,6.90613,1.606,4.1006,373,5,
84.1235,4.08203,6.90918,1.606,4.1006,373,5,
84.1236,4.08203,6.90613,1.606,4.1006,373,5,
84.1236,4.08203,6.9046,1.606,4.1006,373,5,
84.1236,4.08234,6.90613,1.606,4.1006,373,5,
84.1237,4.08203,6.90765,1.606,4.1006,373,5,
84.1237,4.08722,6.9046,1.606,4.1006,373,5,
84.1237,4.08691,6.9046,1.606,4.1006,373,5,
84.1238,4.08722,6.90613,1.606,4.1006,373,5,
84.1238,4.08783,6.90613,1.606,4.1006,373,5,
84.1238,4.08722,6.90613,1.606,4.1006,373,5,
84.1239,4.08783,6.9046,1.606,4.1006,373,5,
84.1239,4.08752,6.90613,1.606,4.1006,373,5,
84.1239,4.08783,6.90613,1.606,4.1006,373,5,
84.124,4.08722,6.90765,1.606,4.1006,373,5,
84.124,4.09271,6.9046,1.606,4.1006,373,5,
84.124,4.09241,6.90613,1.606,4.1006,373,5,
84.1241,4.0921,6.90765,1.606,4.1006,373,5,
84.1241,4.09241,6.90613,1.606,4.1006,373,5,
84.1241,4.0921,6.90765,1.606,4.1006,373,5,
84.1242,4.0921,6.90613,1.606,4.1006,373,5,
84.1242,4.09271,6.90765,1.606,4.1006,373,5,
84.1242,4.09241,6.90613,1.606,4.1006,373,5,
84.1243,4.0918,6.91986,1.606,4.1006,373,5,
84.1243,4.09698,6.91834,1.606,4.1006,373,5,
84.1243,4.09637,6.91528,1.606,4.1006,373,5,
84.1244,4.09729,6.91834,1.606,4.1006,373,5,
84.1244,4.09851,6.91834,1.606,4.1006,373,5,
84.1244,4.0979,6.91528,1.606,4.1006,373,5,
84.1245,4.0979,6.91681,1.606,4.1006,373,5,
84.1245,4.09698,6.92139,1.606,4.1006,373,5,
84.1245,4.0976,6.91986,1.606,4.1006,373,5,
84.1246,4.09668,6.91986,0,4.1006,373,5,
84.1246,4.10065,6.91834,0,4.1006,373,5,
84.1246,4.10217,6.91681,0,4.1006,373,5,
84.1247,4.10156,6.91986,0,4.1006,373,5,
84.1247,4.10248,6.91986,0,4.1006,373,5,
84.1247,4.10187,6.91681,0,4.1006,373,5,
84.1248,4.10156,6.91681,0,4.1006,373,5,
84.1248,4.10187,6.92139,0,4.1006,373,5,
84.1248,4.10217,6.91834,0,4.1006,373,5,
84.1249,4.10248,6.92139,0,4.1006,373,5,
84.1249,4.10187,6.91681,0,4.1006,373,5,
84.1249,4.10309,6.91834,0,4.1006,373,5,
84.125,4.10736,6.91834,0,4.1006,373,5,
84.125,4.10706,6.91986,0,4.1006,373,5,
84.125,4.10706,6.91986,0,4.1006,373,5,
84.1251,4.10645,6.91986,0,4.1006,373,5,
84.1251,4.10706,6.91986,0,4.1006,373,5,
84.1251,4.10675,6.91834,0,4.1006,373,5,
84.1252,4.10736,6.91528,0,4.1006,373,5,
84.1252,4.10767,6.91986,0,4.1006,373,5,
84.1252,4.10706,6.91834,0,4.1006,373,5,
84.1253,4.10736,6.91528,0,4.1006,373,5,
84.1253,4.11194,6.91834,0,4.1006,373,5,
84.1253,4.11194,6.91681,0,4.1006,373,5,
84.1254,4.11194,6.91986,0,4.1006,373,5,
84.1254,4.11163,6.91986,0,4.1006,373,5,
84.1254,4.11163,6.91834,0,4.1006,373,5,
84.1255,4.11194,6.91834,0,4.1006,373,5,
84.1255,4.11163,6.91681,0,4.1006,373,5,
84.1255,4.11163,6.91986,0,4.1006,373,5,
84.1256,4.11163,6.93359,0,4.1006,373,5,
84.1256,4.11194,6.92902,0,4.1006,373,5,
84.1256,4.11224,6.93207,0,4.1006,373,5,
84.1257,4.11194,6.93054,0,4.1006,373,5,
84.1257,4.11377,6.93359,0,4.1006,373,5,
84.1257,4.11713,6.93054,0,4.1006,373,5,
84.1258,4.11713,6.93359,0,4.1006,373,5,
84.1258,4.11682,6.93207,0,4.1006,373,5,
84.1258,4.11713,6.93512,0,4.1006,373,5,
84.1259,4.11652,6.93054,0,4.1006,373,5,
84.1259,4.11682,6.93207,0,4.1006,373,5,
84.1259,4.11743,6.93207,0,4.1006,373,5,
84.126,4.11682,6.92902,0,4.1006,373,5,
84.126,4.11621,6.93207,0,4.1006,373,5,
84.126,4.11713,6.93054,0,4.1006,373,5,
84.1261,4.11682,6.93207,0,4.1006,373,5,
84.1261,4.11652,6.93359,0,4.1006,373,5,
84.1261,4.11652,6.93207,0,4.1006,373,5,
84.1262,4.11652,6.93054,0,4.1006,373,5,
84.1262,4.11713,6.93054,0,4.1006,373,5,
84.1262,4.1214,6.92902,0,4.1006,373,5,
84.1263,4.12262,6.92902,0,4.1006,373,5,
84.1263,4.12201,6.93359,0,4.1006,373,5,
84.1263,4.12231,6.92902,0,4.1006,373,5,
84.1264,4.12201,6.93054,0,4.1006,373,5,
84.1264,4.1217,6.93054,0,4.1006,373,5,
84.1264,4.12201,6.93054,0,4.1006,373,5,
84.1265,4.1214,6.9458,0,4.1006,373,5,
84.1265,4.12201,6.94122,0,4.1006,373,5,
84.1265,4.1217,6.94275,0,4.1006,373,5,
84.1266,4.12201,6.94733,0,4.1006,373,5,
84.1266,4.1217,6.94428,0,4.1006,373,5,
84.1266,4.12201,6.9458,0,4.1006,373,5,
84.1267,4.12109,6.94428,0,4.1006,373,5,
84.1267,4.1217,6.9458,0,4.1006,373,5,
84.1267,4.1217,6.94275,0,4.1006,373,5,
84.1268,4.12109,6.94275,0,4.1006,373,5,
84.1268,4.12201,6.94275,0,4.1006,373,5,
84.1268,4.1217,6.94275,0,4.1006,373,5,
84.1269,4.12109,6.94275,0,4.1006,373,5,
84.1269,4.1217,6.94428,0,4.1006,373,5,
84.1269,4.12537,6.94428,0,4.1006,373,5,
84.127,4.12628,6.9458,0,4.1006,373,5,
84.127,4.12628,6.94275,0,4.1006,373,5,
84.127,4.12689,6.9458,0,4.1006,373,5,
84.1271,4.12598,6.94428,0,4.1006,373,5,
84.1271,4.12598,6.9458,0,4.1006,373,5,
84.1271,4.12689,6.94275,0,4.1006,373,5,
84.1272,4.1272,6.94122,0,4.1006,373,5,
84.1272,4.12659,6.94428,0,4.1006,373,5,
84.1272,4.12628,6.94275,0,4.1006,373,5,
84.1273,4.12598,6.94275,0,4.1006,373,5,
84.1273,4.1272,6.9458,0,4.1006,373,5,
84.1273,4.12628,6.94275,0,4.1006,373,5,
84.1274,4.12567,6.94275,0,4.1006,373,5,
84.1274,4.12689,6.94428,0,4.1006,373,5,
84.1274,4.12689,6.94275,0,4.1006,373,5,
84.1275,4.12598,6.94428,0,4.1006,373,5,
84.1275,4.1272,6.94885,0,4.1006,373,5,
84.1275,4.12689,6.95496,0,4.1006,373,5,
84.1276,4.12659,6.95801,0,4.1006,373,5,
84.1276,4.12628,6.95496,0,4.1006,373,5,
84.1276,4.12628,6.95343,0,4.1006,373,5,
84.1277,4.1272,6.95343,0,4.1006,373,5,
84.1277,4.12689,6.95648,0,4.1006,373,5,
84.1277,4.12689,6.95648,0,4.1006,373,5,
84.1278,4.12628,6.95648,0,4.1006,373,5,
84.1278,4.12659,6.95496,0,4.1006,373,5,
84.1278,4.13086,6.95496,0,4.1006,373,5,
84.1279,4.13208,6.95496,0,4.1006,373,5,
84.1279,4.13025,6.95343,0,4.1006,373,5,
84.1279,4.13025,6.95801,0,4.1006,373,5,
84.128,4.13116,6.95343,0,4.1006,373,5,
84.128,4.13208,6.95648,0,4.1006,373,5,
84.128,4.13239,6.95343,0,4.1006,373,5,
84.1281,4.13208,6.95648,0,4.1006,373,5,
84.1281,4.13147,6.96564,0,4.1006,373,5,
84.1281,4.13147,6.96716,0,4.1006,373,5,
84.1282,4.13147,6.97022,0,4.1006,373,5,
84.1282,4.13147,6.97022,0,4.1006,373,5,
84.1282,4.13208,6.96716,0,4.1006,373,5,
84.1283,4.13147,6.96869,0,4.1006,373,5,
84.1283,4.13666,6.96869,0,4.1006,373,5,
84.1283,4.13605,6.97022,0,4.1006,373,5,
84.1284,4.13666,6.97327,0,4.1006,373,5,
84.1284,4.13544,6.96716,0,4.1006,373,5,
84.1284,4.13605,6.97174,0,4.1006,373,5,
84.1285,4.13635,6.97174,0,4.1006,373,5,
84.1285,4.13574,6.96716,0,4.1006,373,5,
84.1285,4.13696,6.96869,0,4.1006,373,5,
84.1286,4.13635,6.96564,0,4.1006,373,5,
84.1286,4.14124,6.97937,0,4.1006,373,5,
84.1286,4.14093,6.98395,0,4.1006,373,5,
84.1287,4.14154,6.98242,0,4.1006,373,5,
84.1287,4.14124,6.9809,0,4.1006,373,5,
84.1287,4.14093,6.97785,0,4.1006,373,5,
84.1288,4.14124,6.97785,0,4.1006,373,5,
84.1288,4.14093,6.9809,0,4.1006,373,5,
84.1288,4.14673,6.98242,0,4.1006,373,5,
84.1289,4.14642,6.9809,0,4.1006,373,5,
84.1289,4.14673,6.97937,0,4.1006,373,5,
84.1289,4.14612,6.9809,0,4.1006,373,5,
84.129,4.14612,6.97937,0,4.1006,373,5,
84.129,4.14642,6.9809,0,4.1006,373,5,
84.129,4.15009,6.9809,0,4.1006,373,5,
84.1291,4.15161,6.98242,0,4.1006,373,5,
84.1291,4.15161,6.99463,0,4.1006,373,5,
84.1291,4.15131,6.99463,0,4.1006,373,5,
84.1292,4.151,6.99616,0,4.1006,373,5,
84.1292,4.15314,6.99158,0,4.1006,373,5,
84.1292,4.15558,6.9931,0,4.1006,373,5,
84.1293,4.15619,6.99005,0,4.1006,373,5,
84.1293,4.15619,6.99158,0,4.1006,373,5,
84.1293,4.15588,6.99158,0,4.1006,373,5,
84.1294,4.15955,6.9931,0,4.1006,373,5,
84.1294,4.16107,6.99158,0,4.1006,373,5,
84.1294,4.16046,6.99158,0,4.1006,373,5,
84.1295,4.16077,6.9931,0,4.1006,373,5,
84.1295,4.16138,6.9931,0,4.1006,373,5,
84.1295,4.16565,6.99005,0,4.1006,373,5,
84.1296,4.16534,6.98853,0,4.1006,373,5,
84.1296,4.16565,6.99463,0,4.1006,373,5,
84.1296,4.16748,6.99158,0,4.1006,373,5,
84.1297,4.17053,6.99463,0,4.1006,373,5,
84.1297,4.17114,6.99921,0,4.1006,373,5,
84.1297,4.17084,7.00531,0,4.1006,373,5,
84.1298,4.1748,7.00379,0,4.1006,373,5,
84.1298,4.17542,7.00226,0,4.1006,373,5,
84.1298,4.17572,7.00379,0,4.1006,373,5,
84.1299,4.17572,7.00226,0,4.1006,373,5,
84.1299,4.18091,7.00379,0,4.1006,373,5,
84.1299,4.1803,7.00531,0,4.1006,373,5,
84.13,4.1803,7.00531,0,4.1006,373,5,
84.13,4.18457,7.00379,0,4.1006,373,5,
84.13,4.18549,7.00531,0,4.1006,373,5,
84.1301,4.18488,7.00226,0,4.1006,373,5,
84.1301,4.18945,7.00379,0,4.1006,373,5,
84.1301,4.19037,7.00684,0,4.1006,373,5,
84.1302,4.19006,7.00226,0,4.1006,373,5,
84.1302,4.19495,7.00531,0,4.1006,373,5,
84.1302,4.19525,7.00379,0,4.1006,373,5,
84.1303,4.19556,7.00684,0,4.1006,373,5,
84.1303,4.20013,7.00379,0,4.1006,373,5,
84.1303,4.20013,7.00226,0,4.1006,373,5,
84.1304,4.20044,7.00226,0,4.1006,373,5,
84.1304,4.20532,7.00684,0,4.1006,373,5,
84.1304,4.20532,7.00684,0,4.1006,373,5,
84.1305,4.20624,7.00379,0,4.1006,373,5,
84.1305,4.2099,7.00226,0,4.1006,373,5,
84.1305,4.2099,7.00531,0,4.1006,373,5,
84.1306,4.21509,7.00226,0,4.1006,373,5,
84.1306,4.21448,7.01752,0,4.1006,373,5,
84.1306,4.21631,7.01599,0,4.1006,373,5,
84.1307,4.21967,7.01599,0,4.1006,373,5,
84.1307,4.21997,7.01599,0,4.1006,373,5,
84.1307,4.22424,7.01599,0,4.1006,373,5,
84.1308,4.22455,7.01752,0,4.1006,373,5,
84.1308,4.22852,7.01599,0,4.1006,373,5,
84.1308,4.22913,7.01599,0,4.1006,373,5,
84.1309,4.23126,7.01294,0,4.1006,373,5,
84.1309,4.23462,7.01752,0,4.1006,373,5,
84.1309,4.23431,7.01599,0,4.1006,373,5,
84.131,4.2392,7.01447,0,4.1006,373,5,
84.131,4.23981,7.01599,0,4.1006,373,5,
84.131,4.24438,7.01904,0,4.1006,373,5,
84.1311,4.24408,7.01447,0,4.1006,373,5,
84.1311,4.24866,7.01904,0,4.1006,373,5,
84.1311,4.24896,7.02057,0,4.1006,373,5,
84.1312,4.25323,7.01447,0,4.1006,373,5,
84.1312,4.25446,7.01599,0,4.1006,373,5,
84.1312,4.25812,7.01752,0,4.1006,373,5,
84.1313,4.25995,7.01904,0,4.1006,373,5,
84.1313,4.26392,7.01599,0,4.1006,373,5,
84.1313,4.26392,7.01752,0,4.1006,373,5,
84.1314,4.26819,7.01904,0,4.1006,373,5,
84.1314,4.2691,7.01599,0,4.1006,373,5,
84.1314,4.27246,7.01752,0,4.1006,373,5,
84.1315,4.27399,7.02057,0,4.1006,373,5,
84.1315,4.27734,7.01599,0,4.1006,373,5,
84.1315,4.27856,7.01752,0,4.1006,373,5,
84.1316,4.28314,7.01599,0,4.1006,373,5,
84.1316,4.28345,7.01752,0,4.1006,373,5,
84.1316,4.28833,7.01447,0,4.1006,373,5,
84.1317,4.28802,7.01599,0,4.1006,373,5,
84.1317,4.29321,7.01904,0,4.1006,373,5,
84.1317,4.29474,7.01752,0,4.1006,373,5,
84.1318,4.29779,7.01904,0,4.1006,373,5,
84.1318,4.29993,7.01752,0,4.1006,373,5,
84.1318,4.30267,7.01599,0,4.1006,373,5,
84.1319,4.30695,7.01599,0,4.1006,373,5,
84.1319,4.30695,7.01447,0,4.1006,373,5,
84.1319,4.31244,7.01752,0,4.1006,373,5,
84.132,4.31244,7.01599,0,4.1006,373,5,
84.132,4.31763,7.01904,0,4.1006,373,5,
84.132,4.31824,7.01752,0,4.1006,373,5,
84.1321,4.32251,7.01752,0,4.1006,373,5,
84.1321,4.32617,7.01752,0,4.1006,373,5,
84.1321,4.32709,7.01752,0,4.1006,373,5,
84.1322,4.33228,7.01599,0,4.1006,373,5,
84.1322,4.33228,7.02973,0,4.1006,373,5,
84.1322,4.33777,7.0282,0,4.1006,373,5,
84.1323,4.33838,7.03278,0,4.1006,373,5,
84.1323,4.34174,7.02515,0,4.1006,373,5,
84.1323,4.34601,7.02973,0,4.1006,373,5,
84.1324,4.34692,7.02973,0,4.1006,373,5,
84.1324,4.35211,7.0282,0,4.1006,373,5,
84.1324,4.35333,7.03125,0,4.1006,373,5,
84.1325,4.35699,7.02667,0,4.1006,373,5,
84.1325,4.36127,7.0282,0,4.1006,373,5,
84.1325,4.36157,7.02973,0,4.1006,373,5,
84.1326,4.36615,7.03125,0,4.1006,373,5,
84.1326,4.36829,7.02973,0,4.1006,373,5,
84.1326,4.37164,7.02667,0,4.1006,373,5,
84.1327,4.37531,7.02515,0,4.1006,373,5,
84.1327,4.37653,7.03125,0,4.1006,373,5,
84.1327,4.3811,7.02973,0,4.1006,373,5,
84.1328,4.38263,7.0282,0,4.1006,373,5,
84.1328,4.38751,7.0282,0,4.1006,373,5,
84.1328,4.38995,7.02973,0,4.1006,373,5,
84.1329,4.39056,7.02667,0,4.1006,373,5,
84.1329,4.39575,7.02973,0,4.1006,373,5,
84.1329,4.39728,7.0282,0,4.1006,373,5,
84.133,4.40094,7.0282,0,4.1006,373,5,
84.133,4.40521,7.02973,0,4.1006,373,5,
84.133,4.40735,7.02973,0,4.1006,373,5,
84.1331,4.41101,7.0282,0,4.1006,373,5,
84.1331,4.41467,7.03278,0,4.1006,373,5,
84.1331,4.4162,7.03125,0,4.1006,373,5,
84.1332,4.42139,7.02973,0,4.1006,373,5,
84.1332,4.4223,7.02973,0,4.1006,373,5,
84.1332,4.42505,7.0282,0,4.1006,373,5,
84.1333,4.43054,7.02973,0,4.1006,373,5,
84.1333,4.43207,7.02667,0,4.1006,373,5,
84.1333,4.43542,7.0282,0,4.1006,373,5,
84.1334,4.43939,7.03278,0,4.1006,373,5,
84.1334,4.44,7.0282,0,4.1006,373,5,
84.1334,4.44519,7.02515,0,4.1006,373,5,
84.1335,4.44885,7.02667,0,4.1006,373,5,
84.1335,4.45068,7.02973,0,4.1006,373,5,
84.1335,4.45465,7.02973,0,4.1006,373,5,
84.1336,4.45618,7.03278,0,4.1006,373,5,
84.1336,4.45984,7.02667,0,4.1006,373,5,
84.1336,4.46381,7.02515,0,4.1006,373,5,
84.1337,4.46564,7.03278,0,4.1006,373,5,
84.1337,4.4693,7.0282,0,4.1006,373,5,
84.1337,4.47449,7.02515,0,4.1006,373,5,
84.1338,4.47479,7.0282,0,4.1006,373,5,
84.1338,4.47968,7.03278,0,4.1006,373,5,
84.1338,4.48303,7.02973,0,4.1006,373,5,
84.1339,4.48456,7.02973,0,4.1006,373,5,
84.1339,4.48883,7.0282,0,4.1006,373,5,
84.1339,4.49066,7.0282,0,4.1006,373,5,
84.134,4.49341,7.0282,0,4.1006,373,5,
84.134,4.49921,7.02973,0,4.1006,373,5,
84.134,4.50073,7.0282,0,4.1006,373,5,
84.1341,4.5047,7.03125,0,4.1006,373,5,
84.1341,4.50836,7.0282,0,4.1006,373,5,
84.1341,4.50897,7.0282,0,4.1006,373,5,
84.1342,4.51324,7.0282,0,4.1006,373,5,
84.1342,4.51508,7.0282,0,4.1006,373,5,
84.1342,4.51874,7.02667,0,4.1006,373,5,
84.1343,4.52271,7.02973,0,4.1006,373,5,
84.1343,4.52515,7.0282,0,4.1006,373,5,
84.1343,4.5285,7.0282,0,4.1006,373,5,
84.1344,4.53186,7.03125,0,4.1006,373,5,
84.1344,4.53308,7.03125,0,4.1006,373,5,
84.1344,4.53827,7.04041,0,4.1006,373,5,
84.1345,4.53949,7.04041,0,4.1006,373,5,
84.1345,4.54285,7.04193,0,4.1006,373,5,
84.1345,4.54803,7.04346,0,4.1006,373,5,
84.1346,4.54803,7.04193,0,4.1006,373,5,
84.1346,4.55322,7.04346,0,4.1006,373,5,
84.1346,4.55353,7.03735,0,4.1006,373,5,
84.1347,4.5578,7.04041,0,4.1006,373,5,
84.1347,4.56268,7.04193,0,4.1006,373,5,
84.1347,4.56268,7.04041,0,4.1006,373,5,
84.1348,4.56665,7.04041,0,4.1006,373,5,
84.1348,4.5697,7.03735,0,4.1006,373,5,
84.1348,4.57184,7.04193,0,4.1006,373,5,
84.1349,4.57764,7.03735,0,4.1006,373,5,
84.1349,4.57764,7.03888,0,4.1006,373,5,
84.1349,4.58282,7.04193,0,4.1006,373,5,
84.135,4.58313,7.04041,0,4.1006,373,5,
84.135,4.5874,7.04346,0,4.1006,373,5,
84.135,4.59137,7.04041,0,4.1006,373,5,
84.1351,4.5929,7.04041,0,4.1006,373,5,
84.1351,4.59717,7.04193,0,4.1006,373,5,
84.1351,4.59839,7.04041,0,4.1006,373,5,
84.1352,4.60236,7.04346,0,4.1006,373,5,
84.1352,4.60541,7.04041,0,4.1006,373,5,
84.1352,4.60693,7.03735,0,4.1006,373,5,
84.1353,4.61121,7.03735,0,4.1006,373,5,
84.1353,4.61151,7.04041,0,4.1006,373,5,
84.1353,4.61609,7.04346,0,4.1006,373,5,
84.1354,4.61792,7.04193,0,4.1006,373,5,
84.1354,4.62158,7.04041,0,4.1006,373,5,
84.1354,4.62463,7.04193,0,4.1006,373,5,
84.1355,4.62616,7.04193,0,4.1006,373,5,
84.1355,4.63104,7.04193,0,4.1006,373,5,
84.1355,4.63135,7.04193,0,4.1006,373,5,
84.1356,4.63623,7.04193,0,4.1006,373,5,
84.1356,4.63806,7.04346,0,4.1006,373,5,
84.1356,4.64081,7.03888,0,4.1006,373,5,
84.1357,4.64508,7.04193,0,4.1006,373,5,
84.1357,4.646,7.04193,0,4.1006,373,5,
84.1357,4.65057,7.04193,0,4.1006,373,5,
84.1358,4.6521,7.04193,0,4.1006,373,5,
84.1358,4.65546,7.03888,0,4.1006,373,5,
84.1358,4.65942,7.04193,0,4.1006,373,5,
84.1359,4.66064,7.04041,0,4.1006,373,5,
84.1359,4.66492,7.04193,0,4.1006,373,5,
84.1359,4.66583,7.04041,0,4.1006,373,5,
84.136,4.67072,7.04041,0,4.1006,373,5,
84.136,4.67163,7.04041,0,4.1006,373,5,
84.136,4.6756,7.04346,0,4.1006,373,5,
84.1361,4.67773,7.04041,0,4.1006,373,5,
84.1361,4.68048,7.03888,0,4.1006,373,5,
84.1361,4.68414,7.03888,0,4.1006,373,5,
84.1362,4.68536,7.04041,0,4.1006,373,5,
84.1362,4.68994,7.03888,0,4.1006,373,5,
84.1362,4.68994,7.04041,0,4.1006,373,5,
84.1363,4.69482,7.04193,0,4.1006,373,5,
84.1363,4.69696,7.04346,0,4.1006,373,5,
84.1363,4.70032,7.04193,0,4.1006,373,5,
84.1364,4.70367,7.04346,0,4.1006,373,5,
84.1364,4.70398,7.04346,0,4.1006,373,5,
84.1364,4.70917,7.04346,0,4.1006,373,5,
84.1365,4.70947,7.03735,0,4.1006,373,5,
84.1365,4.71466,7.04346,0,4.1006,373,5,
84.1365,4.71649,7.04804,0,4.1006,373,5,
84.1366,4.71924,7.04041,0,4.1006,373,5,
84.1366,4.72351,7.04041,0,4.1006,373,5,
84.1366,4.72443,7.03888,0,4.1006,373,5,
84.1367,4.729,7.04041,0,4.1006,373,5,
84.1367,4.72931,7.03735,0,4.1006,373,5,
84.1367,4.73389,7.04346,0,4.1006,373,5,
84.1368,4.73389,7.04346,0,4.1006,373,5,
84.1368,4.73907,7.03888,0,4.1006,373,5,
84.1368,4.7403,7.04041,0,4.1006,373,5,
84.1369,4.74335,7.04041,0,4.1006,373,5,
84.1369,4.74731,7.04498,0,4.1006,373,5,
84.1369,4.74915,7.04193,0,4.1006,373,5,
84.137,4.75433,7.04041,0,4.1006,373,5,
84.137,4.75403,7.04041,0,4.1006,373,5,
84.137,4.75891,7.04041,0,4.1006,373,5,
84.1371,4.75861,7.04193,0,4.1006,373,5,
84.1371,4.76379,7.04193,0,4.1006,373,5,
84.1371,4.76501,7.04041,0,4.1006,373,5,
84.1372,4.76868,7.04346,0,4.1006,373,5,
84.1372,4.77173,7.04041,0,4.1006,373,5,
84.1372,4.77325,7.04346,0,4.1006,373,5,
84.1373,4.77814,7.03888,0,4.1006,373,5,
84.1373,4.77905,7.04193,0,4.1006,373,5,
84.1373,4.78302,7.04193,0,4.1006,373,5,
84.1374,4.78333,7.04041,0,4.1006,373,5,
84.1374,4.78851,7.04193,0,4.1006,373,5,
84.1374,4.78882,7.04193,0,4.1006,373,5,
84.1375,4.79248,7.03888,0,4.1006,373,5,
84.1375,4.79736,7.04041,0,4.1006,373,5,
84.1375,4.79767,7.03583,0,4.1006,373,5,
84.1376,4.80164,7.03888,0,4.1006,373,5,
84.1376,4.80255,7.03583,0,4.1006,373,5,
84.1376,4.80804,7.04193,0,4.1006,373,5,
84.1377,4.80743,7.04041,0,4.1006,373,5,
84.1377,4.81232,7.04041,0,4.1006,373,5,
84.1377,4.81201,7.04041,0,4.1006,373,5,
84.1378,4.8172,7.03888,0,4.1006,373,5,
84.1378,4.81934,7.04346,0,4.1006,373,5,
84.1378,4.82269,7.04346,0,4.1006,373,5,
84.1379,4.82361,7.04041,0,4.1006,373,5,
84.1379,4.82758,7.04346,0,4.1006,373,5,
84.1379,4.83093,7.03888,0,4.1006,373,5,
84.138,4.83185,7.03888,0,4.1006,373,5,
84.138,4.83612,7.04041,0,4.1006,373,5,
84.138,4.83704,7.03735,0,4.1006,373,5,
84.1381,4.84131,7.04041,0,4.1006,373,5,
84.1381,4.84192,7.04193,0,4.1006,373,5,
84.1381,4.84711,7.03735,0,4.1006,373,5,
84.1382,4.8468,7.03888,0,4.1006,373,5,
84.1382,4.85168,7.04041,0,4.1006,373,5,
84.1382,4.85168,7.04041,0,4.1006,373,5,
84.1383,4.85657,7.04193,0,4.1006,373,5,
84.1383,4.85626,7.03888,0,4.1006,373,5,
84.1383,4.86115,7.04193,0,4.1006,373,5,
84.1384,4.86115,7.04041,0,4.1006,373,5,
84.1384,4.86694,7.04346,0,4.1006,373,5,
84.1384,4.86755,7.04193,0,4.1006,373,5,
84.1385,4.87122,7.04193,0,4.1006,373,5,
84.1385,4.87213,7.04193,0,4.1006,373,5,
84.1385,4.8764,7.04346,0,4.1006,373,5,
84.1386,4.87701,7.04041,0,4.1006,373,5,
84.1386,4.88159,7.04041,0,4.1006,373,5,
84.1386,4.88129,7.04193,0,4.1006,373,5,
84.1387,4.88586,7.04041,0,4.1006,373,5,
84.1387,4.88525,7.04498,0,4.1006,373,5,
84.1387,4.89105,7.04041,0,4.1006,373,5,
84.1388,4.89105,7.04041,0,4.1006,373,5,
84.1388,4.89563,7.03888,0,4.1006,373,5,
84.1388,4.89563,7.03735,0,4.1006,373,5,
84.1389,4.90051,7.04193,0,4.1006,373,5,
84.1389,4.90082,7.04193,0,4.1006,373,5,
84.1389,4.9054,7.04346,0,4.1006,373,5,
84.139,4.9054,7.04346,0,4.1006,373,5,
84.139,4.91058,7.04498,0,4.1006,373,5,
84.139,4.91119,7.05261,0,4.1006,373,5,
84.1391,4.91547,7.05109,0,4.1006,373,5,
84.1391,4.91516,7.05261,0,4.1006,373,5,
84.1391,4.92065,7.05261,0,4.1006,373,5,
84.1392,4.92096,7.05566,0,4.1006,373,5,
84.1392,4.92554,7.05566,0,4.1006,373,5,
84.1392,4.92584,7.04956,0,4.1006,373,5,
84.1393,4.93011,7.05414,0,4.1006,373,5,
84.1393,4.92981,7.05109,0,4.1006,373,5,
84.1393,4.93469,7.05261,0,4.1006,373,5,
84.1394,4.9353,7.05109,0,4.1006,373,5,
84.1394,4.93927,7.05109,0,4.1006,373,5,
84.1394,4.94019,7.05566,0,4.1006,373,5,
84.1395,4.94415,7.05261,0,4.1006,373,5,
84.1395,4.94476,7.05109,0,4.1006,373,5,
84.1395,4.94659,7.05414,0,4.1006,373,5,
84.1396,4.94965,7.05414,0,4.1006,373,5,
84.1396,4.95178,7.05261,0,4.1006,373,5,
84.1396,4.95483,7.05261,0,4.1006,373,5,
84.1397,4.95544,7.05414,0,4.1006,373,5,
84.1397,4.96033,7.05566,0,4.1006,373,5,
84.1397,4.96002,7.05109,0,4.1006,373,5,
84.1398,4.96429,7.05414,0,4.1006,373,5,
84.1398,4.96521,7.05261,0,4.1006,373,5,
84.1398,4.96979,7.05261,0,4.1006,373,5,
84.1399,4.96948,7.05414,0,4.1006,373,5,
84.1399,4.97437,7.05566,0,4.1006,373,5,
84.1399,4.97437,7.05261,0,4.1006,373,5,
84.14,4.9765,7.05261,0,4.1006,373,5,
84.14,4.98016,7.05566,0,4.1006,373,5,
84.14,4.97894,7.04956,0,4.1006,373,5,
84.1401,4.98474,7.05261,0,4.1006,373,5,
84.1401,4.98383,7.05261,0,4.1006,373,5,
84.1401,4.98871,7.05566,0,4.1006,373,5,
84.1402,4.98932,7.05414,0,4.1006,373,5,
84.1402,4.99359,7.05261,0,4.1006,373,5,
84.1402,4.9942,7.05566,0,4.1006,373,5,
84.1403,4.99603,7.05109,0,4.1006,373,5,
84.1403,4.99908,7.05566,0,4.1006,373,5,
84.1403,4.99939,7.05261,0,4.1006,373,5,
84.1404,5.00305,7.05566,0,4.1006,373,5,
84.1404,5.00336,7.05261,0,4.1006,373,5,
84.1404,5.00763,7.04956,0,4.1006,373,5,
84.1405,5.00977,7.05566,0,4.1006,373,5,
84.1405,5.00885,7.05261,0,4.1006,373,5,
84.1405,5.01312,7.05566,0,4.1006,373,5,
84.1406,5.01373,7.05566,0,4.1006,373,5,
84.1406,5.0177,7.05261,0,4.1006,373,5,
84.1406,5.01831,7.05414,0,4.1006,373,5,
84.1407,5.01862,7.05109,0,4.1006,373,5,
84.1407,5.02319,7.05414,0,4.1006,373,5,
84.1407,5.0235,7.05414,0,4.1006,373,5,
84.1408,5.02747,7.05566,0,4.1006,373,5,
84.1408,5.02808,7.05261,0,4.1006,373,5,
84.1408,5.02838,7.05414,0,4.1006,373,5,
84.1409,5.03296,7.05566,0,4.1006,373,5,
84.1409,5.03387,7.05414,0,4.1006,373,5,
84.1409,5.03448,7.05261,0,4.1006,373,5,
84.141,5.03784,7.05414,0,4.1006,373,5,
84.141,5.03723,7.05261,0,4.1006,373,5,
84.141,5.04181,7.05261,0,4.1006,373,5,
84.1411,5.04303,7.05109,0,4.1006,373,5,
84.1411,5.04303,7.05109,0,4.1006,373,5,
84.1411,5.0473,7.05566,0,4.1006,373,5,
84.1412,5.04761,7.05414,0,4.1006,373,5,
84.1412,5.04883,7.05261,0,4.1006,373,5,
84.1412,5.0528,7.05109,0,4.1006,373,5,
84.1413,5.05249,7.05109,0,4.1006,373,5,
84.1413,5.0531,7.05109,0,4.1006,373,5,
84.1413,5.05768,7.05414,0,4.1006,373,5,
84.1414,5.05768,7.05261,0,4.1006,373,5,
84.1414,5.05768,7.05414,0,4.1006,373,5,
84.1414,5.06256,7.05872,0,4.1006,373,5,
84.1415,5.06226,7.05261,0,4.1006,373,5,
84.1415,5.06287,7.05261,0,4.1006,373,5,
84.1415,5.06775,7.05566,0,4.1006,373,5,
84.1416,5.06775,7.05261,0,4.1006,373,5,
84.1416,5.06775,7.05109,0,4.1006,373,5,
84.1416,5.07202,7.05261,0,4.1006,373,5,
84.1417,5.07233,7.05566,0,4.1006,373,5,
84.1417,5.07294,7.05566,0,4.1006,373,5,
84.1417,5.07385,7.05414,0,4.1006,373,5,
84.1418,5.07782,7.05261,0,4.1006,373,5,
84.1418,5.07843,7.05414,0,4.1006,373,5,
84.1418,5.07751,7.05261,0,4.1006,373,5,
84.1419,5.08209,7.05414,0,4.1006,373,5,
84.1419,5.0824,7.05261,0,4.1006,373,5,
84.1419,5.0824,7.05414,0,4.1006,373,5,
84.142,5.08362,7.05109,0,4.1006,373,5,
84.142,5.08728,7.05109,0,4.1006,373,5,
84.142,5.08728,7.05261,0,4.1006,373,5,
84.1421,5.08698,7.05109,0,4.1006,373,5,
84.1421,5.09094,7.05261,0,4.1006,373,5,
84.1421,5.09216,7.05261,0,4.1006,373,5,
84.1422,5.09155,7.05414,0,4.1006,373,5,
84.1422,5.09155,7.05261,0,4.1006,373,5,
84.1422,5.09644,7.05414,0,4.1006,373,5,
84.1423,5.09705,7.05414,0,4.1006,373,5,
84.1423,5.09644,7.04804,0,4.1006,373,5,
84.1423,5.09644,7.05566,0,4.1006,373,5,
84.1424,5.1001,7.05414,0,4.1006,373,5,
84.1424,5.10101,7.05414,0,4.1006,373,5,
84.1424,5.10132,7.05109,0,4.1006,373,5,
84.1425,5.10101,7.05109,0,4.1006,373,5,
84.1425,5.10101,7.05414,0,4.1006,373,5,
84.1425,5.1062,7.05414,0,4.1006,373,5,
84.1426,5.1059,7.05261,0,4.1006,373,5,
84.1426,5.1062,7.05414,0,4.1006,373,5,
84.1426,5.10651,7.05566,0,4.1006,373,5,
84.1427,5.10742,7.05566,0,4.1006,373,5,
84.1427,5.11169,7.06635,0,4.1006,373,5,
84.1427,5.11047,7.06329,0,4.1006,373,5,
84.1428,5.112,7.06482,0,4.1006,373,5,
84.1428,5.11169,7.06482,0,4.1006,373,5,
84.1428,5.11108,7.06635,0,4.1006,373,5,
84.1429,5.11658,7.06482,0,4.1006,373,5,
84.1429,5.11597,7.06635,0,4.1006,373,5,
84.1429,5.11536,7.06635,0,4.1006,373,5,
84.143,5.11597,7.0694,0,4.1006,373,5,
84.143,5.11627,7.06787,0,4.1006,373,5,
84.143,5.11597,7.06635,0,4.1006,373,5,
84.1431,5.12115,7.06329,0,4.1006,373,5,
84.1431,5.12085,7.06787,0,4.1006,373,5,
84.1431,5.12115,7.06482,0,4.1006,373,5,
84.1432,5.12146,7.06787,0,4.1006,373,5,
84.1432,5.12177,7.06787,0,4.1006,373,5,
84.1432,5.12177,7.06482,0,4.1006,373,5,
84.1433,5.12085,7.06635,2.772,4.1006,373,5,
84.1433,5.12451,7.06482,2.772,4.1006,373,5,
84.1433,5.12634,7.06482,2.772,4.1006,373,5,
84.1434,5.12573,7.06329,2.772,4.1006,373,5,
84.1434,5.12573,7.06482,2.772,4.1006,373,5,
84.1434,5.12604,7.06635,2.772,4.1006,373,5,
84.1435,5.12604,7.06329,2.772,4.1006,373,5,
84.1435,5.12604,7.06482,2.772,4.1006,373,5,
84.1435,5.12634,7.06787,2.772,4.1006,373,5,
84.1436,5.12604,7.06482,2.772,4.1006,373,5,
84.1436,5.12634,7.06635,2.772,4.1006,373,5,
84.1436,5.12573,7.06482,2.772,4.1006,373,5,
84.1437,5.13031,7.06635,2.772,4.1006,373,5,
84.1437,5.13062,7.06787,2.772,4.1006,373,5,
84.1437,5.13092,7.0694,2.772,4.1006,373,5,
84.1438,5.13092,7.06787,2.772,4.1006,373,5,
84.1438,5.13153,7.06482,2.772,4.1006,373,5,
84.1438,5.13123,7.06482,2.772,4.1006,373,5,
84.1439,5.13031,7.06635,2.772,4.1006,373,5,
84.1439,5.13123,7.06482,2.772,4.1006,373,5,
84.1439,5.13092,7.06635,2.772,4.1006,373,5,
84.144,5.13031,7.06482,2.772,4.1006,373,5,
84.144,5.13062,7.06482,2.772,4.1006,373,5,
84.144,5.13092,7.06787,2.772,4.1006,373,5,
84.1441,5.13062,7.06482,2.772,4.1006,373,5,
84.1441,5.13123,7.06787,2.772,4.1006,373,5,
84.1441,5.13092,7.06177,2.772,4.1006,373,5,
84.1442,5.13092,7.06482,2.772,4.1006,373,5,
84.1442,5.13092,7.06329,2.772,4.1006,373,5,
84.1442,5.13092,7.06635,2.772,4.1006,373,5,
84.1443,5.13092,7.06329,2.772,4.1006,373,5,
84.1443,5.13062,7.06787,2.772,4.1006,373,5,
84.1443,5.13092,7.06635,2.772,4.1006,373,5,
84.1444,5.13031,7.06482,2.772,4.1006,373,5,
84.1444,5.13123,7.06635,2.772,4.1006,373,5,
84.1444,5.13153,7.06329,2.772,4.1006,373,5,
84.1445,5.13062,7.06329,2.772,4.1006,373,5,
84.1445,5.13062,7.06635,2.772,4.1006,373,5,
84.1445,5.13092,7.06177,2.772,4.1006,373,5,
84.1446,5.13123,7.06787,2.772,4.1006,373,5,
84.1446,5.13092,7.06482,2.772,4.1006,373,5,
84.1446,5.12726,7.06635,2.772,4.1006,373,5,
84.1447,5.12604,7.06482,2.772,4.1006,373,5,
84.1447,5.12634,7.06787,2.772,4.1006,373,5,
84.1447,5.12604,7.06177,2.772,4.1006,373,5,
84.1448,5.12604,7.06329,2.772,4.1006,373,5,
84.1448,5.12604,7.06024,2.772,4.1006,373,5,
84.1448,5.12573,7.08008,2.772,4.1006,373,5,
84.1449,5.12604,7.07855,2.772,4.1006,373,5,
84.1449,5.12604,7.08008,2.772,4.1006,373,5,
84.1449,5.12573,7.0755,2.772,4.1006,373,5,
84.145,5.12695,7.07703,2.772,4.1006,373,5,
84.145,5.12146,7.07703,2.772,4.1006,373,5,
84.145,5.12146,7.07855,2.772,4.1006,373,5,
84.1451,5.12146,7.07855,2.772,4.1006,373,5,
84.1451,5.12115,7.08008,2.772,4.1006,373,5,
84.1451,5.12115,7.08313,2.772,4.1006,373,5,
84.1452,5.12146,7.07703,2.772,4.1006,373,5,
84.1452,5.12115,7.07855,2.772,4.1006,373,5,
84.1452,5.11719,7.08008,2.772,4.1006,373,5,
84.1453,5.11566,7.07703,2.772,4.1006,373,5,
84.1453,5.11658,7.07855,2.772,4.1006,373,5,
84.1453,5.11658,7.07703,2.772,4.1006,373,5,
84.1454,5.11627,7.07855,2.772,4.1006,373,5,
84.1454,5.11719,7.07855,2.772,4.1006,373,5,
84.1454,5.11536,7.07855,2.772,4.1006,373,5,
84.1455,5.11139,7.07855,2.772,4.1006,373,5,
84.1455,5.11108,7.08008,2.772,4.1006,373,5,
84.1455,5.11139,7.07855,2.772,4.1006,373,5,
84.1456,5.112,7.08313,2.772,4.1006,373,5,
84.1456,5.11139,7.07703,2.772,4.1006,373,5,
84.1456,5.10742,7.07703,2.772,4.1006,373,5,
84.1457,5.1059,7.07703,2.772,4.1006,373,5,
84.1457,5.10651,7.0755,2.772,4.1006,373,5,
84.1457,5.10651,7.07703,2.772,4.1006,373,5,
84.1458,5.1062,7.07855,2.772,4.1006,373,5,
84.1458,5.10162,7.07855,2.772,4.1006,373,5,
84.1458,5.10162,7.07703,2.772,4.1006,373,5,
84.1459,5.10162,7.07855,2.772,4.1006,373,5,
84.1459,5.10162,7.07703,2.772,4.1006,373,5,
84.1459,5.10071,7.07855,2.772,4.1006,373,5,
84.146,5.09674,7.07703,2.772,4.1006,373,5,
84.146,5.09644,7.08008,2.772,4.1006,373,5,
84.146,5.09674,7.07703,2.772,4.1006,373,5,
84.1461,5.09705,7.07703,2.772,4.1006,373,5,
84.1461,5.09216,7.07703,2.772,4.1006,373,5,
84.1461,5.09125,7.07703,2.772,4.1006,373,5,
84.1462,5.09125,7.07703,2.772,4.1006,373,5,
84.1462,5.09155,7.07703,2.772,4.1006,373,5,
84.1462,5.08759,7.0755,2.772,4.1006,373,5,
84.1463,5.08667,7.0755,2.772,4.1006,373,5,
84.1463,5.08698,7.07703,2.772,4.1006,373,5,
84.1463,5.08606,7.07855,2.772,4.1006,373,5,
84.1464,5.08209,7.07855,2.772,4.1006,373,5,
84.1464,5.08179,7.07703,2.772,4.1006,373,5,
84.1464,5.08179,7.07703,2.772,4.1006,373,5,
84.1465,5.08209,7.0755,2.772,4.1006,373,5,
84.1465,5.07843,7.08008,2.772,4.1006,373,5,
84.1465,5.07751,7.0755,2.772,4.1006,373,5,
84.1466,5.0769,7.0816,2.772,4.1006,373,5,
84.1466,5.07599,7.0816,2.772,4.1006,373,5,
84.1466,5.07233,7.0755,2.772,4.1006,373,5,
84.1467,5.07233,7.07703,2.772,4.1006,373,5,
84.1467,5.07233,7.07855,2.772,4.1006,373,5,
84.1467,5.06897,7.08008,2.772,4.1006,373,5,
84.1468,5.06714,7.07855,2.772,4.1006,373,5,
84.1468,5.06744,7.07855,2.772,4.1006,373,5,
84.1468,5.065,7.07703,2.772,4.1006,373,5,
84.1469,5.06317,7.07703,2.772,4.1006,373,5,
84.1469,5.06226,7.0755,2.772,4.1006,373,5,
84.1469,5.06287,7.07703,2.772,4.1006,373,5,
84.147,5.05737,7.08008,2.772,4.1006,373,5,
84.147,5.05798,7.08008,2.772,4.1006,373,5,
84.147,5.05707,7.08008,2.772,4.1006,373,5,
84.1471,5.05341,7.0816,2.772,4.1006,373,5,
84.1471,5.05249,7.07855,2.772,4.1006,373,5,
84.1471,5.05341,7.07703,2.772,4.1006,373,5,
84.1472,5.05157,7.08008,2.772,4.1006,373,5,
84.1472,5.04791,7.07855,2.772,4.1006,373,5,
84.1472,5.04822,7.0816,2.772,4.1006,373,5,
84.1473,5.04883,7.08008,2.772,4.1006,373,5,
84.1473,5.04303,7.07855,2.772,4.1006,373,5,
84.1473,5.04272,7.0755,2.772,4.1006,373,5,
84.1474,5.04303,7.07703,2.772,4.1006,373,5,
84.1474,5.03815,7.07703,2.772,4.1006,373,5,
84.1474,5.03784,7.07703,2.772,4.1006,373,5,
84.1475,5.03815,7.07855,2.772,4.1006,373,5,
84.1475,5.03326,7.0755,2.772,4.1006,373,5,
84.1475,5.03296,7.07703,2.772,4.1006,373,5,
84.1476,5.03418,7.07703,2.772,4.1006,373,5,
84.1476,5.02838,7.0755,2.772,4.1006,373,5,
84.1476,5.02838,7.0755,2.772,4.1006,373,5,
84.1477,5.02838,7.07703,2.772,4.1006,373,5,
84.1477,5.02411,7.08008,2.772,4.1006,373,5,
84.1477,5.0238,7.0816,2.772,4.1006,373,5,
84.1478,5.0235,7.07855,2.772,4.1006,373,5,
84.1478,5.01892,7.08008,2.772,4.1006,373,5,
84.1478,5.01892,7.0755,2.772,4.1006,373,5,
84.1479,5.01862,7.07703,2.772,4.1006,373,5,
84.1479,5.01373,7.07703,2.772,4.1006,373,5,
84.1479,5.01373,7.07855,2.772,4.1006,373,5,
84.148,5.01373,7.07855,2.772,4.1006,373,5,
84.148,5.00885,7.07703,2.772,4.1006,373,5,
84.148,5.00916,7.07703,2.772,4.1006,373,5,
84.1481,5.00885,7.07855,2.772,4.1006,373,5,
84.1481,5.00336,7.07703,2.772,4.1006,373,5,
84.1481,5.00366,7.07398,2.772,4.1006,373,5,
84.1482,5.00397,7.07703,2.772,4.1006,373,5,
84.1482,4.99786,7.08008,2.772,4.1006,373,5,
84.1482,4.99969,7.07703,2.772,4.1006,373,5,
84.1483,4.99908,7.08313,2.772,4.1006,373,5,
84.1483,4.9939,7.07398,2.772,4.1006,373,5,
84.1483,4.99329,7.0755,2.772,4.1006,373,5,
84.1484,4.99237,7.07703,2.772,4.1006,373,5,
84.1484,4.98962,7.07855,2.772,4.1006,373,5,
84.1484,4.98901,7.08008,2.772,4.1006,373,5,
84.1485,4.98749,7.07703,2.772,4.1006,373,5,
84.1485,4.98474,7.08923,2.772,4.1006,373,5,
84.1485,4.98505,7.09076,2.772,4.1006,373,5,
84.1486,4.98291,7.09076,2.772,4.1006,373,5,
84.1486,4.97894,7.08923,2.772,4.1006,373,5,
84.1486,4.97986,7.09229,2.772,4.1006,373,5,
84.1487,4.97559,7.08923,2.772,4.1006,373,5,
84.1487,4.97437,7.08923,2.772,4.1006,373,5,
84.1487,4.97498,7.08771,2.772,4.1006,373,5,
84.1488,4.9707,7.09076,2.772,4.1006,373,5,
84.1488,4.96948,7.09229,2.772,4.1006,373,5,
84.1488,4.96948,7.08923,2.772,0,373,5,
84.1489,4.9649,7.09076,2.772,0,373,5,
84.1489,4.9649,7.08923,2.772,0,373,5,
84.1489,4.96429,7.08923,2.772,0,373,5,
84.149,4.95972,7.09076,2.772,0,373,5,
84.149,4.95972,7.08771,2.772,0,373,5,
84.149,4.96033,7.08923,2.772,0,373,5,
84.1491,4.95514,7.09076,2.772,0,373,5,
84.1491,4.95514,7.09076,2.772,0,373,5,
84.1491,4.95422,7.08771,2.772,0,373,5,
84.1492,4.94934,7.08923,2.772,0,373,5,
84.1492,4.94995,7.09076,2.772,0,373,5,
84.1492,4.94873,7.08923,2.772,0,373,5,
84.1493,4.94476,7.08771,2.772,0,373,5,
84.1493,4.94507,7.08923,2.772,0,373,5,
84.1493,4.94141,7.08923,2.772,0,373,5,
84.1494,4.9408,7.08771,2.772,0,373,5,
84.1494,4.94019,7.08618,2.772,0,373,5,
84.1494,4.93591,7.08923,2.772,0,373,5,
84.1495,4.9353,7.08923,2.772,0,373,5,
84.1495,4.9353,7.08923,2.772,0,373,5,
84.1495,4.93164,7.09229,2.772,0,373,5,
84.1496,4.93011,7.09076,2.772,0,373,5,
84.1496,4.93011,7.08771,2.772,0,373,5,
84.1496,4.92615,7.08923,2.772,0,373,5,
84.1497,4.92523,7.08923,2.772,0,373,5,
84.1497,4.92584,7.08923,2.772,0,373,5,
84.1497,4.92035,7.09076,2.772,0,373,5,
84.1498,4.92065,7.09381,2.772,0,373,5,
84.1498,4.92065,7.08923,2.772,0,373,5,
84.1498,4.91577,7.09229,2.772,0,373,5,
84.1499,4.91577,7.08923,2.772,0,373,5,
84.1499,4.91577,7.08923,2.772,0,373,5,
84.1499,4.91089,7.09076,2.772,0,373,5,
84.15,4.9115,7.08618,2.772,0,373,5,
84.15,4.91119,7.08771,2.772,0,373,5,
84.15,4.9057,7.08618,2.772,0,373,5,
84.1501,4.9057,7.08618,2.772,0,373,5,
84.1501,4.9057,7.09381,2.772,0,373,5,
84.1501,4.90082,7.09076,2.772,0,373,5,
84.1502,4.90112,7.08771,2.772,0,373,5,
84.1502,4.90082,7.08771,2.772,0,373,5,
84.1502,4.89685,7.09076,2.772,0,373,5,
84.1503,4.89532,7.09229,2.772,0,373,5,
84.1503,4.89624,7.08923,2.772,0,373,5,
84.1503,4.89258,7.08923,2.772,0,373,5,
84.1504,4.89105,7.08771,2.772,0,373,5,
84.1504,4.89075,7.08466,2.772,0,373,5,
84.1504,4.89014,7.08923,2.772,0,373,5,
84.1505,4.88586,7.08313,2.772,0,373,5,
84.1505,4.88617,7.08923,2.772,0,373,5,
84.1505,4.88617,7.08771,2.772,0,373,5,
84.1506,4.88068,7.08923,2.772,0,373,5,
84.1506,4.88129,7.08771,2.772,0,373,5,
84.1506,4.88098,7.09229,2.772,0,373,5,
84.1507,4.8761,7.08618,2.772,0,373,5,
84.1507,4.87579,7.08771,2.772,0,373,5,
84.1507,4.87549,7.08923,2.772,0,373,5,
84.1508,4.87213,7.09076,2.772,0,373,5,
84.1508,4.87152,7.08771,2.772,0,373,5,
84.1508,4.87091,7.08618,2.772,0,373,5,
84.1509,4.8703,7.08923,2.772,0,373,5,
84.1509,4.86603,7.09229,2.772,0,373,5,
84.1509,4.86664,7.08618,2.772,0,373,5,
84.151,4.86664,7.08923,2.772,0,373,5,
84.151,4.86176,7.09229,2.772,0,373,5,
84.151,4.86176,7.09381,2.772,0,373,5,
84.1511,4.86176,7.09076,2.772,0,373,5,
84.1511,4.86115,7.08771,2.772,0,373,5,
84.1511,4.85687,7.09076,2.772,0,373,5,
84.1512,4.85687,7.08923,2.772,0,373,5,
84.1512,4.85626,7.08923,2.772,0,373,5,
84.1512,4.8526,7.08923,2.772,0,373,5,
84.1513,4.85138,7.09076,2.772,0,373,5,
84.1513,4.85199,7.08771,2.772,0,373,5,
84.1513,4.8526,7.09076,2.772,0,373,5,
84.1514,4.84741,7.09381,2.772,0,373,5,
84.1514,4.8465,7.08923,2.772,0,373,5,
84.1514,4.8468,7.09229,2.772,0,373,5,
84.1515,4.84558,7.09229,2.772,0,373,5,
84.1515,4.84222,7.09686,2.772,0,373,5,
84.1515,4.84192,7.08923,2.772,0,373,5,
84.1516,4.84222,7.08771,2.772,0,373,5,
84.1516,4.83795,7.08923,2.772,0,373,5,
84.1516,4.83704,7.08923,2.772,0,373,5,
84.1517,4.83765,7.09534,2.772,0,373,5,
84.1517,4.83704,7.08923,2.772,0,373,5,
84.1517,4.83246,7.09076,2.772,0,373,5,
84.1518,4.83185,7.08923,2.772,0,373,5,
84.1518,4.83215,7.08923,2.772,0,373,5,
84.1518,4.83276,7.09076,2.772,0,373,5,
84.1519,4.82727,7.09381,2.772,0,373,5,
84.1519,4.82758,7.08923,2.772,0,373,5,
84.1519,4.82727,7.08923,2.772,0,373,5,
84.152,4.82727,7.09076,2.772,0,373,5,
84.152,4.82361,7.09076,2.772,0,373,5,
84.152,4.82269,7.08771,2.772,0,373,5,
84.1521,4.823,7.08466,2.772,0,373,5,
84.1521,4.82269,7.09076,2.772,0,373,5,
84.1521,4.82147,7.09076,2.772,0,373,5,
84.1522,4.8175,7.08923,2.772,0,373,5,
84.1522,4.8172,7.09076,2.772,0,373,5,
84.1522,4.81812,7.08923,2.772,0,373,5,
84.1523,4.81812,7.09229,2.772,0,373,5,
84.1523,4.81262,7.08771,2.772,0,373,5,
84.1523,4.81323,7.09076,2.772,0,373,5,
84.1524,4.81323,7.08618,2.772,0,373,5,
84.1524,4.81293,7.08923,2.772,0,373,5,
84.1524,4.80865,7.08923,2.772,0,373,5,
84.1525,4.80774,7.08771,2.772,0,373,5,
84.1525,4.80835,7.08618,2.772,0,373,5,
84.1525,4.80743,7.08923,2.772,0,373,5,
84.1526,4.80743,7.08466,2.772,0,373,5,
84.1526,4.80408,7.09076,2.772,0,373,5,
84.1526,4.80255,7.09076,2.772,0,373,5,
84.1527,4.80316,7.08923,2.772,0,373,5,
84.1527,4.80255,7.08771,2.772,0,373,5,
84.1527,4.80347,7.09076,2.772,0,373,5,
84.1528,4.79767,7.08771,2.772,0,373,5,
84.1528,4.79858,7.09229,2.772,0,373,5,
84.1528,4.79858,7.09076,2.772,0,373,5,
84.1529,4.79736,7.08771,2.772,0,373,5,
84.1529,4.79767,7.08771,2.772,0,373,5,
84.1529,4.7934,7.08771,2.772,0,373,5,
84.153,4.79309,7.08923,2.772,0,373,5,
84.153,4.79248,7.08618,2.772,0,373,5,
84.153,4.79309,7.09229,2.772,0,373,5,
84.1531,4.79309,7.07855,2.772,0,373,5,
84.1531,4.78882,7.07855,2.772,0,373,5,
84.1531,4.7876,7.07703,2.772,0,373,5,
84.1532,4.7879,7.07703,2.772,0,373,5,
84.1532,4.7876,7.07703,2.772,0,373,5,
84.1532,4.7879,7.07855,2.772,0,373,5,
84.1533,4.78455,7.0755,2.772,0,373,5,
84.1533,4.78363,7.07703,2.772,0,373,5,
84.1533,4.78363,7.07855,2.772,0,373,5,
84.1534,4.78302,7.0755,2.772,0,373,5,
84.1534,4.78302,7.07703,2.772,0,373,5,
84.1534,4.78271,7.0755,2.772,0,373,5,
84.1535,4.77814,7.0755,2.772,0,373,5,
84.1535,4.77814,7.07703,2.772,0,373,5,
84.1535,4.77875,7.07703,2.772,0,373,5,
84.1536,4.77814,7.0755,2.772,0,373,5,
84.1536,4.77844,7.0755,2.772,0,373,5,
84.1536,4.77844,7.07703,2.772,0,373,5,
84.1537,4.77356,7.07703,2.772,0,373,5,
84.1537,4.77417,7.07703,2.772,0,373,5,
84.1537,4.77356,7.07855,2.772,0,373,5,
84.1538,4.77417,7.07703,2.772,0,373,5,
84.1538,4.77356,7.07703,2.772,0,373,5,
84.1538,4.77356,7.0755,2.772,0,373,5,
84.1539,4.76959,7.07855,2.772,0,373,5,
84.1539,4.76959,7.08008,2.772,0,373,5,
84.1539,4.76929,7.07855,2.772,0,373,5,
84.154,4.76959,7.08008,2.772,0,373,5,
84.154,4.76959,7.07855,2.772,0,373,5,
84.154,4.76898,7.07855,2.772,0,373,5,
84.1541,4.76929,7.07855,2.772,0,373,5,
84.1541,4.76349,7.07703,2.772,0,373,5,
84.1541,4.7644,7.0816,2.772,0,373,5,
84.1542,4.76318,7.07398,2.772,0,373,5,
84.1542,4.7644,7.07703,2.772,0,373,5,
84.1542,4.76379,7.07398,2.772,0,373,5,
84.1543,4.76318,7.07855,2.772,0,373,5,
84.1543,4.76318,7.0755,2.772,0,373,5,
84.1543,4.76257,7.07398,2.772,0,373,5,
84.1544,4.75861,7.07855,2.772,0,373,5,
84.1544,4.7583,7.0755,2.772,0,373,5,
84.1544,4.7583,7.07855,2.772,0,373,5,
84.1545,4.75861,7.07855,2.772,0,373,5,
84.1545,4.758,7.07855,2.772,0,373,5,
84.1545,4.75861,7.07855,2.772,0,373,5,
84.1546,4.75861,7.07703,2.772,0,373,5,
84.1546,4.75861,7.07703,2.772,0,373,5,
84.1546,4.75433,7.08008,2.772,0,373,5,
84.1547,4.75372,7.08008,2.772,0,373,5,
84.1547,4.75372,7.07703,2.772,0,373,5,
84.1547,4.75342,7.08008,2.772,0,373,5,
84.1548,4.75403,7.08008,2.772,0,373,5,
84.1548,4.75342,7.07398,2.772,0,373,5,
84.1548,4.75372,7.07855,2.772,0,373,5,
84.1549,4.75372,7.07703,2.772,0,373,5,
84.1549,4.75403,7.07855,2.772,0,373,5,
84.1549,4.75342,7.07855,2.772,0,373,5,
84.155,4.74884,7.08008,2.772,0,373,5,
84.155,4.74945,7.07855,2.772,0,373,5,
84.155,4.74854,7.07703,2.772,0,373,5,
84.1551,4.74884,7.07703,2.772,0,373,5,
84.1551,4.74915,7.0755,2.772,0,373,5,
84.1551,4.74976,7.0755,2.772,0,373,5,
84.1552,4.74854,7.0755,2.772,0,373,5,
84.1552,4.74915,7.0755,2.772,0,373,5,
84.1552,4.74915,7.07703,2.772,0,373,5,
84.1553,4.74884,7.07855,2.772,0,373,5,
84.1553,4.74915,7.0755,2.772,0,373,5,
84.1553,4.74396,7.07703,2.772,0,373,5,
84.1554,4.74426,7.07398,2.772,0,373,5,
84.1554,4.74365,7.07703,2.772,0,373,5,
84.1554,4.74396,7.07703,2.772,0,373,5,
84.1555,4.74396,7.07703,2.772,0,373,5,
84.1555,4.74335,7.07855,2.772,0,373,5,
84.1555,4.74426,7.07703,2.772,0,373,5,
84.1556,4.74396,7.07855,2.772,0,373,5,
84.1556,4.74457,7.07855,2.772,0,373,5,
84.1556,4.74426,7.07855,2.772,0,373,5,
84.1557,4.74365,7.07855,2.772,0,373,5,
84.1557,4.74426,7.08008,2.772,0,373,5,
84.1557,4.73907,7.07398,2.772,0,373,5,
84.1558,4.73907,7.07703,2.772,0,373,5,
84.1558,4.73907,7.0755,2.772,0,373,5,
84.1558,4.73877,7.07855,2.772,0,373,5,
84.1559,4.73907,7.07855,2.772,0,373,5,
84.1559,4.73877,7.08008,2.772,0,373,5,
84.1559,4.73846,7.0755,2.772,0,373,5,
84.156,4.73907,7.07855,2.772,0,373,5,
84.156,4.73907,7.07703,2.772,0,373,5,
84.156,4.73907,7.07855,2.772,0,373,5,
84.1561,4.73846,7.08008,2.772,0,373,5,
84.1561,4.73907,7.07703,2.772,0,373,5,
84.1561,4.73877,7.07855,2.772,0,373,5,
84.1562,4.7345,7.0755,2.772,0,373,5,
84.1562,4.73419,7.07855,2.772,0,373,5,
84.1562,4.73389,7.0755,2.772,0,373,5,
84.1563,4.73419,7.08008,2.772,0,373,5,
84.1563,4.73389,7.07855,2.772,0,373,5,
84.1563,4.73358,7.07855,2.772,0,373,5,
84.1564,4.73389,7.08008,2.772,0,373,5,
84.1564,4.7348,7.08008,2.772,0,373,5,
84.1564,4.7348,7.08008,2.772,0,373,5,
84.1565,4.73389,7.0755,2.772,0,373,5,
84.1565,4.73419,7.08008,2.772,0,373,5,
84.1565,4.7345,7.07703,2.772,0,373,5,
84.1566,4.7345,7.07703,2.772,0,373,5,
84.1566,4.72931,7.0755,2.772,3.87998,373,5,
84.1566,4.72961,7.08008,2.772,3.87998,373,5,
84.1567,4.72931,7.08008,2.772,3.87998,373,5,
84.1567,4.72961,7.07855,2.772,3.87998,373,5,
84.1567,4.729,7.08008,2.772,3.87998,373,5,
84.1568,4.729,7.07855,2.772,3.87998,373,5,
84.1568,4.72961,7.07703,2.772,3.87998,373,5,
84.1568,4.729,7.07703,2.772,3.87998,373,5,
84.1569,4.72992,7.07855,2.772,3.87998,373,5,
84.1569,4.72931,7.07855,2.772,3.87998,373,5,
84.1569,4.72992,7.07855,2.772,3.87998,373,5,
84.157,4.72931,7.07855,2.772,3.87998,373,5,
84.157,4.72443,7.08313,2.772,3.87998,373,5,
84.157,4.72443,7.07855,2.772,3.87998,373,5,
84.1571,4.72412,7.0755,2.772,3.87998,373,5,
84.1571,4.72412,7.07703,2.772,3.87998,373,5,
84.1571,4.72443,7.07855,2.772,3.87998,373,5,
84.1572,4.72443,7.07855,2.772,3.87998,373,5,
84.1572,4.72504,7.07855,2.772,3.87998,373,5,
84.1572,4.72412,7.07855,2.772,3.87998,373,5,
84.1573,4.72473,7.07855,2.772,3.87998,373,5,
84.1573,4.72412,7.07703,2.772,3.87998,373,5,
84.1573,4.72473,7.07855,2.772,3.87998,373,5,
84.1574,4.71954,7.07855,2.772,3.87998,373,5,
84.1574,4.71985,7.07855,2.772,3.87998,373,5,
84.1574,4.71985,7.07855,2.772,3.87998,373,5,
84.1575,4.72015,7.07703,2.772,3.87998,373,5,
84.1575,4.71954,7.07703,2.772,3.87998,373,5,
84.1575,4.71954,7.07855,2.772,3.87998,373,5,
84.1576,4.72015,7.08008,2.772,3.87998,373,5,
84.1576,4.71985,7.07855,2.772,3.87998,373,5,
84.1576,4.71985,7.07855,2.772,3.87998,373,5,
84.1577,4.71588,7.08008,2.772,3.87998,373,5,
84.1577,4.71527,7.0755,2.772,3.87998,373,5,
84.1577,4.71497,7.07703,2.772,3.87998,373,5,
84.1578,4.71436,7.08008,2.772,3.87998,373,5,
84.1578,4.71527,7.07703,2.772,3.87998,373,5,
84.1578,4.71466,7.07703,2.772,3.87998,373,5,
84.1579,4.71527,7.07855,2.772,3.87998,373,5,
84.1579,4.71497,7.07855,2.772,3.87998,373,5,
84.1579,4.71008,7.07855,2.772,3.87998,373,5,
84.158,4.71008,7.08008,2.772,3.87998,373,5,
84.158,4.71008,7.0755,2.772,3.87998,373,5,
84.158,4.70947,7.07703,2.772,3.87998,373,5,
84.1581,4.71008,7.0755,2.772,3.87998,373,5,
84.1581,4.70978,7.07855,2.772,3.87998,373,5,
84.1581,4.71008,7.08008,2.772,3.87998,373,5,
84.1582,4.70551,7.0755,2.772,3.87998,373,5,
84.1582,4.7049,7.08008,2.772,3.87998,373,5,
84.1582,4.7052,7.07855,2.772,3.87998,373,5,
84.1583,4.70581,7.07855,2.772,3.87998,373,5,
84.1583,4.7049,7.08008,2.772,3.87998,373,5,
84.1583,4.70367,7.07703,2.772,3.87998,373,5,
84.1584,4.70001,7.0755,2.772,3.87998,373,5,
84.1584,4.70062,7.07703,2.772,3.87998,373,5,
84.1584,4.70032,7.07703,2.772,3.87998,373,5,
84.1585,4.70001,7.07703,2.772,3.87998,373,5,
84.1585,4.6994,7.07703,2.772,3.87998,373,5,
84.1585,4.69482,7.0755,2.772,3.87998,373,5,
84.1586,4.69543,7.07703,2.772,3.87998,373,5,
84.1586,4.69482,7.07703,2.772,3.87998,373,5,
84.1586,4.69482,7.0755,2.772,3.87998,373,5,
84.1587,4.69482,7.07855,2.772,3.87998,373,5,
84.1587,4.69086,7.07855,2.772,3.87998,373,5,
84.1587,4.68994,7.0755,2.772,3.87998,373,5,
84.1588,4.69055,7.07703,2.772,3.87998,373,5,
84.1588,4.69086,7.07703,2.772,3.87998,373,5,
84.1588,4.68994,7.07855,2.772,3.87998,373,5,
84.1589,4.68842,7.07855,2.772,3.87998,373,5,
84.1589,4.68536,7.07855,2.772,3.87998,373,5,
84.1589,4.68506,7.07703,2.772,3.87998,373,5,
84.159,4.68445,7.07855,2.772,3.87998,373,5,
84.159,4.68506,7.0755,2.772,3.87998,373,5,
84.159,4.68201,7.07855,2.772,3.87998,373,5,
84.1591,4.68018,7.07855,2.772,3.87998,373,5,
84.1591,4.68048,7.0816,2.772,3.87998,373,5,
84.1591,4.68018,7.07855,2.772,3.87998,373,5,
84.1592,4.68018,7.07703,2.772,3.87998,373,5,
84.1592,4.67621,7.07855,2.772,3.87998,373,5,
84.1592,4.6756,7.0755,2.772,3.87998,373,5,
84.1593,4.67529,7.07703,2.772,3.87998,373,5,
84.1593,4.67499,7.0755,2.772,3.87998,373,5,
84.1593,4.67499,7.07703,2.772,3.87998,373,5,
84.1594,4.67163,7.07398,2.772,3.87998,373,5,
84.1594,4.67072,7.07703,2.772,3.87998,373,5,
84.1594,4.67163,7.07398,2.772,3.87998,373,5,
84.1595,4.67102,7.07855,2.772,3.87998,373,5,
84.1595,4.67072,7.07703,2.772,3.87998,373,5,
84.1595,4.66583,7.0755,2.772,3.87998,373,5,
84.1596,4.66522,7.07245,2.772,3.87998,373,5,
84.1596,4.66553,7.07703,2.772,3.87998,373,5,
84.1596,4.66553,7.07855,2.772,3.87998,373,5,
84.1597,4.66461,7.07703,2.772,3.87998,373,5,
84.1597,4.66125,7.08008,2.772,3.87998,373,5,
84.1597,4.66064,7.07398,2.772,3.87998,373,5,
84.1598,4.66095,7.07398,2.772,3.87998,373,5,
84.1598,4.66064,7.0755,2.772,3.87998,373,5,
84.1598,4.66003,7.08008,2.772,3.87998,373,5,
84.1599,4.65698,7.07703,2.772,3.87998,373,5,
84.1599,4.65546,7.07855,2.772,3.87998,373,5,
84.1599,4.65576,7.07703,2.772,3.87998,373,5,
84.16,4.65607,7.07703,2.772,3.87998,373,5,
84.16,4.65546,7.07855,2.772,3.87998,373,5,
84.16,4.65515,7.07703,2.772,3.87998,373,5,
84.1601,4.65057,7.07703,2.772,3.87998,373,5,
84.1601,4.65088,7.07703,2.772,3.87998,373,5,
84.1601,4.65088,7.07855,2.772,3.87998,373,5,
84.1602,4.64996,7.07855,2.772,3.87998,373,5,
84.1602,4.65118,7.0755,2.772,3.87998,373,5,
84.1602,4.64722,7.07703,2.772,3.87998,373,5,
84.1603,4.64661,7.07855,2.772,3.87998,373,5,
84.1603,4.64539,7.07855,2.772,3.87998,373,5,
84.1603,4.646,7.07703,2.772,3.87998,373,5,
84.1604,4.64569,7.07855,2.772,3.87998,373,5,
84.1604,4.64203,7.07703,2.772,3.87998,373,5,
84.1604,4.64111,7.07703,2.772,3.87998,373,5,
84.1605,4.64111,7.07703,2.772,3.87998,373,5,
84.1605,4.64142,7.07703,2.772,3.87998,373,5,
84.1605,4.64142,7.07703,2.772,3.87998,373,5,
84.1606,4.64081,7.07703,2.772,3.87998,373,5,
84.1606,4.63593,7.07703,2.772,3.87998,373,5,
84.1606,4.63623,7.0755,2.772,3.87998,373,5,
84.1607,4.63623,7.07855,2.772,3.87998,373,5,
84.1607,4.63623,7.07855,2.772,3.87998,373,5,
84.1607,4.63593,7.07855,2.772,3.87998,373,5,
84.1608,4.63684,7.07398,2.772,3.87998,373,5,
84.1608,4.63165,7.0755,2.772,3.87998,373,5,
84.1608,4.63135,7.07703,2.772,3.87998,373,5,
84.1609,4.63104,7.07703,2.772,3.87998,373,5,
84.1609,4.63104,7.0755,2.772,3.87998,373,5,
84.1609,4.63104,7.07703,2.772,3.87998,373,5,
84.161,4.63135,7.07855,2.772,3.87998,373,5,
84.161,4.62646,7.07398,2.772,3.87998,373,5,
84.161,4.62616,7.0755,2.772,3.87998,373,5,
84.1611,4.62646,7.07855,2.772,3.87998,373,5,
84.1611,4.62646,7.0755,2.772,3.87998,373,5,
84.1611,4.62585,7.07703,2.772,3.87998,373,5,
84.1612,4.62677,7.07703,2.772,3.87998,373,5,
84.1612,4.62463,7.07855,2.772,3.87998,373,5,
84.1612,4.62219,7.07245,2.772,3.87998,373,5,
84.1613,4.62097,7.08008,2.772,3.87998,373,5,
84.1613,4.62189,7.07855,2.772,3.87998,373,5,
84.1613,4.62128,7.0755,2.772,3.87998,373,5,
84.1614,4.62158,7.07855,2.772,3.87998,373,5,
84.1614,4.62158,7.0755,2.772,3.87998,373,5,
84.1614,4.61884,7.0755,2.772,3.87998,373,5,
84.1615,4.6167,7.07855,2.772,3.87998,373,5,
84.1615,4.6167,7.07703,2.772,3.87998,373,5,
84.1615,4.61639,7.07703,2.772,3.87998,373,5,
84.1616,4.6167,7.07245,2.772,3.87998,373,5,
84.1616,4.61761,7.0755,2.772,3.87998,373,5,
84.1616,4.61639,7.07855,2.772,3.87998,373,5,
84.1617,4.61639,7.07855,2.772,3.87998,373,5,
84.1617,4.61151,7.07398,2.772,3.87998,373,5,
84.1617,4.61121,7.07703,2.772,3.87998,373,5,
84.1618,4.6106,7.0816,2.772,3.87998,373,5,
84.1618,4.61212,7.07855,2.772,3.87998,373,5,
84.1618,4.61151,7.08008,2.772,3.87998,373,5,
84.1619,4.61151,7.07398,2.772,3.87998,373,5,
84.1619,4.61151,7.07703,2.772,3.87998,373,5,
84.1619,4.61151,7.0816,2.772,3.87998,373,5,
84.162,4.60724,7.0755,2.772,3.87998,373,5,
84.162,4.60663,7.07855,2.772,3.87998,373,5,
84.162,4.60663,7.07703,2.772,3.87998,373,5,
84.1621,4.60724,7.07703,2.772,3.87998,373,5,
84.1621,4.60693,7.0755,2.772,3.87998,373,5,
84.1621,4.60693,7.07398,2.772,3.87998,373,5,
84.1622,4.60663,7.07703,2.772,3.87998,373,5,
84.1622,4.60663,7.08008,2.772,3.87998,373,5,
84.1622,4.60663,7.07703,2.772,3.87998,373,5,
84.1623,4.60175,7.07855,2.772,3.87998,373,5,
84.1623,4.60144,7.07703,2.772,3.87998,373,5,
84.1623,4.60144,7.07703,2.772,3.87998,373,5,
84.1624,4.60205,7.07703,2.772,3.87998,373,5,
84.1624,4.60205,7.07398,2.772,3.87998,373,5,
84.1624,4.60175,7.07855,2.772,3.87998,373,5,
84.1625,4.60205,7.0755,2.772,3.87998,373,5,
84.1625,4.60144,7.07855,2.772,3.87998,373,5,
84.1625,4.60144,7.0755,2.772,3.87998,373,5,
84.1626,4.60205,7.07703,2.772,3.87998,373,5,
84.1626,4.59808,7.07855,2.772,3.87998,373,5,
84.1626,4.59686,7.0755,2.772,3.87998,373,5,
84.1627,4.59686,7.08008,2.772,3.87998,373,5,
84.1627,4.59625,7.07703,2.772,3.87998,373,5,
84.1627,4.59717,7.07855,2.772,3.87998,373,5,
84.1628,4.59625,7.08008,2.772,3.87998,373,5,
84.1628,4.59625,7.07855,2.772,3.87998,373,5,
84.1628,4.59686,7.08008,2.772,3.87998,373,5,
84.1629,4.59656,7.0816,2.772,3.87998,373,5,
84.1629,4.59656,7.07855,2.772,3.87998,373,5,
84.1629,4.59717,7.08008,2.772,3.87998,373,5,
84.163,4.59686,7.07855,2.772,3.87998,373,5,
84.163,4.59229,7.07703,2.772,3.87998,373,5,
84.163,4.59229,7.07855,2.772,3.87998,373,5,
84.1631,4.59167,7.0755,2.772,3.87998,373,5,
84.1631,4.59259,7.08008,2.772,3.87998,373,5,
84.1631,4.59229,7.07703,2.772,3.87998,373,5,
84.1632,4.59259,7.07855,2.772,3.87998,373,5,
84.1632,4.59137,7.07855,2.772,3.87998,373,5,
84.1632,4.59259,7.0755,2.772,3.87998,373,5,
84.1633,4.59229,7.0755,2.772,3.87998,373,5,
84.1633,4.59259,7.07703,2.772,3.87998,373,5,
84.1633,4.59229,7.07855,2.772,3.87998,373,5,
84.1634,4.59198,7.07855,2.772,3.87998,373,5,
84.1634,4.59198,7.08008,2.772,3.87998,373,5,
84.1634,4.59198,7.07855,2.772,3.87998,373,5,
84.1635,4.59076,7.07855,2.772,3.87998,373,5,
84.1635,4.58649,7.07855,2.772,3.87998,373,5,
84.1635,4.58771,7.0755,2.772,3.87998,373,5,
84.1636,4.5871,7.07703,2.772,3.87998,373,5,
84.1636,4.5874,7.08008,2.772,3.87998,373,5,
84.1636,4.5871,7.0755,2.772,3.87998,373,5,
84.1637,4.58771,7.08008,2.772,3.87998,373,5,
84.1637,4.5871,7.07855,2.772,3.87998,373,5,
84.1637,4.5871,7.07703,2.772,3.87998,373,5,
84.1638,4.5874,7.0816,2.772,3.87998,373,5,
84.1638,4.5871,7.08008,2.772,3.87998,373,5,
84.1638,4.5874,7.07703,2.772,3.87998,373,5,
84.1639,4.5871,7.08008,2.772,3.87998,373,5,
84.1639,4.5871,7.07703,2.772,3.87998,373,5,
84.1639,4.5871,7.08008,2.772,3.87998,373,5,
84.164,4.58679,7.07855,2.772,3.87998,373,5,
84.164,4.58679,7.08008,2.772,3.87998,373,5,
84.164,4.58649,7.07703,2.772,3.87998,373,5,
84.1641,4.5871,7.07703,2.772,3.87998,373,5,
84.1641,4.5874,7.07703,2.772,3.87998,373,5,
84.1641,4.58252,7.07855,2.772,3.87998,373,5,
84.1642,4.58191,7.0816,2.772,3.87998,373,5,
84.1642,4.58221,7.0816,2.772,3.87998,373,5,
84.1642,4.58221,7.07703,2.772,3.87998,373,5,
84.1643,4.58252,7.07703,2.772,3.87998,373,5,
84.1643,4.58221,7.07703,2.772,3.87998,373,5,
84.1643,4.58252,7.07855,2.772,3.87998,373,5,
84.1644,4.58221,7.07855,2.772,3.87998,373,5,
84.1644,4.58191,7.07703,2.772,3.87998,373,5,
84.1644,4.58191,7.0755,2.772,3.87998,373,5,
84.1645,4.58252,7.07855,2.772,3.87998,373,5,
84.1645,4.5816,7.08008,2.772,3.87998,373,5,
84.1645,4.58252,7.07703,2.772,3.87998,373,5,
84.1646,4.58191,7.07703,2.772,3.87998,373,5,
84.1646,4.58221,7.08008,2.772,3.87998,373,5,
84.1646,4.58252,7.07855,2.772,3.87998,373,5,
84.1647,4.58191,7.07703,2.772,3.87998,373,5,
84.1647,4.58191,7.07855,2.772,3.87998,373,5,
84.1647,4.58191,7.07855,2.772,3.87998,373,5,
84.1648,4.58252,7.07855,2.772,3.87998,373,5,
84.1648,4.58221,7.07703,2.772,3.87998,373,5,
84.1648,4.58191,7.08008,2.772,3.87998,373,5,
84.1649,4.58191,7.07703,2.772,3.87998,373,5,
84.1649,4.58252,7.07855,2.772,3.87998,373,5,
84.1649,4.5816,7.07703,2.772,3.87998,373,5,
84.165,4.58221,7.0755,2.772,3.87998,373,5,
84.165,4.58191,7.07855,2.772,3.87998,373,5,
84.165,4.58252,7.08008,2.772,3.87998,373,5,
84.1651,4.58191,7.07703,2.772,3.87998,373,5,
84.1651,4.58191,7.0755,2.772,3.87998,373,5,
84.1651,4.58221,7.0755,2.772,3.87998,373,5,
84.1652,4.58282,7.07703,2.772,3.87998,373,5,
84.1652,4.58252,7.07703,2.772,3.87998,373,5,
84.1652,4.58252,7.07855,2.772,3.87998,373,5,
84.1653,4.58221,7.0755,2.772,3.87998,373,5,
84.1653,4.58221,7.0755,2.772,3.87998,373,5,
84.1653,4.58252,7.07703,2.772,3.87998,373,5,
84.1654,4.5816,7.07703,2.772,3.87998,373,5,
84.1654,4.58191,7.0755,2.772,3.87998,373,5,
84.1654,4.58252,7.0755,2.772,3.87998,373,5,
84.1655,4.58221,7.07703,2.772,3.87998,373,5,
84.1655,4.58221,7.07855,2.772,3.87998,373,5,
84.1655,4.58191,7.08008,2.772,3.87998,373,5,
84.1656,4.58221,7.0755,2.772,3.87998,373,5,
84.1656,4.58252,7.07855,2.772,3.87998,373,5,
84.1656,4.58221,7.07855,2.772,3.87998,373,5,
84.1657,4.58191,7.0816,2.772,3.87998,373,5,
84.1657,4.58221,7.07398,2.772,3.87998,373,5,
84.1657,4.58221,7.08008,2.772,3.87998,373,5,
84.1658,4.58282,7.07855,2.772,3.87998,373,5,
84.1658,4.58191,7.07855,2.772,3.87998,373,5,
84.1658,4.58282,7.07855,2.772,3.87998,373,5,
84.1659,4.57794,7.07703,2.772,3.87998,373,5,
84.1659,4.57764,7.07855,2.772,3.87998,373,5,
84.1659,4.57764,7.08008,2.772,3.87998,373,5,
84.166,4.57703,7.06635,2.772,3.87998,373,5,
84.166,4.57764,7.06177,2.772,3.87998,373,5,
84.166,4.57764,7.06787,2.772,3.87998,373,5,
84.1661,4.57764,7.06635,2.772,3.87998,373,5,
84.1661,4.58221,7.06787,2.772,3.87998,373,5,
84.1661,4.58252,7.06482,2.772,3.87998,373,5,
84.1662,4.58282,7.06635,2.772,3.87998,373,5,
84.1662,4.58313,7.06329,2.772,3.87998,373,5,
84.1662,4.58221,7.06787,2.772,3.87998,373,5,
84.1663,4.58221,7.06482,2.772,3.87998,373,5,
84.1663,4.58282,7.06787,2.772,3.87998,373,5,
84.1663,4.58282,7.06482,2.772,3.87998,373,5,
84.1664,4.58282,7.06482,2.772,3.87998,373,5,
84.1664,4.58313,7.08008,2.772,3.87998,373,5,
84.1664,4.58221,7.07703,2.772,3.87998,373,5,
84.1665,4.58252,7.08008,2.772,3.87998,373,5,
84.1665,4.58221,7.07703,2.772,3.87998,373,5,
84.1665,4.58252,7.07703,2.772,3.87998,373,5,
84.1666,4.5813,7.07855,2.772,3.87998,373,5,
84.1666,4.58252,7.07855,2.772,3.87998,373,5,
84.1666,4.58191,7.07703,2.772,3.87998,373,5,
84.1667,4.58221,7.0755,2.772,3.87998,373,5,
84.1667,4.58191,7.07855,2.772,3.87998,373,5,
84.1667,4.58221,7.07855,2.772,3.87998,373,5,
84.1668,4.58221,7.0755,2.772,3.87998,373,5,
84.1668,4.58191,7.07855,2.772,3.87998,373,5,
84.1668,4.58221,7.07855,2.772,3.87998,373,5,
84.1669,4.5816,7.07855,2.772,3.87998,373,5,
84.1669,4.58191,7.08008,2.772,3.87998,373,5,
84.1669,4.58221,7.07855,2.772,3.87998,373,5,
84.167,4.58191,7.0694,2.772,3.87998,373,5,
84.167,4.58191,7.06329,2.772,3.87998,373,5,
84.167,4.58252,7.06635,2.772,3.87998,373,5,
84.1671,4.58252,7.06635,2.772,3.87998,373,5,
84.1671,4.58221,7.06482,2.772,3.87998,373,5,
84.1671,4.58252,7.0694,2.772,3.87998,373,5,
84.1672,4.58252,7.0694,2.772,3.87998,373,5,
84.1672,4.5816,7.06329,2.772,3.87998,373,5,
84.1672,4.58221,7.06787,2.772,3.87998,373,5,
84.1673,4.58191,7.06482,2.772,3.87998,373,5,
84.1673,4.58221,7.06329,2.772,3.87998,373,5,
84.1673,4.58191,7.06177,2.772,3.87998,373,5,
84.1674,4.58191,7.06635,2.772,3.87998,373,5,
84.1674,4.58252,7.06787,2.772,3.87998,373,5,
84.1674,4.5813,7.06787,2.772,3.87998,373,5,
84.1675,4.5816,7.06482,2.772,3.87998,373,5,
84.1675,4.58221,7.06482,2.772,3.87998,373,5,
84.1675,4.58221,7.06024,2.772,3.87998,373,5,
84.1676,4.58191,7.06787,2.772,3.87998,373,5,
84.1676,4.58191,7.06482,2.772,3.87998,373,5,
84.1676,4.58191,7.06482,2.772,3.87998,373,5,
84.1677,4.58221,7.06482,2.772,3.87998,373,5,
84.1677,4.58221,7.06787,2.772,3.87998,373,5,
84.1677,4.58252,7.06635,2.772,3.87998,373,5,
84.1678,4.58313,7.06482,2.772,3.87998,373,5,
84.1678,4.58221,7.06329,2.772,3.87998,373,5,
84.1678,4.58191,7.06482,2.772,3.87998,373,5,
84.1679,4.58221,7.06787,2.772,3.87998,373,5,
84.1679,4.58221,7.06787,2.772,3.87998,373,5,
84.1679,4.58221,7.06482,2.772,3.87998,373,5,
84.168,4.5816,7.06329,2.772,3.87998,373,5,
84.168,4.58221,7.06787,2.772,3.87998,373,5,
84.168,4.58221,7.06787,2.772,3.87998,373,5,
84.1681,4.5816,7.06329,2.772,3.87998,373,5,
84.1681,4.58221,7.06635,2.772,3.87998,373,5,
84.1681,4.58221,7.06635,2.772,3.87998,373,5,
84.1682,4.58191,7.06787,2.772,3.87998,373,5,
84.1682,4.58221,7.06635,2.772,3.87998,373,5,
84.1682,4.5813,7.06787,2.772,3.87998,373,5,
84.1683,4.58221,7.06787,2.772,3.87998,373,5,
84.1683,4.58191,7.06635,2.772,3.87998,373,5,
84.1683,4.58252,7.06024,2.772,3.87998,373,5,
84.1684,4.58191,7.06177,2.772,3.87998,373,5,
84.1684,4.58252,7.06482,2.772,3.87998,373,5,
84.1684,4.58191,7.06787,2.772,3.87998,373,5,
84.1685,4.58252,7.06482,2.772,3.87998,373,5,
84.1685,4.58221,7.06787,2.772,3.87998,373,5,
84.1685,4.58221,7.06787,2.772,3.87998,373,5,
84.1686,4.58221,7.06482,2.772,3.87998,373,5,
84.1686,4.58191,7.06177,2.772,3.87998,373,5,
84.1686,4.58221,7.06635,2.772,3.87998,373,5,
84.1687,4.58191,7.06787,2.772,3.87998,373,5,
84.1687,4.58221,7.06482,2.772,3.87998,373,5,
84.1687,4.58191,7.06635,2.772,3.87998,373,5,
84.1688,4.58191,7.06329,2.772,3.87998,373,5,
84.1688,4.58191,7.06482,2.772,3.87998,373,5,
84.1688,4.58252,7.06635,2.772,3.87998,373,5,
84.1689,4.58221,7.0694,2.772,3.87998,373,5,
84.1689,4.58252,7.06787,2.772,3.87998,373,5,
84.1689,4.58252,7.06177,2.772,3.87998,373,5,
84.169,4.58252,7.06482,2.772,3.87998,373,5,
84.169,4.58191,7.06787,2.772,3.87998,373,5,
84.169,4.58191,7.06787,2.772,3.87998,373,5,
84.1691,4.58221,7.06482,2.772,3.87998,373,5,
84.1691,4.58282,7.06329,2.772,3.87998,373,5,
84.1691,4.58221,7.06635,2.772,3.87998,373,5,
84.1692,4.58252,7.06787,2.772,3.87998,373,5,
84.1692,4.58221,7.06482,2.772,3.87998,373,5,
84.1692,4.58252,7.06635,2.772,3.87998,373,5,
84.1693,4.58252,7.05566,2.772,3.87998,373,5,
84.1693,4.58221,7.05414,2.772,3.87998,373,5,
84.1693,4.58221,7.05261,2.772,3.87998,373,5,
84.1694,4.58221,7.05109,2.772,3.87998,373,5,
84.1694,4.57825,7.05109,2.772,3.87998,373,5,
84.1694,4.57764,7.05414,2.772,3.87998,373,5,
84.1695,4.57733,7.05261,2.772,3.87998,373,5,
84.1695,4.57764,7.05566,2.772,3.87998,373,5,
84.1695,4.57764,7.05414,2.772,3.87998,373,5,
84.1696,4.57764,7.05109,2.772,3.87998,373,5,
84.1696,4.57764,7.05261,2.772,3.87998,373,5,
84.1696,4.57703,7.05109,2.772,3.87998,373,5,
84.1697,4.57733,7.05719,2.772,3.87998,373,5,
84.1697,4.57703,7.05261,2.772,3.87998,373,5,
84.1697,4.57733,7.05414,2.772,3.87998,373,5,
84.1698,4.57764,7.05414,2.772,3.87998,373,5,
84.1698,4.57733,7.05261,2.772,3.87998,373,5,
84.1698,4.57825,7.05261,2.772,3.87998,373,5,
84.1699,4.57764,7.05261,2.772,3.87998,373,5,
84.1699,4.57794,7.05261,2.772,3.87998,373,5,
84.1699,4.57764,7.05414,2.772,3.87998,373,5,
84.17,4.57794,7.05414,2.772,3.87998,373,5,
84.17,4.57672,7.05109,2.772,3.87998,373,5,
84.17,4.57764,7.05414,2.772,3.87998,373,5,
84.1701,4.57764,7.05261,2.772,3.87998,373,5,
84.1701,4.57703,7.05261,2.772,3.87998,373,5,
84.1701,4.57764,7.05414,2.772,3.87998,373,5,
84.1702,4.57764,7.05261,2.772,3.87998,373,5,
84.1702,4.57764,7.05261,2.772,3.87998,373,5,
84.1702,4.57794,7.05414,2.772,3.87998,373,5,
84.1703,4.57764,7.05261,2.772,3.87998,373,5,
84.1703,4.57733,7.05719,2.772,3.87998,373,5,
84.1703,4.57733,7.05109,2.772,3.87998,373,5,
84.1704,4.57764,7.05261,2.772,3.87998,373,5,
84.1704,4.57733,7.05109,2.772,3.87998,373,5,
84.1704,4.57733,7.05261,2.772,3.87998,373,5,
84.1705,4.57733,7.05566,2.772,3.87998,373,5,
84.1705,4.57703,7.05414,2.772,3.87998,373,5,
84.1705,4.57733,7.05261,2.772,3.87998,373,5,
84.1706,4.57153,7.05109,2.772,3.87998,373,5,
84.1706,4.57245,7.05109,2.772,3.87998,373,5,
84.1706,4.57184,7.05109,2.772,3.87998,373,5,
84.1707,4.57214,7.05109,2.772,3.87998,373,5,
84.1707,4.57245,7.05261,2.772,3.87998,373,5,
84.1707,4.57184,7.05414,2.772,3.87998,373,5,
84.1708,4.57275,7.05261,0,3.87998,373,5,
84.1708,4.57245,7.04956,0,3.87998,373,5,
84.1708,4.57245,7.05414,0,3.87998,373,5,
84.1709,4.57214,7.05261,0,3.87998,373,5,
84.1709,4.57214,7.05261,0,3.87998,373,5,
84.1709,4.57214,7.05261,0,3.87998,373,5,
84.171,4.57245,7.05566,0,3.87998,373,5,
84.171,4.57245,7.05109,0,3.87998,373,5,
84.171,4.57214,7.05109,0,3.87998,373,5,
84.1711,4.57184,7.04804,0,3.87998,373,5,
84.1711,4.57214,7.05261,0,3.87998,373,5,
84.1711,4.57245,7.05414,0,3.87998,373,5,
84.1712,4.57184,7.05261,0,3.87998,373,5,
84.1712,4.57245,7.05414,0,3.87998,373,5,
84.1712,4.57245,7.04956,0,3.87998,373,5,
84.1713,4.57214,7.05414,0,3.87998,373,5,
84.1713,4.56696,7.06482,0,3.87998,373,5,
84.1713,4.56696,7.06635,0,3.87998,373,5,
84.1714,4.56696,7.06635,0,3.87998,373,5,
84.1714,4.56757,7.06329,0,3.87998,373,5,
84.1714,4.56787,7.06482,0,3.87998,373,5,
84.1715,4.56726,7.06635,0,3.87998,373,5,
84.1715,4.56757,7.06787,0,3.87998,373,5,
84.1715,4.56757,7.0694,0,3.87998,373,5,
84.1716,4.56696,7.06635,0,3.87998,373,5,
84.1716,4.56635,7.06635,0,3.87998,373,5,
84.1716,4.56726,7.06482,0,3.87998,373,5,
84.1717,4.56757,7.06635,0,3.87998,373,5,
84.1717,4.56787,7.06329,0,3.87998,373,5,
84.1717,4.56757,7.06635,2.306,3.87998,373,5,
84.1718,4.56787,7.06787,2.306,3.87998,373,5,
84.1718,4.56787,7.06787,2.306,3.87998,373,5,
84.1718,4.56696,7.06787,2.306,3.87998,373,5,
84.1719,4.56696,7.06329,2.306,3.87998,373,5,
84.1719,4.56696,7.06787,2.306,3.87998,373,5,
84.1719,4.56818,7.06635,2.306,3.87998,373,5,
84.172,4.5636,7.06482,2.306,3.87998,373,5,
84.172,4.56299,7.06482,2.306,3.87998,373,5,
84.172,4.56299,7.06635,2.306,3.87998,373,5,
84.1721,4.56268,7.06787,2.306,3.87998,373,5,
84.1721,4.56268,7.0694,2.306,3.87998,373,5,
84.1721,4.56329,7.06635,2.306,3.87998,373,5,
84.1722,4.56207,7.06482,2.306,3.87998,373,5,
84.1722,4.56268,7.06787,2.306,3.87998,373,5,
84.1722,4.56238,7.06635,2.306,3.87998,373,5,
84.1723,4.56268,7.06635,2.306,3.87998,373,5,
84.1723,4.56268,7.0694,2.306,3.87998,373,5,
84.1723,4.56268,7.06787,2.306,3.87998,373,5,
84.1724,4.56268,7.06482,2.306,3.87998,373,5,
84.1724,4.56268,7.06482,2.306,3.87998,373,5,
84.1724,4.56268,7.06787,2.306,3.87998,373,5,
84.1725,4.56268,7.06329,2.306,3.87998,373,5,
84.1725,4.56299,7.06329,2.306,3.87998,373,5,
84.1725,4.56329,7.06787,2.306,3.87998,373,5,
84.1726,4.56238,7.0694,2.306,3.87998,373,5,
84.1726,4.56238,7.06635,2.306,3.87998,373,5,
84.1726,4.56268,7.06329,2.306,3.87998,373,5,
84.1727,4.56268,7.06635,2.306,3.87998,373,5,
84.1727,4.56299,7.06482,2.306,3.87998,373,5,
84.1727,4.56268,7.06329,2.306,3.87998,373,5,
84.1728,4.56146,7.06329,2.306,3.87998,373,5,
84.1728,4.55811,7.06482,2.306,3.87998,373,5,
84.1728,4.5578,7.06329,2.306,3.87998,373,5,
84.1729,4.5575,7.06635,2.306,3.87998,373,5,
84.1729,4.55811,7.06635,2.306,3.87998,373,5,
84.1729,4.55719,7.06482,2.306,3.87998,373,5,
84.173,4.5575,7.07092,2.306,3.87998,373,5,
84.173,4.5578,7.06482,2.306,3.87998,374,5,
84.173,4.5575,7.06787,2.306,3.87998,374,5,
84.1731,4.5578,7.06635,2.306,3.87998,374,5,
84.1731,4.5575,7.06635,2.306,3.87998,374,5,
84.1731,4.5578,7.06482,2.306,3.87998,374,5,
84.1732,4.55688,7.0694,2.306,3.87998,374,5,
84.1732,4.5575,7.06787,2.306,3.87998,374,5,
84.1732,4.5578,7.06787,2.306,3.87998,374,5,
84.1733,4.55719,7.06329,2.306,3.87998,374,5,
84.1733,4.5575,7.06329,2.306,3.87998,374,5,
84.1733,4.55719,7.06329,2.306,3.87998,374,5,
84.1734,4.5578,7.06329,2.306,3.87998,374,5,
84.1734,4.5578,7.06635,2.306,3.87998,374,5,
84.1734,4.55719,7.06787,2.306,3.87998,374,5,
84.1735,4.55719,7.06635,2.306,3.87998,374,5,
84.1735,4.55841,7.06787,2.306,3.87998,374,5,
84.1735,4.5578,7.06482,2.306,3.87998,374,5,
84.1736,4.5578,7.06482,2.306,3.87998,374,5,
84.1736,4.5575,7.06787,2.306,3.87998,374,5,
84.1736,4.5575,7.06787,2.306,3.87998,374,5,
84.1737,4.55872,7.0694,2.306,3.87998,374,5,
84.1737,4.5578,7.06787,2.306,3.87998,374,5,
84.1737,4.55811,7.07092,2.306,3.87998,374,5,
84.1738,4.5575,7.06482,2.306,3.87998,374,5,
84.1738,4.5578,7.06482,2.306,3.87998,374,5,
84.1738,4.55841,7.06787,2.306,3.87998,374,5,
84.1739,4.5575,7.05719,2.306,3.87998,374,5,
84.1739,4.5578,7.05566,2.306,3.87998,374,5,
84.1739,4.5575,7.05261,2.306,3.87998,374,5,
84.174,4.55688,7.05414,2.306,3.87998,374,5,
84.174,4.5575,7.05261,2.306,3.87998,374,5,
84.174,4.5578,7.05719,2.306,3.87998,374,5,
84.1741,4.55353,7.05261,2.306,3.87998,374,5,
84.1741,4.55231,7.05414,2.306,3.87998,374,5,
84.1741,4.55322,7.05261,2.306,3.87998,374,5,
84.1742,4.55322,7.05414,2.306,3.87998,374,5,
84.1742,4.55322,7.05566,2.306,3.87998,374,5,
84.1742,4.55231,7.05261,2.306,3.87998,374,5,
84.1743,4.55292,7.05109,2.306,3.87998,374,5,
84.1743,4.55322,7.05261,2.306,3.87998,374,5,
84.1743,4.55322,7.05414,2.306,3.87998,374,5,
84.1744,4.55261,7.05261,2.306,3.87998,374,5,
84.1744,4.55322,7.05566,2.306,3.87998,374,5,
84.1744,4.55292,7.05414,2.306,3.87998,374,5,
84.1745,4.55261,7.05109,2.306,3.87998,374,5,
84.1745,4.55292,7.05261,2.306,3.87998,374,5,
84.1745,4.55322,7.05261,2.306,3.87998,374,5,
84.1746,4.55261,7.05109,2.306,3.87998,374,5,
84.1746,4.55292,7.05261,2.306,3.87998,374,5,
84.1746,4.55231,7.04346,2.306,3.87998,374,5,
84.1747,4.55292,7.04193,2.306,3.87998,374,5,
84.1747,4.55292,7.04346,2.306,3.87998,374,5,
84.1747,4.55322,7.04346,2.306,3.87998,374,5,
84.1748,4.55261,7.04346,2.306,3.87998,374,5,
84.1748,4.55261,7.04041,2.306,3.87998,374,5,
84.1748,4.55261,7.04041,2.306,3.87998,374,5,
84.1749,4.55353,7.04346,2.306,3.87998,374,5,
84.1749,4.55292,7.04651,2.306,3.87998,374,5,
84.1749,4.55292,7.04041,2.306,3.87998,374,5,
84.175,4.55322,7.04346,2.306,3.87998,374,5,
84.175,4.55292,7.04041,2.306,3.87998,374,5,
84.175,4.55292,7.04041,2.306,3.87998,374,5,
84.1751,4.55292,7.04041,2.306,3.87998,374,5,
84.1751,4.55261,7.04193,2.306,3.87998,374,5,
84.1751,4.55292,7.03735,2.306,3.87998,374,5,
84.1752,4.55292,7.04041,2.306,3.87998,374,5,
84.1752,4.55261,7.04041,2.306,3.87998,374,5,
84.1752,4.55292,7.04041,2.306,3.87998,374,5,
84.1753,4.55322,7.04193,2.306,3.87998,374,5,
84.1753,4.55322,7.04346,2.306,3.87998,374,5,
84.1753,4.55261,7.04193,2.306,3.87998,374,5,
84.1754,4.55292,7.04193,2.306,3.87998,374,5,
84.1754,4.55231,7.04193,2.306,3.87998,374,5,
84.1754,4.55231,7.04498,2.306,3.87998,374,5,
84.1755,4.55261,7.04193,2.306,3.87998,374,5,
84.1755,4.55322,7.04193,2.306,3.87998,374,5,
84.1755,4.55292,7.03888,2.306,3.87998,374,5,
84.1756,4.55261,7.04193,2.306,3.87998,374,5,
84.1756,4.55322,7.04651,2.306,3.87998,374,5,
84.1756,4.55322,7.04041,2.306,3.87998,374,5,
84.1757,4.55261,7.04193,2.306,3.87998,374,5,
84.1757,4.55292,7.04193,2.306,3.87998,374,5,
84.1757,4.55292,7.04193,2.306,3.87998,374,5,
84.1758,4.55322,7.04193,2.306,3.87998,374,5,
84.1758,4.55322,7.04193,2.306,3.87998,374,5,
84.1758,4.55231,7.04041,2.306,3.87998,374,5,
84.1759,4.55261,7.04346,2.306,3.87998,374,5,
84.1759,4.55261,7.03888,2.306,3.87998,374,5,
84.1759,4.55292,7.04193,2.306,3.87998,374,5,
84.176,4.55292,7.04193,2.306,3.87998,374,5,
84.176,4.55261,7.03735,2.306,3.87998,374,5,
84.176,4.55292,7.04346,2.306,3.87998,374,5,
84.1761,4.55353,7.04346,2.306,3.87998,374,5,
84.1761,4.55261,7.04041,2.306,3.87998,374,5,
84.1761,4.55292,7.04041,2.306,3.87998,374,5,
84.1762,4.55261,7.03888,2.306,3.87998,374,5,
84.1762,4.55292,7.04193,2.306,3.87998,374,5,
84.1762,4.55322,7.04193,2.306,3.87998,374,5,
84.1763,4.55231,7.04193,2.306,3.87998,374,5,
84.1763,4.55261,7.04041,2.306,3.87998,374,5,
84.1763,4.55719,7.04193,2.306,3.87998,374,5,
84.1764,4.5578,7.04346,2.306,3.87998,374,5,
84.1764,4.5578,7.04041,2.306,3.87998,374,5,
84.1764,4.5578,7.02973,2.306,3.87998,374,5,
84.1765,4.5578,7.02667,2.306,3.87998,374,5,
84.1765,4.5578,7.02667,2.306,3.87998,374,5,
84.1765,4.55719,7.0282,2.306,3.87998,374,5,
84.1766,4.55811,7.02667,2.306,3.87998,374,5,
84.1766,4.55811,7.03125,2.306,3.87998,374,5,
84.1766,4.5575,7.0282,2.306,3.87998,374,5,
84.1767,4.5578,7.0282,2.306,3.87998,374,5,
84.1767,4.55719,7.03125,2.306,3.87998,374,5,
84.1767,4.55688,7.0282,2.306,3.87998,374,5,
84.1768,4.55719,7.02973,2.306,3.87998,374,5,
84.1768,4.5578,7.02973,2.306,3.87998,374,5,
84.1768,4.5578,7.02973,2.306,3.87998,374,5,
84.1769,4.5575,7.02667,2.306,3.87998,374,5,
84.1769,4.55719,7.02515,2.306,3.87998,374,5,
84.1769,4.55719,7.03125,2.306,3.87998,374,5,
84.177,4.55719,7.0282,2.306,3.87998,374,5,
84.177,4.55811,7.0282,2.306,3.87998,374,5,
84.177,4.5578,7.02667,2.306,3.87998,374,5,
84.1771,4.55811,7.02667,2.306,3.87998,374,5,
84.1771,4.5578,7.02973,2.306,3.87998,374,5,
84.1771,4.5575,7.02667,2.306,3.87998,374,5,
84.1772,4.55719,7.0282,2.306,3.87998,374,5,
84.1772,4.55719,7.0282,2.306,3.87998,374,5,
84.1772,4.5578,7.0282,2.306,3.87998,374,5,
84.1773,4.5578,7.03125,2.306,3.87998,374,5,
84.1773,4.5575,7.02973,2.306,3.87998,374,5,
84.1773,4.55841,7.02973,2.306,3.87998,374,5,
84.1774,4.5578,7.02973,2.306,3.87998,374,5,
84.1774,4.55841,7.02973,2.306,3.87998,374,5,
84.1774,4.55719,7.0282,2.306,3.87998,374,5,
84.1775,4.5578,7.02973,2.306,3.87998,374,5,
84.1775,4.5575,7.03125,2.306,3.87998,374,5,
84.1775,4.55811,7.02973,2.306,3.87998,374,5,
84.1776,4.55811,7.03278,2.306,3.87998,374,5,
84.1776,4.56299,7.0282,2.306,3.87998,374,5,
84.1776,4.56299,7.0282,2.306,3.87998,374,5,
84.1777,4.56268,7.02973,2.306,3.87998,374,5,
84.1777,4.56299,7.02667,2.306,3.87998,374,5,
84.1777,4.56238,7.0282,2.306,3.87998,374,5,
84.1778,4.5636,7.02515,2.306,3.87998,374,5,
84.1778,4.56329,7.0282,2.306,3.87998,374,5,
84.1778,4.56299,7.03125,2.306,3.87998,374,5,
84.1779,4.56299,7.02667,2.306,3.87998,374,5,
84.1779,4.56268,7.0282,2.306,3.87998,374,5,
84.1779,4.56268,7.0282,2.306,3.87998,374,5,
84.178,4.56238,7.02973,2.306,3.87998,374,5,
84.178,4.56329,7.02515,2.306,3.87998,374,5,
84.178,4.56177,7.0282,2.306,3.87998,374,5,
84.1781,4.56268,7.03125,2.306,3.87998,374,5,
84.1781,4.56299,7.02973,2.306,3.87998,374,5,
84.1781,4.56268,7.03125,2.306,3.87998,374,5,
84.1782,4.56238,7.02973,2.306,3.87998,374,5,
84.1782,4.56268,7.03125,2.306,3.87998,374,5,
84.1782,4.56299,7.02667,2.306,3.87998,374,5,
84.1783,4.56299,7.02973,2.306,3.87998,374,5,
84.1783,4.56757,7.0282,2.306,3.87998,374,5,
84.1783,4.56757,7.0282,2.306,3.87998,374,5,
84.1784,4.56696,7.01752,2.306,3.87998,374,5,
84.1784,4.56757,7.01752,2.306,3.87998,374,5,
84.1784,4.56818,7.01752,2.306,3.87998,374,5,
84.1785,4.56726,7.01599,2.306,3.87998,374,5,
84.1785,4.56787,7.01447,2.306,3.87998,374,5,
84.1785,4.56726,7.01599,2.306,3.87998,374,5,
84.1786,4.56726,7.01447,2.306,3.87998,374,5,
84.1786,4.56726,7.01294,2.306,3.87998,374,5,
84.1786,4.56787,7.01599,2.306,3.87998,374,5,
84.1787,4.56726,7.01447,2.306,3.87998,374,5,
84.1787,4.56787,7.01904,2.306,3.87998,374,5,
84.1787,4.56726,7.01752,2.306,3.87998,374,5,
84.1788,4.56757,7.01599,2.306,3.87998,374,5,
84.1788,4.56696,7.01904,2.306,3.87998,374,5,
84.1788,4.56757,7.01599,2.306,3.87998,374,5,
84.1789,4.57214,7.01599,2.306,3.87998,374,5,
84.1789,4.57245,7.01599,2.306,3.87998,374,5,
84.1789,4.57336,7.01752,2.306,3.87998,374,5,
84.179,4.57245,7.01447,2.306,3.87998,374,5,
84.179,4.57245,7.01599,2.306,3.87998,374,5,
84.179,4.57214,7.01447,2.306,3.87998,374,5,
84.1791,4.57214,7.01599,2.306,3.87998,374,5,
84.1791,4.57184,7.01752,2.306,3.87998,374,5,
84.1791,4.57245,7.01599,2.306,3.87998,374,5,
84.1792,4.57245,7.01599,2.306,3.87998,374,5,
84.1792,4.57245,7.01599,2.306,3.87998,374,5,
84.1792,4.57184,7.01447,2.306,3.87998,374,5,
84.1793,4.57214,7.01599,2.306,3.87998,374,5,
84.1793,4.57245,7.01752,2.306,3.87998,374,5,
84.1793,4.57214,7.01752,2.306,3.87998,374,5,
84.1794,4.57733,7.01599,2.306,3.87998,374,5,
84.1794,4.57672,7.01447,2.306,3.87998,374,5,
84.1794,4.57733,7.01294,2.306,3.87998,374,5,
84.1795,4.57672,7.01599,2.306,3.87998,374,5,
84.1795,4.57703,7.01599,2.306,3.87998,374,5,
84.1795,4.57733,7.01599,2.306,3.87998,374,5,
84.1796,4.57703,7.01294,2.306,3.87998,374,5,
84.1796,4.57764,7.01752,2.306,3.87998,374,5,
84.1796,4.57794,7.01294,2.306,3.87998,374,5,
84.1797,4.57794,7.01599,2.306,3.87998,374,5,
84.1797,4.57672,7.01599,2.306,3.87998,374,5,
84.1797,4.57764,7.02057,2.306,3.87998,374,5,
84.1798,4.57703,7.01599,2.306,3.87998,374,5,
84.1798,4.57764,7.01752,2.306,3.87998,374,5,
84.1798,4.58313,7.01752,2.306,3.87998,374,5,
84.1799,4.58252,7.01752,2.306,3.87998,374,5,
84.1799,4.58344,7.01904,2.306,3.87998,374,5,
84.1799,4.58313,7.01294,2.306,3.87998,374,5,
84.18,4.58252,7.02057,2.306,3.87998,374,5,
84.18,4.58313,7.01599,2.306,3.87998,374,5,
84.18,4.58313,7.01599,2.306,3.87998,374,5,
84.1801,4.58282,7.01599,2.306,3.87998,374,5,
84.1801,4.58313,7.00531,2.306,3.87998,374,5,
84.1801,4.58221,7.00531,2.306,3.87998,374,5,
84.1802,4.58221,7.00531,2.306,3.87998,374,0,
84.1802,4.58221,7.00226,2.306,3.87998,374,0,
84.1802,4.58221,7.00379,2.306,3.87998,374,0,
84.1803,4.58679,7.00531,2.306,3.87998,374,0,
84.1803,4.5871,7.00226,2.306,3.87998,374,0,
84.1803,4.5871,6.99921,2.306,3.87998,374,0,
84.1804,4.5874,7.00531,2.306,3.87998,374,0,
84.1804,4.58649,7.00379,2.306,3.87998,374,0,
84.1804,4.5874,7.00531,2.306,3.87998,374,0,
84.1805,4.58618,7.00073,2.306,3.87998,374,0,
84.1805,4.5871,7.00226,2.306,3.87998,374,0,
84.1805,4.5871,7.00379,2.306,3.87998,374,0,
84.1806,4.58649,7.00379,2.306,3.87998,374,0,
84.1806,4.5871,7.00379,2.306,3.87998,374,0,
84.1806,4.5874,7.00531,2.306,3.87998,374,0,
84.1807,4.5871,7.00531,2.306,3.87998,374,0,
84.1807,4.59106,7.00684,2.306,3.87998,374,0,
84.1807,4.59137,7.00531,2.306,3.87998,374,0,
84.1808,4.59106,7.00379,2.306,3.87998,374,0,
84.1808,4.59229,7.00836,2.306,3.87998,374,0,
84.1808,4.59198,7.00379,2.306,3.87998,374,0,
84.1809,4.59229,7.00226,2.306,3.87998,374,0,
84.1809,4.59167,7.00684,2.306,3.87998,374,0,
84.1809,4.59229,7.00379,2.306,3.87998,374,0,
84.181,4.59167,7.00226,2.306,3.87998,374,0,
84.181,4.59229,7.00379,2.306,3.87998,374,0,
84.181,4.59229,7.00531,2.306,3.87998,374,0,
84.1811,4.59198,7.00531,2.306,3.87998,374,0,
84.1811,4.59198,6.99616,2.306,3.87998,374,0,
84.1811,4.59351,6.99616,2.306,3.87998,374,0,
84.1812,4.59595,6.99463,2.306,3.87998,374,0,
84.1812,4.59717,6.99158,2.306,3.87998,374,0,
84.1812,4.59717,6.99005,2.306,3.87998,374,0,
84.1813,4.59717,6.9931,2.306,3.87998,374,0,
84.1813,4.59656,6.99158,2.306,3.87998,374,0,
84.1813,4.59717,6.99463,2.306,3.87998,374,0,
84.1814,4.59656,6.99158,2.306,3.87998,374,0,
84.1814,4.59717,6.9931,2.306,3.87998,374,0,
84.1814,4.59656,6.9931,2.306,3.87998,374,0,
84.1815,4.59717,6.99005,2.306,3.87998,374,0,
84.1815,4.59625,6.99005,2.306,3.87998,374,0,
84.1815,4.59778,6.9931,2.306,3.87998,374,0,
84.1816,4.59747,6.99463,2.306,3.87998,374,0,
84.1816,4.60144,6.99005,2.306,3.87998,374,0,
84.1816,4.60144,6.99463,2.306,3.87998,374,0,
84.1817,4.60205,6.99768,2.306,3.87998,374,0,
84.1817,4.60144,6.99005,2.306,3.87998,374,0,
84.1817,4.60175,6.9931,2.306,3.87998,374,0,
84.1818,4.60175,6.9931,2.306,3.87998,374,0,
84.1818,4.60175,6.9931,2.306,3.87998,374,0,
84.1818,4.60236,6.99005,2.306,3.87998,374,0,
84.1819,4.60175,6.98853,2.306,3.87998,374,0,
84.1819,4.60175,6.99158,2.306,3.87998,374,0,
84.1819,4.60236,6.98853,2.306,3.87998,374,0,
84.182,4.60205,6.98853,2.306,3.87998,374,0,
84.182,4.60205,6.99005,2.306,3.87998,374,0,
84.182,4.60205,6.9931,2.306,3.87998,374,0,
84.1821,4.60205,6.987,2.306,3.87998,374,0,
84.1821,4.60602,6.9931,2.306,3.87998,374,0,
84.1821,4.60693,6.97937,2.306,3.87998,374,0,
84.1822,4.60632,6.97937,2.306,3.87998,374,0,
84.1822,4.60693,6.97937,2.306,3.87998,374,0,
84.1822,4.60602,6.9809,2.306,3.87998,374,0,
84.1823,4.60663,6.97785,2.306,3.87998,374,0,
84.1823,4.60663,6.97632,2.306,3.87998,374,0,
84.1823,4.60663,6.97937,2.306,3.87998,374,0,
84.1824,4.60663,6.98242,2.306,3.87998,374,0,
84.1824,4.60602,6.9809,2.306,3.87998,374,0,
84.1824,4.60754,6.97937,2.306,3.87998,374,0,
84.1825,4.60693,6.9809,2.306,3.87998,374,0,
84.1825,4.60724,6.9809,2.306,3.87998,374,0,
84.1825,4.60693,6.97937,2.306,3.87998,374,0,
84.1826,4.60724,6.98242,2.306,3.87998,374,0,
84.1826,4.60724,6.9809,2.306,3.87998,374,0,
84.1826,4.60693,6.97937,2.306,3.87998,374,0,
84.1827,4.60724,6.97937,2.306,3.87998,374,0,
84.1827,4.61121,6.97937,2.306,3.87998,374,0,
84.1827,4.6109,6.97937,2.306,3.87998,374,0,
84.1828,4.61121,6.97937,2.306,3.87998,374,0,
84.1828,4.61182,6.97937,2.306,3.87998,374,0,
84.1828,4.61182,6.97937,2.306,3.87998,374,0,
84.1829,4.61182,6.98242,2.306,3.87998,374,0,
84.1829,4.61151,6.98242,2.306,3.87998,374,0,
84.1829,4.61182,6.98395,2.306,3.87998,374,0,
84.183,4.61212,6.97937,2.306,3.87998,374,0,
84.183,4.61212,6.9809,2.306,3.87998,374,0,
84.183,4.61273,6.9809,2.306,3.87998,374,0,
84.1831,4.6109,6.97785,2.306,3.87998,374,0,
84.1831,4.61182,6.97937,2.306,3.87998,374,0,
84.1831,4.61182,6.98395,2.306,3.87998,374,0,
84.1832,4.61273,6.9809,2.306,3.87998,374,0,
84.1832,4.61212,6.9809,2.306,3.87998,374,0,
84.1832,4.61151,6.9809,2.306,3.87998,374,0,
84.1833,4.61151,6.9809,2.306,3.87998,374,0,
84.1833,4.61151,6.99158,2.306,3.87998,374,0,
84.1833,4.61212,6.9931,2.306,3.87998,374,0,
84.1834,4.61182,6.99158,2.306,3.87998,374,0,
84.1834,4.6167,6.9931,2.306,3.87998,374,0,
84.1834,4.6167,6.99005,2.306,3.87998,374,0,
84.1835,4.6167,6.9931,2.306,3.87998,374,0,
84.1835,4.61639,6.9931,2.306,3.87998,374,0,
84.1835,4.6167,6.99158,2.306,3.87998,374,0,
84.1836,4.61609,6.9931,2.306,3.87998,374,0,
84.1836,4.6167,6.987,2.306,3.87998,374,0,
84.1836,4.6167,6.99005,2.306,3.87998,374,0,
84.1837,4.6167,6.99463,2.306,3.87998,374,0,
84.1837,4.61639,6.99158,2.306,3.87998,374,0,
84.1837,4.61639,6.99158,2.306,3.87998,374,0,
84.1838,4.61639,6.99158,2.306,3.87998,374,0,
84.1838,4.6167,6.99158,2.306,3.87998,374,0,
84.1838,4.6167,6.9931,2.306,3.87998,374,0,
84.1839,4.61639,6.99005,2.306,3.87998,374,0,
84.1839,4.61609,6.99158,2.306,3.87998,374,0,
84.1839,4.617,6.99005,2.306,3.87998,374,0,
84.184,4.61639,6.9931,2.306,3.87998,374,0,
84.184,4.6167,6.9931,2.306,3.87998,374,0,
84.184,4.6167,6.99463,2.306,3.87998,374,0,
84.1841,4.61731,6.99463,2.306,3.87998,374,0,
84.1841,4.61731,6.99463,2.306,3.87998,374,0,
84.1841,4.61639,6.9931,2.306,3.87998,374,0,
84.1842,4.6167,6.99158,2.306,3.87998,374,0,
84.1842,4.6167,6.9931,2.306,3.87998,374,0,
84.1842,4.6167,6.9931,2.306,3.87998,374,0,
84.1843,4.617,6.99158,2.306,3.87998,374,0,
84.1843,4.61639,6.99005,2.306,3.87998,374,0,
84.1843,4.617,6.99463,2.306,3.87998,374,0,
84.1844,4.61639,6.99463,2.306,3.87998,374,0,
84.1844,4.61639,6.99005,2.306,3.87998,374,0,
84.1844,4.61731,6.9931,2.306,3.87998,374,0,
84.1845,4.6167,6.9931,2.306,3.87998,374,0,
84.1845,4.62219,6.99158,2.306,3.87998,374,0,
84.1845,4.62158,6.9931,2.306,3.87998,374,0,
84.1846,4.62158,6.99158,2.306,3.87998,374,0,
84.1846,4.62189,6.99463,2.306,3.87998,374,0,
84.1846,4.62158,6.98853,2.306,3.87998,374,0,
84.1847,4.62128,6.99005,2.306,3.87998,374,0,
84.1847,4.62128,6.99463,2.306,3.87998,374,0,
84.1847,4.62128,6.99463,2.306,3.87998,374,0,
84.1848,4.62158,6.9931,2.306,3.87998,374,0,
84.1848,4.62097,6.98853,2.306,3.87998,374,0,
84.1848,4.62189,6.99616,2.306,3.87998,374,0,
84.1849,4.62128,6.9931,2.306,3.87998,374,0,
84.1849,4.62097,6.99005,2.306,3.87998,374,0,
84.1849,4.62097,6.99158,2.306,3.87998,374,0,
84.185,4.62128,6.9931,2.306,3.87998,374,0,
84.185,4.62128,6.9931,2.306,3.87998,374,0,
84.185,4.62128,6.99158,2.306,3.87998,374,0,
84.1851,4.62189,6.9931,2.306,3.87998,374,0,
84.1851,4.62128,6.99616,2.306,3.87998,374,0,
84.1851,4.62067,6.99158,2.306,3.87998,374,0,
84.1852,4.62128,6.9931,2.306,3.87998,374,0,
84.1852,4.62097,6.9931,2.306,3.87998,374,0,
84.1852,4.62097,6.99005,2.306,3.87998,374,0,
84.1853,4.62067,6.99158,2.306,3.87998,374,0,
84.1853,4.62067,6.99158,2.306,3.87998,374,0,
84.1853,4.62097,6.9931,2.306,3.87998,374,0,
84.1854,4.62128,6.9931,2.306,3.87998,374,0,
84.1854,4.62158,6.9931,2.306,3.87998,374,0,
84.1854,4.62158,6.99005,2.306,3.87998,374,0,
84.1855,4.62128,6.99463,2.306,3.87998,374,0,
84.1855,4.62097,6.9931,2.306,3.87998,374,0,
84.1855,4.62097,6.9931,2.306,3.87998,374,0,
84.1856,4.62128,6.9931,2.306,3.87998,374,0,
84.1856,4.62097,6.9931,2.306,3.87998,374,0,
84.1856,4.62189,6.99158,2.306,3.87998,374,0,
84.1857,4.62158,6.99463,2.306,3.87998,374,0,
84.1857,4.62128,6.99005,2.306,3.87998,374,0,
84.1857,4.62067,6.9931,2.306,3.87998,374,0,
84.1858,4.62128,6.99158,2.306,3.87998,374,0,
84.1858,4.62189,6.99158,2.306,3.87998,374,0,
84.1858,4.62158,6.99158,2.306,3.87998,374,0,
84.1859,4.62158,6.99616,2.306,3.87998,374,0,
84.1859,4.62128,6.99158,2.306,3.87998,374,0,
84.1859,4.62128,6.99616,2.306,3.87998,374,0,
84.186,4.62128,7.00226,2.306,3.87998,374,0,
84.186,4.62158,7.00684,2.306,3.87998,374,0,
84.186,4.62158,7.00531,2.306,3.87998,374,0,
84.1861,4.62158,7.00531,2.306,3.87998,374,0,
84.1861,4.62158,7.00684,2.306,3.87998,374,0,
84.1861,4.62616,7.00379,2.306,3.87998,374,0,
84.1862,4.62677,7.00531,2.306,3.87998,374,0,
84.1862,4.62616,7.00531,2.306,3.87998,374,0,
84.1862,4.62585,7.00531,2.306,3.87998,374,0,
84.1863,4.62616,7.00379,2.306,3.87998,374,0,
84.1863,4.62616,7.00531,2.306,3.87998,374,0,
84.1863,4.62616,7.00531,2.306,3.87998,374,0,
84.1864,4.62616,7.00531,2.306,3.87998,374,0,
84.1864,4.62646,7.00073,2.306,3.87998,374,0,
84.1864,4.62585,7.00379,2.306,3.87998,374,0,
84.1865,4.62646,7.00531,2.306,3.87998,374,0,
84.1865,4.62616,7.00989,2.306,3.87998,374,0,
84.1865,4.62616,7.00531,2.306,3.87998,374,0,
84.1866,4.62646,7.00836,2.306,3.87998,374,0,
84.1866,4.62646,7.00531,2.306,3.87998,374,0,
84.1866,4.62646,7.00226,2.306,3.87998,374,0,
84.1867,4.62646,7.00684,2.306,3.87998,374,0,
84.1867,4.62616,7.00379,2.306,3.87998,374,0,
84.1867,4.62646,7.00684,2.306,3.87998,374,0,
84.1868,4.62708,7.00989,2.306,3.87998,374,0,
84.1868,4.62616,7.00379,2.306,3.87998,374,0,
84.1868,4.62646,7.00379,2.306,3.87998,374,0,
84.1869,4.62616,7.00379,2.306,3.87998,374,0,
84.1869,4.62616,7.00531,2.306,3.87998,374,0,
84.1869,4.62708,7.00379,2.306,3.87998,374,0,
84.187,4.62585,7.00684,2.306,3.87998,374,0,
84.187,4.62616,7.00379,2.306,3.87998,374,0,
84.187,4.62677,7.00226,2.306,3.87998,374,0,
84.1871,4.62616,7.00379,2.306,3.87998,374,0,
84.1871,4.62708,7.00226,2.306,3.87998,374,0,
84.1871,4.63135,7.00226,2.306,3.87998,374,0,
84.1872,4.63165,7.00531,2.306,3.87998,374,0,
84.1872,4.63074,7.00226,2.306,3.87998,374,0,
84.1872,4.63104,7.00531,2.306,3.87998,374,0,
84.1873,4.63074,7.00226,2.306,3.87998,374,0,
84.1873,4.63074,7.00989,2.306,3.87998,374,0,
84.1873,4.63135,7.01904,2.306,3.87998,374,0,
84.1874,4.63135,7.01904,2.306,3.87998,374,0,
84.1874,4.63135,7.01904,2.306,3.87998,374,0,
84.1874,4.63165,7.01294,2.306,3.87998,374,0,
84.1875,4.63135,7.01904,2.306,3.87998,374,0,
84.1875,4.63135,7.01904,2.306,3.87998,374,0,
84.1875,4.63104,7.01599,2.306,3.87998,374,0,
84.1876,4.63104,7.01447,2.306,3.87998,374,0,
84.1876,4.63104,7.01447,2.306,3.87998,374,0,
84.1876,4.63104,7.01599,2.306,3.87998,374,0,
84.1877,4.63531,7.02057,2.306,3.87998,374,0,
84.1877,4.63623,7.01752,2.306,3.87998,374,0,
84.1877,4.63562,7.01599,2.306,3.87998,374,0,
84.1878,4.63654,7.01752,2.306,3.87998,374,0,
84.1878,4.63623,7.01599,2.306,3.87998,374,0,
84.1878,4.63593,7.01752,2.306,3.87998,374,0,
84.1879,4.63623,7.01294,2.306,3.87998,374,0,
84.1879,4.63623,7.01904,2.306,3.87998,374,0,
84.1879,4.63623,7.01447,2.306,3.87998,374,0,
84.188,4.63684,7.01599,2.306,3.87998,374,0,
84.188,4.63593,7.01752,2.306,3.87998,374,0,
84.188,4.63593,7.01904,2.306,3.87998,374,0,
84.1881,4.63745,7.01599,2.306,3.87998,374,0,
84.1881,4.64111,7.01599,2.306,3.87998,374,0,
84.1881,4.64081,7.01599,2.306,3.87998,374,0,
84.1882,4.64081,7.01904,2.306,3.87998,374,0,
84.1882,4.64081,7.01752,2.306,3.87998,374,0,
84.1882,4.64081,7.01599,2.306,3.87998,374,0,
84.1883,4.64081,7.01599,2.306,3.87998,374,0,
84.1883,4.64142,7.03125,2.306,3.87998,374,0,
84.1883,4.64081,7.02973,2.306,3.87998,374,0,
84.1884,4.64142,7.02667,2.306,3.87998,374,0,
84.1884,4.64081,7.02973,2.306,3.87998,374,0,
84.1884,4.64569,7.02667,2.306,3.87998,374,0,
84.1885,4.64661,7.03125,2.306,3.87998,374,0,
84.1885,4.6463,7.02667,2.306,3.87998,374,0,
84.1885,4.64569,7.02973,2.306,3.87998,374,0,
84.1886,4.64569,7.03125,2.306,3.87998,374,0,
84.1886,4.6463,7.02973,2.306,3.87998,374,0,
84.1886,4.646,7.02973,2.306,3.87998,374,0,
84.1887,4.646,7.03125,2.306,3.87998,374,0,
84.1887,4.64966,7.02973,2.306,3.87998,374,0,
84.1887,4.65118,7.02973,2.306,3.87998,374,0,
84.1888,4.65088,7.0282,2.306,3.87998,374,0,
84.1888,4.65057,7.0282,2.306,3.87998,374,0,
84.1888,4.65088,7.03278,2.306,3.87998,374,0,
84.1889,4.65057,7.02973,2.306,3.87998,374,0,
84.1889,4.65088,7.0282,2.306,3.87998,374,0,
84.1889,4.65118,7.02973,2.306,3.87998,374,0,
84.189,4.65515,7.02667,2.306,3.87998,374,0,
84.189,4.65637,7.0282,2.306,3.87998,374,0,
84.189,4.65546,7.02667,2.306,3.87998,374,0,
84.1891,4.65546,7.02973,2.306,3.87998,374,0,
84.1891,4.65576,7.0282,2.306,3.87998,374,0,
84.1891,4.65576,7.03125,2.306,3.87998,374,0,
84.1892,4.65546,7.02667,2.306,3.87998,374,0,
84.1892,4.66064,7.02973,2.306,3.87998,374,0,
84.1892,4.66125,7.0282,2.306,3.87998,374,0,
84.1893,4.66095,7.02973,2.306,3.87998,374,0,
84.1893,4.66064,7.02667,2.306,3.87998,374,0,
84.1893,4.66064,7.02973,2.306,3.87998,374,0,
84.1894,4.66003,7.02515,2.306,3.87998,374,0,
84.1894,4.664,7.02973,2.306,3.87998,374,0,
84.1894,4.66583,7.02667,2.306,3.87998,374,0,
84.1895,4.66583,7.02973,2.306,3.87998,374,0,
84.1895,4.66553,7.02973,2.306,3.87998,374,0,
84.1895,4.66583,7.0343,2.306,3.87998,374,0,
84.1896,4.66522,7.02973,2.306,3.87998,374,0,
84.1896,4.67102,7.02667,2.306,3.87998,374,0,
84.1896,4.6698,7.0282,2.306,3.87998,374,0,
84.1897,4.67072,7.02973,2.306,3.87998,374,0,
84.1897,4.67041,7.02973,2.306,3.87998,374,0,
84.1897,4.67041,7.02515,2.306,3.87998,374,0,
84.1898,4.67163,7.0282,2.306,3.87998,374,0,
84.1898,4.67499,7.0282,2.306,3.87998,374,0,
84.1898,4.67499,7.02973,2.306,3.87998,374,0,
84.1899,4.67529,7.02667,2.306,3.87998,374,0,
84.1899,4.67499,7.02667,2.306,3.87998,374,0,
84.1899,4.6756,7.0282,2.306,3.87998,374,0,
84.19,4.67987,7.02667,2.306,3.87998,374,0,
84.19,4.68048,7.02973,2.306,3.87998,374,0,
84.19,4.6814,7.0282,2.306,3.87998,374,0,
84.1901,4.67987,7.03278,2.306,3.87998,374,0,
84.1901,4.68048,7.03125,2.306,3.87998,374,0,
84.1901,4.68475,7.02973,2.306,3.87998,374,0,
84.1902,4.68506,7.03278,2.306,3.87998,374,0,
84.1902,4.68506,7.0282,2.306,3.87998,374,0,
84.1902,4.68475,7.03278,2.306,3.87998,374,0,
84.1903,4.68536,7.01599,2.306,3.87998,374,0,
84.1903,4.69025,7.01904,2.306,3.87998,374,0,
84.1903,4.68964,7.01447,2.306,3.87998,374,0,
84.1904,4.69055,7.01752,2.306,3.87998,374,0,
84.1904,4.68994,7.01599,2.306,3.87998,374,0,
84.1904,4.69025,7.01904,2.306,3.87998,374,0,
84.1905,4.69482,7.01752,2.306,3.87998,374,0,
84.1905,4.69513,7.01904,2.306,3.87998,374,0,
84.1905,4.69482,7.01447,2.306,3.87998,374,0,
84.1906,4.69452,7.01904,2.306,3.87998,374,0,
84.1906,4.69879,7.01904,2.306,3.87998,374,0,
84.1906,4.70001,7.01904,2.306,3.87998,374,0,
84.1907,4.70001,7.01752,2.306,3.87998,374,0,
84.1907,4.70001,7.01752,2.306,3.87998,374,0,
84.1907,4.70032,7.01904,2.306,3.87998,374,0,
84.1908,4.70459,7.01447,2.306,3.87998,374,0,
84.1908,4.7052,7.01447,2.306,3.87998,374,0,
84.1908,4.70428,7.01599,2.306,3.87998,374,0,
84.1909,4.7049,7.01599,2.306,3.87998,374,0,
84.1909,4.70947,7.01752,2.306,3.87998,374,0,
84.1909,4.71008,7.01294,2.306,3.87998,374,0,
84.191,4.70947,7.02057,2.306,3.87998,374,0,
84.191,4.70917,7.01904,2.306,3.87998,374,0,
84.191,4.71375,7.01752,2.306,3.87998,374,0,
84.1911,4.71497,7.01599,2.306,3.87998,374,0,
84.1911,4.71497,7.01599,2.306,3.87998,374,0,
84.1911,4.71466,7.01904,2.306,3.87998,374,0,
84.1912,4.71619,7.01599,2.306,3.87998,374,0,
84.1912,4.71954,7.01904,2.306,3.87998,374,0,
84.1912,4.71954,7.01904,2.306,3.87998,374,0,
84.1913,4.71954,7.01599,2.306,3.87998,374,0,
84.1913,4.72168,7.01599,2.306,3.87998,374,0,
84.1913,4.72443,7.01752,2.306,3.87998,374,0,
84.1914,4.72412,7.01904,2.306,3.87998,374,0,
84.1914,4.72443,7.01752,2.306,3.87998,374,0,
84.1914,4.72595,7.01904,2.306,3.87998,374,0,
84.1915,4.72961,7.01141,2.306,3.87998,374,0,
84.1915,4.72961,7.01447,2.306,3.87998,374,0,
84.1915,4.72931,7.01752,2.306,3.87998,374,0,
84.1916,4.73297,7.01752,2.306,3.87998,374,0,
84.1916,4.73389,7.01904,2.306,3.87998,374,0,
84.1916,4.73419,7.01294,2.306,3.87998,374,0,
84.1917,4.73419,7.01752,2.306,3.87998,374,0,
84.1917,4.73938,7.01447,2.306,3.87998,374,0,
84.1917,4.73907,7.00836,2.306,3.87998,374,0,
84.1918,4.73907,7.00379,2.306,3.87998,374,0,
84.1918,4.73938,7.00379,2.306,3.87998,374,0,
84.1918,4.74365,7.00531,2.306,3.87998,374,0,
84.1919,4.74335,7.00226,2.306,3.87998,374,0,
84.1919,4.74365,7.00531,2.306,3.87998,374,0,
84.1919,4.74762,7.00531,2.306,3.87998,374,0,
84.192,4.74884,7.00379,2.306,3.87998,374,0,
84.192,4.74884,7.00379,2.306,3.87998,374,0,
84.192,4.74854,7.00379,2.306,3.87998,374,0,
84.1921,4.75372,7.00379,2.306,3.87998,374,0,
84.1921,4.75403,7.00379,2.306,3.87998,374,0,
84.1921,4.75311,7.00531,2.306,3.87998,374,0,
84.1922,4.758,7.00379,2.306,3.87998,374,0,
84.1922,4.7583,7.00531,2.306,3.87998,374,0,
84.1922,4.7583,7.00684,2.306,3.87998,374,0,
84.1923,4.75861,7.00531,2.306,3.87998,374,0,
84.1923,4.76318,7.00226,2.306,3.87998,374,0,
84.1923,4.76349,7.00684,2.306,3.87998,374,0,
84.1924,4.76379,7.00531,2.306,3.87998,374,0,
84.1924,4.76837,7.00379,2.306,3.87998,374,0,
84.1924,4.76776,7.00531,2.306,3.87998,374,0,
84.1925,4.76837,7.00226,2.306,3.87998,374,0,
84.1925,4.76959,6.99616,2.306,3.87998,374,0,
84.1925,4.77325,6.9931,2.306,3.87998,374,0,
84.1926,4.77295,6.99463,2.306,3.87998,374,0,
84.1926,4.77356,6.9931,2.306,3.87998,374,0,
84.1926,4.77844,6.9931,2.306,3.87998,374,0,
84.1927,4.77783,6.9931,2.306,3.87998,374,0,
84.1927,4.77844,6.99158,2.306,3.87998,374,0,
84.1927,4.7821,6.9931,2.306,3.87998,374,0,
84.1928,4.78333,6.99005,2.306,3.87998,374,0,
84.1928,4.78333,6.9931,2.306,3.87998,374,0,
84.1928,4.78455,6.98853,2.306,3.87998,374,0,
84.1929,4.78821,6.99005,2.306,3.87998,374,0,
84.1929,4.7879,6.98853,2.306,3.87998,374,0,
84.1929,4.78882,6.99158,2.306,3.87998,374,0,
84.193,4.79309,6.99005,2.306,3.87998,374,0,
84.193,4.79309,6.99005,2.306,3.87998,374,0,
84.193,4.7934,6.98242,2.306,3.87998,374,0,
84.1931,4.79767,6.97937,2.306,3.87998,374,0,
84.1931,4.79828,6.9809,2.306,3.87998,374,0,
84.1931,4.79828,6.9809,2.306,3.87998,374,0,
84.1932,4.80194,6.9809,2.306,3.87998,374,0,
84.1932,4.80255,6.97785,2.306,3.87998,374,0,
84.1932,4.80225,6.97785,2.306,3.87998,374,0,
84.1933,4.80682,6.97937,2.306,3.87998,374,0,
84.1933,4.80865,6.97937,2.306,3.87998,374,0,
84.1933,4.80804,6.9809,2.306,3.87998,374,0,
84.1934,4.80988,6.97937,2.306,3.87998,374,0,
84.1934,4.81262,6.97632,2.306,3.87998,374,0,
84.1934,4.81293,6.97937,2.306,3.87998,374,0,
84.1935,4.81293,6.97937,2.306,3.87998,374,0,
84.1935,4.81842,6.97785,2.306,3.87998,374,0,
84.1935,4.81781,6.97937,2.306,3.87998,374,0,
84.1936,4.81812,6.98242,2.306,3.87998,374,0,
84.1936,4.82269,6.97937,2.306,3.87998,374,0,
84.1936,4.8233,6.97785,2.306,3.87998,374,0,
84.1937,4.82269,6.9809,2.306,3.87998,374,0,
84.1937,4.82758,6.96716,2.306,3.87998,374,0,
84.1937,4.82758,6.96564,2.306,3.87998,374,0,
84.1938,4.82727,6.96716,2.306,3.87998,374,0,
84.1938,4.83124,6.96869,2.306,3.87998,374,0,
84.1938,4.83307,6.97022,2.306,3.87998,374,0,
84.1939,4.83215,6.96716,2.306,3.87998,374,0,
84.1939,4.83673,6.96716,2.306,3.87998,374,0,
84.1939,4.83704,6.96869,2.306,3.87998,374,0,
84.194,4.83734,6.96869,2.306,3.87998,374,0,
84.194,4.83917,6.96564,2.306,3.87998,374,0,
84.194,4.84222,6.96716,2.306,3.87998,374,0,
84.1941,4.84161,6.96869,2.306,3.87998,374,0,
84.1941,4.84375,6.96259,2.306,3.87998,374,0,
84.1941,4.84741,6.96716,2.306,3.87998,374,0,
84.1942,4.84741,6.96869,2.306,3.87998,374,0,
84.1942,4.8468,6.96869,2.306,3.87998,374,0,
84.1942,4.85168,6.96564,2.306,3.87998,374,0,
84.1943,4.85199,6.96716,2.306,3.87998,374,0,
84.1943,4.8526,6.96716,2.306,3.87998,374,0,
84.1943,4.85687,6.96716,2.306,3.87998,374,0,
84.1944,4.85626,6.96716,2.306,3.87998,374,0,
84.1944,4.85687,6.96716,2.306,3.87998,374,0,
84.1944,4.86145,6.97022,2.306,3.87998,374,0,
84.1945,4.86176,6.96716,2.306,3.87998,374,0,
84.1945,4.86206,6.96716,2.306,3.87998,374,0,
84.1945,4.86572,6.96869,2.306,3.87998,374,0,
84.1946,4.86633,6.97022,2.306,3.87998,374,0,
84.1946,4.86694,6.97022,2.306,3.87998,374,0,
84.1946,4.87,6.96869,2.306,3.87998,374,0,
84.1947,4.87091,6.97022,2.306,3.87998,374,0,
84.1947,4.87091,6.97022,2.306,3.87998,374,0,
84.1947,4.87335,6.96869,2.306,3.87998,374,0,
84.1948,4.8761,6.97022,2.306,3.87998,374,0,
84.1948,4.87549,6.95801,2.306,3.87998,374,0,
84.1948,4.87885,6.95801,2.306,3.87998,374,0,
84.1949,4.88129,6.95343,2.306,3.87998,374,0,
84.1949,4.88098,6.95343,2.306,3.87998,374,0,
84.1949,4.88068,6.95496,2.306,3.87998,374,0,
84.195,4.88586,6.95496,2.306,3.87998,374,0,
84.195,4.88647,6.95343,2.306,3.87998,374,0,
84.195,4.88586,6.95648,2.306,3.87998,374,0,
84.1951,4.89044,6.95648,2.306,3.87998,374,0,
84.1951,4.89075,6.95191,2.306,3.87998,374,0,
84.1951,4.89075,6.95648,2.306,3.87998,374,0,
84.1952,4.89655,6.95496,2.306,3.87998,374,0,
84.1952,4.89532,6.95496,2.306,3.87998,374,0,
84.1952,4.89624,6.95801,2.306,3.87998,374,0,
84.1953,4.90021,6.95191,2.306,3.87998,374,0,
84.1953,4.90112,6.95496,2.306,3.87998,374,0,
84.1953,4.90021,6.95953,2.306,3.87998,374,0,
84.1954,4.9057,6.95496,2.306,3.87998,374,0,
84.1954,4.9057,6.95343,2.306,3.87998,374,0,
84.1954,4.90601,6.95496,2.306,3.87998,374,0,
84.1955,4.91058,6.95343,2.306,3.87998,374,0,
84.1955,4.91089,6.95801,2.306,3.87998,374,0,
84.1955,4.91089,6.95648,2.306,3.87998,374,0,
84.1956,4.91547,6.95648,2.306,3.87998,374,0,
84.1956,4.91516,6.95801,2.306,3.87998,374,0,
84.1956,4.91486,6.95801,2.306,3.87998,374,0,
84.1957,4.91943,6.95496,2.306,3.87998,374,0,
84.1957,4.92035,6.95343,2.306,3.87998,374,0,
84.1957,4.92004,6.95343,2.306,3.87998,374,0,
84.1958,4.92401,6.95496,2.306,3.87998,374,0,
84.1958,4.92554,6.95648,2.306,3.87998,374,0,
84.1958,4.92584,6.95496,2.306,3.87998,374,0,
84.1959,4.9295,6.95191,2.306,3.87998,374,0,
84.1959,4.93103,6.95648,2.306,3.87998,374,0,
84.1959,4.93042,6.95801,2.306,3.87998,374,0,
84.196,4.93439,6.95343,2.306,3.87998,374,0,
84.196,4.93469,6.95496,2.306,3.87998,374,0,
84.196,4.9353,6.95648,2.306,3.87998,374,0,
84.1961,4.93683,6.95801,2.306,3.87998,374,0,
84.1961,4.93988,6.95648,2.306,3.87998,374,0,
84.1961,4.94019,6.95343,2.306,3.87998,374,0,
84.1962,4.94141,6.95496,2.306,3.87998,374,0,
84.1962,4.94476,6.95496,2.306,3.87998,374,0,
84.1962,4.94476,6.95496,2.306,3.87998,374,0,
84.1963,4.94659,6.95648,2.306,3.87998,374,0,
84.1963,4.94965,6.95343,2.306,3.87998,374,0,
84.1963,4.94995,6.95496,2.306,3.87998,374,0,
84.1964,4.94934,6.95343,2.306,3.87998,374,0,
84.1964,4.95483,6.95343,2.306,3.87998,374,0,
84.1964,4.95483,6.95343,2.306,3.87998,374,0,
84.1965,4.95483,6.95496,2.306,3.87998,374,0,
84.1965,4.96002,6.95343,2.306,3.87998,374,0,
84.1965,4.95941,6.95648,2.306,3.87998,374,0,
84.1966,4.96033,6.95496,2.306,3.87998,374,0,
84.1966,4.9649,6.95648,2.306,3.87998,374,0,
84.1966,4.96429,6.95648,2.306,3.87998,374,0,
84.1967,4.9646,6.95343,2.306,3.87998,374,0,
84.1967,4.96918,6.95343,2.306,3.87998,374,0,
84.1967,4.9704,6.95496,2.306,3.87998,374,0,
84.1968,4.96979,6.95801,2.306,3.87998,374,0,
84.1968,4.97406,6.95496,2.306,3.87998,374,0,
84.1968,4.97589,6.95496,2.306,3.87998,374,0,
84.1969,4.97467,6.95496,2.306,3.87998,374,0,
84.1969,4.97833,6.95191,2.306,3.87998,374,0,
84.1969,4.97955,6.95343,2.306,3.87998,374,0,
84.197,4.97986,6.95496,2.306,3.87998,374,0,
84.197,4.98322,6.95191,2.306,3.87998,374,0,
84.197,4.98474,6.95648,2.306,3.87998,374,0,
84.1971,4.98413,6.95648,2.306,3.87998,374,0,
84.1971,4.98566,6.95343,2.306,3.87998,374,0,
84.1971,4.98932,6.95648,2.306,3.87998,374,0,
84.1972,4.98932,6.95953,2.306,3.87998,374,0,
84.1972,4.99023,6.95648,2.306,3.87998,374,0,
84.1972,4.9942,6.95648,2.306,3.87998,374,0,
84.1973,4.99451,6.95191,2.306,3.87998,374,0,
84.1973,4.99451,6.95801,2.306,3.87998,374,0,
84.1973,4.99939,6.95496,2.306,3.87998,374,0,
84.1974,4.99969,6.95496,2.306,3.87998,374,0,
84.1974,4.99908,6.95648,2.306,3.87998,374,0,
84.1974,5.00336,6.95343,2.306,3.87998,374,0,
84.1975,5.00366,6.95801,2.306,3.87998,374,0,
84.1975,5.00366,6.95648,2.306,3.87998,374,0,
84.1975,5.00488,6.95496,2.306,3.87998,374,0,
84.1976,5.00824,6.95648,2.306,3.87998,374,0,
84.1976,5.00854,6.95648,2.306,3.87998,374,0,
84.1976,5.00885,6.94428,2.306,3.87998,374,0,
84.1977,5.01343,6.94428,2.306,3.87998,374,0,
84.1977,5.01373,6.94733,2.306,3.87998,374,0,
84.1977,5.01373,6.94428,2.306,3.87998,374,0,
84.1978,5.0174,6.94885,2.306,3.87998,374,0,
84.1978,5.01831,6.94122,2.306,3.87998,374,0,
84.1978,5.01831,6.94275,2.306,3.87998,374,0,
84.1979,5.01923,6.94428,2.306,3.87998,374,0,
84.1979,5.0235,6.94122,2.306,3.87998,374,0,
84.1979,5.02411,6.94428,2.306,3.87998,374,0,
84.198,5.0238,6.94428,2.306,3.87998,374,0,
84.198,5.02777,6.94428,2.306,3.87998,374,0,
84.198,5.02808,6.9458,2.306,3.87998,374,0,
84.1981,5.02747,6.9458,2.306,3.87998,374,0,
84.1981,5.02838,6.94275,2.306,3.87998,374,0,
84.1981,5.03326,6.9397,2.306,3.87998,374,0,
84.1982,5.03265,6.94122,2.306,3.87998,374,0,
84.1982,5.03326,6.94428,2.306,3.87998,374,0,
84.1982,5.03662,6.9458,2.306,3.87998,374,0,
84.1983,5.03876,6.94428,2.306,3.87998,374,0,
84.1983,5.03845,6.94275,2.306,3.87998,374,0,
84.1983,5.03815,6.9458,2.306,3.87998,374,0,
84.1984,5.04303,6.94428,2.306,3.87998,374,0,
84.1984,5.04333,6.94428,2.306,3.87998,374,0,
84.1984,5.04364,6.94275,2.306,3.87998,374,0,
84.1985,5.04517,6.94275,2.306,3.87998,374,0,
84.1985,5.04791,6.94275,2.306,3.87998,374,0,
84.1985,5.0473,6.94275,2.306,3.87998,374,0,
84.1986,5.04822,6.94733,2.306,3.87998,374,0,
84.1986,5.05219,6.94275,2.306,3.87998,374,0,
84.1986,5.0528,6.94275,2.306,3.87998,374,0,
84.1987,5.0528,6.94428,2.306,3.87998,374,0,
84.1987,5.05249,6.9458,2.306,3.87998,374,0,
84.1987,5.05768,6.9458,2.306,3.87998,374,0,
84.1988,5.05768,6.94122,2.306,3.87998,374,0,
84.1988,5.05798,6.94122,2.306,3.87998,374,0,
84.1988,5.05798,6.9458,2.306,3.87998,374,0,
84.1989,5.06287,6.94275,2.306,3.87998,374,0,
84.1989,5.06195,6.9458,2.306,3.87998,374,0,
84.1989,5.06256,6.94428,2.306,3.87998,374,0,
84.199,5.06409,6.94275,2.306,3.87998,374,0,
84.199,5.06775,6.94428,2.306,3.87998,374,0,
84.199,5.06683,6.9397,2.306,3.87998,374,0,
84.1991,5.06775,6.94428,2.306,3.87998,374,0,
84.1991,5.06866,6.94428,2.306,3.87998,374,0,
84.1991,5.07263,6.94428,2.306,3.87998,374,0,
84.1992,5.07202,6.94428,2.306,3.87998,374,0,
84.1992,5.07324,6.94275,2.306,3.87998,374,0,
84.1992,5.07385,6.94275,2.306,3.87998,374,0,
84.1993,5.07721,6.9458,2.306,3.87998,374,0,
84.1993,5.0769,6.9458,2.306,3.87998,374,0,
84.1993,5.07721,6.94122,2.306,3.87998,374,0,
84.1994,5.07874,6.94275,2.306,3.87998,374,0,
84.1994,5.08179,6.9458,2.306,3.87998,374,0,
84.1994,5.0824,6.94885,2.306,3.87998,374,0,
84.1995,5.08209,6.94428,2.306,3.87998,374,0,
84.1995,5.08362,6.94733,2.306,3.87998,374,0,
84.1995,5.08698,6.9458,2.306,3.87998,374,0,
84.1996,5.08698,6.94428,2.306,3.87998,374,0,
84.1996,5.08698,6.9458,2.306,3.87998,374,0,
84.1996,5.08667,6.9458,2.306,3.87998,374,0,
84.1997,5.09125,6.94428,2.306,3.87998,374,0,
84.1997,5.09094,6.94428,2.306,3.87998,374,0,
84.1997,5.09155,6.94275,2.306,3.87998,374,0,
84.1998,5.09186,6.94733,2.306,3.87998,374,0,
84.1998,5.09674,6.94428,2.306,3.87998,374,0,
84.1998,5.09644,6.94428,2.306,3.87998,374,0,
84.1999,5.09705,6.94428,2.306,3.87998,374,0,
84.1999,5.09613,6.94428,2.306,3.87998,374,0,
84.1999,5.10162,6.94428,2.306,3.87998,374,0,
84.2,5.10162,6.9458,2.306,3.87998,374,0,
84.2,5.10132,6.94428,2.306,3.87998,374,0,
84.2,5.10162,6.9458,2.306,3.87998,374,0,
84.2001,5.10529,6.94275,2.306,3.87998,374,0,
84.2001,5.10559,6.94733,2.306,3.87998,374,0,
84.2001,5.1059,6.94428,2.306,3.87998,374,0,
84.2002,5.1062,6.94275,2.306,3.87998,374,0,
84.2002,5.10834,6.94885,2.306,3.87998,374,0,
84.2002,5.11139,6.94428,2.306,3.87998,374,0,
84.2003,5.11078,6.94428,2.306,3.87998,374,0,
84.2003,5.11169,6.94428,2.306,3.87998,374,0,
84.2003,5.1123,6.94275,2.306,3.87998,374,0,
84.2004,5.11597,6.94428,2.306,3.87998,374,0,
84.2004,5.11627,6.94428,2.306,3.87998,374,0,
84.2004,5.11627,6.94275,2.306,3.87998,374,0,
84.2005,5.11597,6.94428,2.306,3.87998,374,0,
84.2005,5.11993,6.9458,2.306,3.87998,374,0,
84.2005,5.12054,6.94275,2.306,3.87998,374,0,
84.2006,5.12177,6.9397,2.306,3.87998,374,0,
84.2006,5.12085,6.94733,2.306,3.87998,374,0,
84.2006,5.12207,6.94122,2.306,3.87998,374,0,
84.2007,5.12573,6.94275,2.306,3.87998,374,0,
84.2007,5.12634,6.94275,2.306,3.87998,374,0,
84.2007,5.12543,6.94275,2.306,3.87998,374,0,
84.2008,5.12543,6.94428,2.306,3.87998,374,0,
84.2008,5.13031,6.94733,2.306,3.87998,374,0,
84.2008,5.13092,6.94428,2.306,3.87998,374,0,
84.2009,5.13,6.9458,2.306,3.87998,374,0,
84.2009,5.13092,6.9458,2.306,3.87998,374,0,
84.2009,5.13123,6.9458,2.306,3.87998,374,0,
84.201,5.1355,6.94428,2.306,3.87998,374,0,
84.201,5.13519,6.94275,2.306,3.87998,374,0,
84.201,5.13611,6.94275,2.306,3.87998,374,0,
84.2011,5.1358,6.94428,2.306,3.87998,374,0,
84.2011,5.13702,6.9458,2.306,3.87998,374,0,
84.2011,5.14069,6.94275,2.306,3.87998,374,0,
84.2012,5.14099,6.94275,2.306,3.87998,374,0,
84.2012,5.14099,6.93817,2.306,3.87998,374,0,
84.2012,5.14038,6.94275,2.306,3.87998,374,0,
84.2013,5.14435,6.94428,2.306,3.87998,374,0,
84.2013,5.14618,6.94275,2.306,3.87998,374,0,
84.2013,5.14587,6.94275,2.306,3.87998,374,0,
84.2014,5.14648,6.94428,2.306,3.87998,374,0,
84.2014,5.14526,6.94122,2.306,3.87998,374,0,
84.2014,5.14984,6.94428,2.306,3.87998,374,0,
84.2015,5.15045,6.94275,2.306,3.87998,374,0,
84.2015,5.15045,6.9458,2.306,3.87998,374,0,
84.2015,5.15045,6.94275,2.306,3.87998,374,0,
84.2016,5.15076,6.9458,2.306,3.87998,374,0,
84.2016,5.15564,6.9458,2.306,3.87998,374,0,
84.2016,5.15533,6.9458,2.306,3.87998,374,0,
84.2017,5.15564,6.9458,2.306,3.87998,374,0,
84.2017,5.15533,6.94275,2.306,3.87998,374,0,
84.2017,5.15686,6.9458,2.306,3.87998,374,0,
84.2018,5.16052,6.94275,2.306,3.87998,374,0,
84.2018,5.16052,6.9458,2.306,3.87998,374,0,
84.2018,5.15991,6.94428,2.306,3.87998,374,0,
84.2019,5.16052,6.94275,2.306,3.87998,374,0,
84.2019,5.16174,6.94428,2.306,3.87998,374,0,
84.2019,5.1651,6.94275,2.306,3.87998,374,0,
84.202,5.1651,6.94275,2.306,3.87998,374,0,
84.202,5.1651,6.94428,2.306,3.87998,374,0,
84.202,5.16479,6.94428,2.306,3.87998,374,0,
84.2021,5.16907,6.94428,2.306,3.87998,374,0,
84.2021,5.16998,6.9458,2.306,3.87998,374,0,
84.2021,5.16998,6.94275,2.306,3.87998,374,0,
84.2022,5.16968,6.94122,2.306,3.87998,374,0,
84.2022,5.17029,6.94428,2.306,3.87998,374,0,
84.2022,5.17426,6.94428,2.306,3.87998,374,0,
84.2023,5.17426,6.94275,2.306,3.87998,374,0,
84.2023,5.17487,6.94275,2.306,3.87998,374,0,
84.2023,5.17517,6.94275,2.306,3.87998,374,0,
84.2024,5.17456,6.94275,2.306,3.87998,374,0,
84.2024,5.17975,6.94122,2.306,3.87998,374,0,
84.2024,5.18005,6.94275,2.306,3.87998,374,0,
84.2025,5.18005,6.94733,2.306,3.87998,374,0,
84.2025,5.17944,6.94428,2.306,3.87998,374,0,
84.2025,5.18341,6.94733,2.306,3.87998,374,0,
84.2026,5.18463,6.94428,2.306,3.87998,374,0,
84.2026,5.18433,6.94428,2.306,3.87998,374,0,
84.2026,5.18463,6.95038,2.306,3.87998,374,0,
84.2027,5.18494,6.95648,2.306,3.87998,374,0,
84.2027,5.18951,6.95648,2.306,3.87998,374,0,
84.2027,5.18951,6.95648,2.306,3.87998,374,0,
84.2028,5.18982,6.95496,2.306,3.87998,374,0,
84.2028,5.18982,6.95648,2.306,3.87998,374,0,
84.2028,5.19348,6.95801,2.306,3.87998,374,0,
84.2029,5.1947,6.95496,2.306,3.87998,374,0,
84.2029,5.19409,6.95343,2.306,3.87998,374,0,
84.2029,5.19379,6.95496,2.306,3.87998,374,0,
84.203,5.19653,6.95801,2.306,3.87998,374,0,
84.203,5.19958,6.95648,2.306,3.87998,374,0,
84.203,5.19958,6.95343,2.306,3.87998,374,0,
84.2031,5.19958,6.95648,2.306,3.87998,374,0,
84.2031,5.20142,6.95648,2.306,3.87998,374,0,
84.2031,5.20508,6.95648,2.306,3.87998,374,0,
84.2032,5.20477,6.95801,2.306,3.87998,374,0,
84.2032,5.20447,6.95648,2.306,3.87998,374,0,
84.2032,5.20813,6.95496,2.306,3.87998,374,0,
84.2033,5.20905,6.95648,2.306,3.87998,374,0,
84.2033,5.20996,6.95496,2.306,3.87998,374,0,
84.2033,5.20966,6.95343,2.306,3.87998,374,0,
84.2034,5.21393,6.95648,2.306,3.87998,374,0,
84.2034,5.21484,6.95343,2.306,3.87998,374,0,
84.2034,5.21423,6.95496,2.306,3.87998,374,0,
84.2035,5.21393,6.95343,2.306,3.87998,374,0,
84.2035,5.22003,6.95496,2.306,3.87998,374,0,
84.2035,5.21881,6.95343,2.306,3.87998,374,0,
84.2036,5.21881,6.95496,2.306,3.87998,374,0,
84.2036,5.22339,6.95648,2.306,3.87998,374,0,
84.2036,5.22461,6.95953,2.306,3.87998,374,0,
84.2037,5.2243,6.95496,2.306,3.87998,374,0,
84.2037,5.224,6.95648,2.306,3.87998,374,0,
84.2037,5.22949,6.95648,2.306,3.87998,374,0,
84.2038,5.22858,6.95496,2.306,3.87998,374,0,
84.2038,5.2298,6.95648,2.306,3.87998,374,0,
84.2038,5.23285,6.95496,2.306,3.87998,374,0,
84.2039,5.23376,6.95496,2.306,3.87998,374,0,
84.2039,5.23285,6.95648,2.306,3.87998,374,0,
84.2039,5.2356,6.95496,2.306,3.87998,374,0,
84.204,5.23926,6.95648,2.306,3.87998,374,0,
84.204,5.23865,6.95648,2.306,3.87998,374,0,
84.204,5.23834,6.95496,2.306,3.87998,374,0,
84.2041,5.24323,6.95496,2.306,3.87998,374,0,
84.2041,5.24414,6.95496,2.306,3.87998,374,0,
84.2041,5.24292,6.95496,2.306,3.87998,374,0,
84.2042,5.24872,6.95191,2.306,3.87998,374,0,
84.2042,5.24841,6.95496,2.306,3.87998,374,0,
84.2042,5.24902,6.95496,2.306,3.87998,374,0,
84.2043,5.25238,6.95801,2.306,3.87998,374,0,
84.2043,5.2533,6.95496,2.306,3.87998,374,0,
84.2043,5.25299,6.95496,2.306,3.87998,374,0,
84.2044,5.25696,6.95496,2.306,3.87998,374,0,
84.2044,5.25879,6.95496,2.306,3.87998,374,0,
84.2044,5.25909,6.95343,2.306,3.87998,374,0,
84.2045,5.26245,6.95801,2.306,3.87998,374,0,
84.2045,5.26367,6.95801,2.306,3.87998,374,0,
84.2045,5.26184,6.95496,2.306,3.87998,374,0,
84.2046,5.2652,6.95648,2.306,3.87998,374,0,
84.2046,5.26825,6.94733,2.306,3.87998,374,0,
84.2046,5.26794,6.94428,2.306,3.87998,374,0,
84.2047,5.27008,6.9458,2.306,3.87998,374,0,
84.2047,5.27344,6.9458,2.306,3.87998,374,0,
84.2047,5.27283,6.94275,2.306,3.87998,374,0,
84.2048,5.27496,6.9458,2.306,3.87998,374,0,
84.2048,5.27863,6.94733,2.306,3.87998,374,0,
84.2048,5.27802,6.94275,2.306,3.87998,374,0,
84.2049,5.27924,6.9458,2.306,3.87998,374,0,
84.2049,5.28259,6.94428,2.306,3.87998,374,0,
84.2049,5.28351,6.94122,2.306,3.87998,374,0,
84.205,5.2829,6.9458,2.306,3.87998,374,0,
84.205,5.28778,6.9458,2.306,3.87998,374,0,
84.205,5.28748,6.9458,2.306,3.87998,374,0,
84.2051,5.28809,6.94275,2.306,3.87998,374,0,
84.2051,5.29358,6.94122,2.306,3.87998,374,0,
84.2051,5.29236,6.94275,2.306,3.87998,374,0,
84.2052,5.29297,6.9458,2.306,3.87998,374,0,
84.2052,5.29755,6.9458,2.306,3.87998,374,0,
84.2052,5.29816,6.94428,2.306,3.87998,374,0,
84.2053,5.29724,6.94275,2.306,3.87998,374,0,
84.2053,5.30273,6.94428,2.306,3.87998,374,0,
84.2053,5.30273,6.94733,2.306,3.87998,374,0,
84.2054,5.30304,6.94275,2.306,3.87998,374,0,
84.2054,5.30762,6.94275,2.306,3.87998,374,0,
84.2054,5.30762,6.93207,2.306,3.87998,374,0,
84.2055,5.30792,6.93359,2.306,3.87998,374,0,
84.2055,5.31189,6.93054,2.306,3.87998,374,0,
84.2055,5.3125,6.92902,2.306,3.87998,374,0,
84.2056,5.31281,6.93054,2.306,3.87998,374,0,
84.2056,5.31647,6.93207,2.306,3.87998,374,0,
84.2056,5.31738,6.93359,2.306,3.87998,374,0,
84.2057,5.31769,6.93054,2.306,3.87998,374,0,
84.2057,5.32104,6.93207,2.306,3.87998,374,0,
84.2057,5.32288,6.93207,2.306,3.87998,374,5,
84.2058,5.32257,6.92902,2.306,3.87998,374,5,
84.2058,5.32318,6.92902,2.306,3.87998,374,5,
84.2058,5.32684,6.93207,2.306,3.87998,374,5,
84.2059,5.32745,6.93207,2.306,3.87998,374,5,
84.2059,5.32623,6.93207,2.306,3.87998,374,5,
84.2059,5.33142,6.92902,2.306,3.87998,374,5,
84.206,5.33173,6.93054,2.306,3.87998,374,5,
84.206,5.33142,6.93207,2.306,3.87998,374,5,
84.206,5.3363,6.93207,2.306,3.87998,374,5,
84.2061,5.33661,6.93054,2.306,3.87998,374,5,
84.2061,5.3363,6.92902,2.306,3.87998,374,5,
84.2061,5.33813,6.93207,2.306,3.87998,374,5,
84.2062,5.34149,6.93054,2.306,3.87998,374,5,
84.2062,5.34149,6.92902,2.306,3.87998,374,5,
84.2062,5.34149,6.93207,2.306,3.87998,374,5,
84.2063,5.34546,6.93359,2.306,3.87998,374,5,
84.2063,5.34576,6.93054,2.306,3.87998,374,5,
84.2063,5.34607,6.93054,2.306,3.87998,374,5,
84.2064,5.35004,6.93359,2.306,3.87998,374,5,
84.2064,5.35095,6.93054,2.306,3.87998,374,5,
84.2064,5.35095,6.93207,2.306,3.87998,374,5,
84.2065,5.35156,6.93054,2.306,3.87998,374,5,
84.2065,5.35645,6.91834,2.306,3.87998,374,5,
84.2065,5.35675,6.91834,2.306,3.87998,374,5,
84.2066,5.35614,6.91986,2.306,3.87998,374,5,
84.2066,5.35767,6.91986,2.306,3.87998,374,5,
84.2066,5.36133,6.92139,2.306,3.87998,374,5,
84.2067,5.36163,6.91834,2.306,3.87998,374,5,
84.2067,5.36133,6.91986,2.306,3.87998,374,5,
84.2067,5.3653,6.92139,2.306,3.87998,374,5,
84.2068,5.36621,6.92139,2.306,3.87998,374,5,
84.2068,5.36621,6.92291,2.306,3.87998,374,5,
84.2068,5.36621,6.91986,2.306,3.87998,374,5,
84.2069,5.36957,6.91681,2.306,3.87998,374,5,
84.2069,5.3714,6.91834,2.306,3.87998,374,5,
84.2069,5.37079,6.91834,2.306,3.87998,374,5,
84.207,5.37109,6.91834,2.306,3.87998,374,5,
84.207,5.37476,6.91986,2.306,3.87998,374,5,
84.207,5.37598,6.91834,2.306,3.87998,374,5,
84.2071,5.37598,6.91681,2.306,3.87998,374,5,
84.2071,5.37659,6.91986,2.306,3.87998,374,5,
84.2071,5.37598,6.91986,2.306,3.87998,374,5,
84.2072,5.38147,6.91986,2.306,3.87998,374,5,
84.2072,5.38025,6.92139,2.306,3.87998,374,5,
84.2072,5.38055,6.91986,2.306,3.87998,374,5,
84.2073,5.38086,6.9046,2.306,3.87998,374,5,
84.2073,5.38239,6.90308,2.306,3.87998,374,5,
84.2073,5.38605,6.90613,2.306,3.87998,374,5,
84.2074,5.38666,6.90918,2.306,3.87998,374,5,
84.2074,5.38574,6.90613,2.306,3.87998,374,5,
84.2074,5.38574,6.90765,2.306,3.87998,374,5,
84.2075,5.38696,6.9046,2.306,3.87998,374,5,
84.2075,5.39032,6.9046,2.306,3.87998,374,5,
84.2075,5.39093,6.9046,2.306,3.87998,374,5,
84.2076,5.39093,6.9046,2.306,3.87998,374,5,
84.2076,5.39093,6.90613,2.306,3.87998,374,5,
84.2076,5.39062,6.9046,2.306,3.87998,374,5,
84.2077,5.39398,6.90613,2.306,3.87998,374,5,
84.2077,5.3952,6.90613,2.306,3.87998,374,5,
84.2077,5.39551,6.8985,2.306,3.87998,374,5,
84.2078,5.39551,6.89697,2.306,3.87998,374,5,
84.2078,5.3952,6.8924,2.306,3.87998,374,5,
84.2078,5.39581,6.89545,2.306,3.87998,374,5,
84.2079,5.39551,6.89697,2.306,3.87998,374,5,
84.2079,5.4007,6.89697,2.306,3.87998,374,5,
84.2079,5.4007,6.89545,2.306,3.87998,374,5,
84.208,5.40039,6.89545,2.306,3.87998,374,5,
84.208,5.40009,6.89545,2.306,3.87998,374,5,
84.208,5.39978,6.89545,2.306,3.87998,374,5,
84.2081,5.40039,6.89392,2.306,3.87998,374,5,
84.2081,5.4007,6.89392,2.306,3.87998,374,5,
84.2081,5.40161,6.89545,2.306,3.87998,374,5,
84.2082,5.40527,6.8924,2.306,3.87998,374,5,
84.2082,5.40558,6.89545,2.306,3.87998,374,5,
84.2082,5.40558,6.89545,2.306,3.87998,374,5,
84.2083,5.40466,6.88019,2.306,3.87998,374,5,
84.2083,5.40527,6.88019,2.306,3.87998,374,5,
84.2083,5.40497,6.88171,2.306,3.87998,374,5,
84.2084,5.40527,6.88019,2.306,3.87998,374,5,
84.2084,5.40558,6.88324,2.306,3.87998,374,5,
84.2084,5.40558,6.88477,2.306,3.87998,374,5,
84.2085,5.40588,6.88324,2.306,3.87998,374,5,
84.2085,5.4071,6.88019,2.306,3.87998,374,5,
84.2085,5.41077,6.88324,2.306,3.87998,374,5,
84.2086,5.41016,6.88171,2.306,3.87998,374,5,
84.2086,5.41016,6.88477,2.306,3.87998,374,5,
84.2086,5.41077,6.88324,2.306,3.87998,374,5,
84.2087,5.41016,6.88019,2.306,3.87998,374,5,
84.2087,5.41077,6.88171,2.306,3.87998,374,5,
84.2087,5.41077,6.88019,2.306,3.87998,374,5,
84.2088,5.41077,6.88019,2.306,3.87998,374,5,
84.2088,5.41016,6.88477,2.306,3.87998,374,5,
84.2088,5.41046,6.88019,2.306,3.87998,374,5,
84.2089,5.41046,6.88324,2.306,3.87998,374,5,
84.2089,5.41077,6.88171,2.306,3.87998,374,5,
84.2089,5.40955,6.88324,2.306,3.87998,374,5,
84.209,5.41077,6.88171,2.306,3.87998,374,5,
84.209,5.41077,6.88324,2.306,3.87998,374,5,
84.209,5.41107,6.87866,2.306,3.87998,374,5,
84.2091,5.41077,6.86951,2.306,3.87998,374,5,
84.2091,5.41046,6.87103,2.306,3.87998,374,5,
84.2091,5.41016,6.87103,2.306,3.87998,374,5,
84.2092,5.41046,6.87409,2.306,3.87998,374,5,
84.2092,5.41077,6.86951,1.994,3.87998,374,5,
84.2092,5.41138,6.86951,1.994,3.87998,374,5,
84.2093,5.41016,6.87103,1.994,3.87998,374,5,
84.2093,5.40955,6.86798,1.994,3.87998,374,5,
84.2093,5.41077,6.87256,1.994,3.87998,374,5,
84.2094,5.41016,6.86798,1.994,3.87998,374,5,
84.2094,5.40985,6.86951,1.994,3.87998,374,5,
84.2094,5.40955,6.86798,1.994,3.87998,374,5,
84.2095,5.41138,6.87103,1.994,3.87998,374,5,
84.2095,5.41107,6.87256,1.994,3.87998,374,5,
84.2095,5.41046,6.86951,1.994,3.87998,374,5,
84.2096,5.41016,6.87256,1.994,3.87998,374,5,
84.2096,5.41046,6.86951,1.994,3.87998,374,5,
84.2096,5.41046,6.87103,1.994,3.87998,374,5,
84.2097,5.41077,6.87256,1.994,3.87998,374,5,
84.2097,5.41046,6.86951,1.994,3.87998,374,5,
84.2097,5.41016,6.86798,1.994,3.87998,374,5,
84.2098,5.41046,6.86951,1.994,3.87998,374,5,
84.2098,5.41077,6.87409,1.994,3.87998,374,5,
84.2098,5.40588,6.86646,1.994,3.87998,374,5,
84.2099,5.40497,6.87409,1.994,3.87998,374,5,
84.2099,5.40527,6.87256,1.994,3.87998,374,5,
84.2099,5.40588,6.87256,1.994,3.87998,374,5,
84.21,5.40588,6.87103,1.994,3.87998,374,5,
84.21,5.40527,6.87103,1.994,3.87998,374,5,
84.21,5.40558,6.86951,1.994,3.87998,374,5,
84.2101,5.40588,6.87256,1.994,3.87998,374,5,
84.2101,5.40497,6.86951,1.994,3.87998,374,5,
84.2101,5.40558,6.86798,1.994,3.87998,374,5,
84.2102,5.40527,6.87103,1.994,3.87998,374,5,
84.2102,5.40588,6.87103,1.994,3.87998,374,5,
84.2102,5.401,6.87256,1.994,3.87998,374,5,
84.2103,5.40039,6.86951,1.994,3.87998,374,5,
84.2103,5.4007,6.86951,1.994,3.87998,374,5,
84.2103,5.39978,6.86951,1.994,3.87998,374,5,
84.2104,5.40039,6.86951,1.994,3.87998,374,5,
84.2104,5.40039,6.86951,1.994,3.87998,374,5,
84.2104,5.4007,6.86798,1.994,3.87998,374,5,
84.2105,5.40009,6.86951,1.994,3.87998,374,5,
84.2105,5.40039,6.87103,1.994,3.87998,374,5,
84.2105,5.39581,6.87103,1.994,3.87998,374,5,
84.2106,5.3952,6.86951,1.994,3.87998,374,5,
84.2106,5.3952,6.87103,1.994,3.87998,374,5,
84.2106,5.39581,6.87103,1.994,3.87998,374,5,
84.2107,5.3949,6.87103,1.994,3.87998,374,5,
84.2107,5.39551,6.86951,1.994,3.87998,374,5,
84.2107,5.3949,6.86646,1.994,3.87998,374,5,
84.2108,5.38971,6.87256,1.994,3.87998,374,5,
84.2108,5.39093,6.87256,1.994,3.87998,374,5,
84.2108,5.39062,6.86951,1.994,3.87998,374,5,
84.2109,5.39062,6.87103,1.994,3.87998,374,5,
84.2109,5.39001,6.86951,1.994,3.87998,374,5,
84.2109,5.39124,6.86951,1.994,3.87998,374,5,
84.211,5.39062,6.86951,1.994,3.87998,374,5,
84.211,5.38574,6.86951,1.994,3.87998,374,5,
84.211,5.38574,6.86951,1.994,3.87998,374,5,
84.2111,5.38483,6.86798,1.994,3.87998,374,5,
84.2111,5.38574,6.86951,1.994,3.87998,374,5,
84.2111,5.38544,6.87256,1.994,3.87998,374,5,
84.2112,5.38574,6.86951,1.994,3.87998,374,5,
