6500-SECPT.acq
2 msec/sample
6 channels
RSP, X, RSPEC-R
Volts
EDA, Y, PPGED-R
microsiemens
ECG R-R
Seconds
Respiration Rate
BPM
C7 - EDR
Peaks
C14 - Control
Volts
sec,CH1,CH14,CH40,CH42,CH47,CH54,
,28398,28398,28398,28398,28398,28398,
11923.5,0.823975,7.67212,0,5.96184,784,5,
11923.5,0.828857,7.66907,0,5.96184,784,5,
11923.5,0.834045,7.66907,0,5.96184,784,5,
11923.5,0.834351,7.67212,0,5.96184,784,5,
11923.5,0.839844,7.67212,0,5.96184,784,5,
11923.5,0.84137,7.67365,0,5.96184,784,5,
11923.5,0.842896,7.66907,0,5.96184,784,5,
11923.5,0.848389,7.67059,0,5.96184,784,5,
11923.5,0.851746,7.67365,0,5.96184,784,5,
11923.5,0.853577,7.67212,0,5.96184,784,5,
11923.5,0.857849,7.67365,0,5.96184,784,5,
11923.5,0.857849,7.67517,0,5.96184,784,5,
11923.5,0.863037,7.67212,0,5.96184,784,5,
11923.5,0.867004,7.67365,0,5.96184,784,5,
11923.5,0.86792,7.67212,0,5.96184,784,5,
11923.5,0.873108,7.67212,0,5.96184,784,5,
11923.5,0.87677,7.67059,0,5.96184,784,5,
11923.5,0.877991,7.67212,0,5.96184,784,5,
11923.5,0.882263,7.67059,0,5.96184,784,5,
11923.5,0.886536,7.66754,0,5.96184,784,5,
11923.5,0.887146,7.67059,0,5.96184,784,5,
11923.5,0.892029,7.67517,0,5.96184,784,5,
11923.5,0.895081,7.66754,0,5.96184,784,5,
11923.5,0.897522,7.67059,0,5.96184,784,5,
11923.5,0.9021,7.67059,0,5.96184,784,5,
11923.5,0.904541,7.67365,0,5.96184,784,5,
11923.5,0.906982,7.66754,0,5.96184,784,5,
11923.5,0.911865,7.67059,0,5.96184,784,5,
11923.5,0.914612,7.67365,0,5.96184,784,5,
11923.5,0.917053,7.67059,0,5.96184,784,5,
11923.5,0.921936,7.67059,0,5.96184,784,5,
11923.5,0.922852,7.67212,0,5.96184,784,5,
11923.5,0.926819,7.67212,0,5.96184,784,5,
11923.5,0.931091,7.67365,0,5.96184,784,5,
11923.6,0.931702,7.67212,0,5.96184,784,5,
11923.6,0.935974,7.67212,0,5.96184,784,5,
11923.6,0.940857,7.67212,0,5.96184,784,5,
11923.6,0.941467,7.67517,0,5.96184,784,5,
11923.6,0.946045,7.67059,0,5.96184,784,5,
11923.6,0.948792,7.67212,0,5.96184,784,5,
11923.6,0.951233,7.67365,0,5.96184,784,5,
11923.6,0.955811,7.67212,0,5.96184,784,5,
11923.6,0.958557,7.67059,0,5.96184,784,5,
11923.6,0.960999,7.67212,0,5.96184,784,5,
11923.6,0.965576,7.66907,0,5.96184,784,5,
11923.6,0.966492,7.67517,0,5.96184,784,5,
11923.6,0.970764,7.67365,0,5.96184,784,5,
11923.6,0.975647,7.67365,0,5.96184,784,5,
11923.6,0.975952,7.67059,0,5.96184,784,5,
11923.6,0.98053,7.67212,0,5.96184,784,5,
11923.6,0.984192,7.67059,0,5.96184,784,5,
11923.6,0.985107,7.67517,0,5.96184,784,5,
11923.6,0.990906,7.66907,0,5.96184,784,5,
11923.6,0.994568,7.67212,0,5.96184,784,5,
11923.6,0.995178,7.67365,0,5.96184,784,5,
11923.6,1.00037,7.67365,0,5.96184,784,5,
11923.6,1.00464,7.67212,0,5.96184,784,5,
11923.6,1.00586,7.67212,0,5.96184,784,5,
11923.6,1.00983,7.67365,0,5.96184,784,5,
11923.6,1.0144,7.67517,0,5.96184,784,5,
11923.6,1.01501,7.67059,0,5.96184,784,5,
11923.6,1.0199,7.67365,0,5.96184,784,5,
11923.6,1.02509,7.67517,0,5.96184,784,5,
11923.6,1.02783,7.6767,0,5.96184,784,5,
11923.6,1.02905,7.67212,0,5.96184,784,5,
11923.6,1.03394,7.67517,0,5.96184,784,5,
11923.6,1.03729,7.67365,0,5.96184,784,5,
11923.6,1.03973,7.67059,0,5.96184,784,5,
11923.6,1.04492,7.67365,0,5.96184,784,5,
11923.6,1.04858,7.67059,0,5.96184,784,5,
11923.6,1.0495,7.67212,0,5.96184,784,5,
11923.6,1.05438,7.67365,0,5.96184,784,5,
11923.6,1.05896,7.67212,0,5.96184,784,5,
11923.6,1.0614,7.67059,0,5.96184,784,5,
11923.6,1.06415,7.67212,0,5.96184,784,5,
11923.6,1.06903,7.67365,0,5.96184,784,5,
11923.6,1.07117,7.67059,0,5.96184,784,5,
11923.6,1.07452,7.67365,0,5.96184,784,5,
11923.6,1.07941,7.67059,0,5.96184,784,5,
11923.6,1.08307,7.67059,0,5.96184,784,5,
11923.6,1.08582,7.67059,0,5.96184,784,5,
11923.6,1.08856,7.67059,0,5.96184,784,5,
11923.6,1.09314,7.67212,0,5.96184,784,5,
11923.6,1.09772,7.66602,0,5.96184,784,5,
11923.7,1.09802,7.67212,0,5.96184,784,5,
11923.7,1.10382,7.67365,0,5.96184,784,5,
11923.7,1.10809,7.6767,0,5.96184,784,5,
11923.7,1.11267,7.67212,0,5.96184,784,5,
11923.7,1.1142,7.67212,0,5.96184,784,5,
11923.7,1.11816,7.67059,0,5.96184,784,5,
11923.7,1.12305,7.66907,0,5.96184,784,5,
11923.7,1.12732,7.67059,0,5.96184,784,5,
11923.7,1.12823,7.67212,0,5.96184,784,5,
11923.7,1.1322,7.67059,0,5.96184,784,5,
11923.7,1.1377,7.67212,0,5.96184,784,5,
11923.7,1.14258,7.66907,0,5.96184,784,5,
11923.7,1.14502,7.67212,0,5.96184,784,5,
11923.7,1.14777,7.67212,0,5.96184,784,5,
11923.7,1.15234,7.67059,0,5.96184,784,5,
11923.7,1.15662,7.67059,0,5.96184,784,5,
11923.7,1.15936,7.67365,0,5.96184,784,5,
11923.7,1.16272,7.67212,0,5.96184,784,5,
11923.7,1.16638,7.67212,0,5.96184,784,5,
11923.7,1.17218,7.67212,0,5.96184,784,5,
11923.7,1.17554,7.67212,0,5.96184,784,5,
11923.7,1.17889,7.67059,0,5.96184,784,5,
11923.7,1.18256,7.67365,0,5.96184,784,5,
11923.7,1.18652,7.67059,0,5.96184,784,5,
11923.7,1.19141,7.66907,0,5.96184,784,5,
11923.7,1.19598,7.67517,0,5.96184,784,5,
11923.7,1.19873,7.67365,0,5.96184,784,5,
11923.7,1.20148,7.67059,0,5.96184,784,5,
11923.7,1.20667,7.67212,0,5.96184,784,5,
11923.7,1.21094,7.67517,0,5.96184,784,5,
11923.7,1.21552,7.67059,0,5.96184,784,5,
11923.7,1.2204,7.67059,0,5.96184,784,5,
11923.7,1.22375,7.67517,0,5.96184,784,5,
11923.7,1.22589,7.67212,0,5.96184,784,5,
11923.7,1.23138,7.67365,0,5.96184,784,5,
11923.7,1.23596,7.67212,0,5.96184,784,5,
11923.7,1.24054,7.67212,0,5.96184,784,5,
11923.7,1.24298,7.67212,0,5.96184,784,5,
11923.7,1.24817,7.67212,0,5.96184,784,5,
11923.7,1.25031,7.67517,0,5.96184,784,5,
11923.7,1.25519,7.67365,0,5.96184,784,5,
11923.7,1.26038,7.67365,0,5.96184,784,5,
11923.7,1.26404,7.67517,0,5.96184,784,5,
11923.7,1.26709,7.67059,0,5.96184,784,5,
11923.7,1.27289,7.67365,0,5.96184,784,5,
11923.7,1.27472,7.67059,0,5.96184,784,5,
11923.7,1.2796,7.67365,0,5.96184,784,5,
11923.7,1.2851,7.67059,0,5.96184,784,5,
11923.7,1.28845,7.67059,0,5.96184,784,5,
11923.8,1.29333,7.67212,0,5.96184,784,5,
11923.8,1.29669,7.67059,0,5.96184,784,5,
11923.8,1.29974,7.67059,0,5.96184,784,5,
11923.8,1.30432,7.67212,0,5.96184,784,5,
11923.8,1.3092,7.66907,0,5.96184,784,5,
11923.8,1.31378,7.66907,0,5.96184,784,5,
11923.8,1.31897,7.67365,0,5.96184,784,5,
11923.8,1.32141,7.66754,0,5.96184,784,5,
11923.8,1.32355,7.67365,0,5.96184,784,5,
11923.8,1.32843,7.67517,0,5.96184,784,5,
11923.8,1.33392,7.67059,0,5.96184,784,5,
11923.8,1.3382,7.67212,0,5.96184,784,5,
11923.8,1.34216,7.67365,0,5.96184,784,5,
11923.8,1.34521,7.67365,0,5.96184,784,5,
11923.8,1.3501,7.67059,0,5.96184,784,5,
11923.8,1.35315,7.67059,0,5.96184,784,5,
11923.8,1.35834,7.67059,0,5.96184,784,5,
11923.8,1.36292,7.67212,0,5.96184,784,5,
11923.8,1.36749,7.67059,0,5.96184,784,5,
11923.8,1.37054,7.67212,0,5.96184,784,5,
11923.8,1.37543,7.66907,0,5.96184,784,5,
11923.8,1.37787,7.67365,0,5.96184,784,5,
11923.8,1.38336,7.67059,0,5.96184,784,5,
11923.8,1.38702,7.67059,0,5.96184,784,5,
11923.8,1.3916,7.67212,0,5.96184,784,5,
11923.8,1.39496,7.67365,0,5.96184,784,5,
11923.8,1.39771,7.67212,0,5.96184,784,5,
11923.8,1.40259,7.67212,0,5.96184,784,5,
11923.8,1.40686,7.67517,0,5.96184,784,5,
11923.8,1.41174,7.67059,0,5.96184,784,5,
11923.8,1.41602,7.67212,0,5.96184,784,5,
11923.8,1.41968,7.67059,0,5.96184,784,5,
11923.8,1.42212,7.67212,0,5.96184,784,5,
11923.8,1.42578,7.67059,0,5.96184,784,5,
11923.8,1.43158,7.67059,0,5.96184,784,5,
11923.8,1.43494,7.67059,0,5.96184,784,5,
11923.8,1.4389,7.67212,0,5.96184,784,5,
11923.8,1.44135,7.67059,0,5.96184,784,5,
11923.8,1.44562,7.66907,0,5.96184,784,5,
11923.8,1.45081,7.67059,0,5.96184,784,5,
11923.8,1.45477,7.67212,0,5.96184,784,5,
11923.8,1.45844,7.66754,0,5.96184,784,5,
11923.8,1.46179,7.67365,0,5.96184,784,5,
11923.8,1.46606,7.67365,0,5.96184,784,5,
11923.8,1.47095,7.67365,0,5.96184,784,5,
11923.8,1.47369,7.67365,0,5.96184,784,5,
11923.8,1.47644,7.67517,0,5.96184,784,5,
11923.8,1.48041,7.67365,0,5.96184,784,5,
11923.8,1.48499,7.67059,0,5.96184,784,5,
11923.8,1.48926,7.67365,0,5.96184,784,5,
11923.9,1.49231,7.66907,0,5.96184,784,5,
11923.9,1.49536,7.67059,0,5.96184,784,5,
11923.9,1.49994,7.67212,0,5.96184,784,5,
11923.9,1.50452,7.67212,0,5.96184,784,5,
11923.9,1.50726,7.67212,0,5.96184,784,5,
11923.9,1.51031,7.67365,0,5.96184,784,5,
11923.9,1.51489,7.67365,0,5.96184,784,5,
11923.9,1.51917,7.67365,0,5.96184,784,5,
11923.9,1.52039,7.67365,0,5.96184,784,5,
11923.9,1.52496,7.67059,0,5.96184,784,5,
11923.9,1.53015,7.67212,0,5.96184,784,5,
11923.9,1.53137,7.67212,0,5.96184,784,5,
11923.9,1.53503,7.67517,0,5.96184,784,5,
11923.9,1.53931,7.67365,0,5.96184,784,5,
11923.9,1.54388,7.67212,0,5.96184,784,5,
11923.9,1.54449,7.66907,0,5.96184,784,5,
11923.9,1.54877,7.67059,0,5.96184,784,5,
11923.9,1.55396,7.66907,0,5.96184,784,5,
11923.9,1.55365,7.67365,0,5.96184,784,5,
11923.9,1.55884,7.67212,0,5.96184,784,5,
11923.9,1.56281,7.67365,0,5.96184,784,5,
11923.9,1.56372,7.66907,0,5.96184,784,5,
11923.9,1.5686,7.67212,0,5.96184,784,5,
11923.9,1.57318,7.67212,0,5.96184,784,5,
11923.9,1.57349,7.66907,0,5.96184,784,5,
11923.9,1.57898,7.67059,0,5.96184,784,5,
11923.9,1.58264,7.67212,0,5.96184,784,5,
11923.9,1.58386,7.67365,0,5.96184,784,5,
11923.9,1.58783,7.67059,0,5.96184,784,5,
11923.9,1.59058,7.67059,0,5.96184,784,5,
11923.9,1.59271,7.67212,0,5.96184,784,5,
11923.9,1.59698,7.67365,0,5.96184,784,5,
11923.9,1.59821,7.66754,0,5.96184,784,5,
11923.9,1.60248,7.67212,0,5.96184,784,5,
11923.9,1.60553,7.67212,0,5.96184,784,5,
11923.9,1.60767,7.66907,0,5.96184,784,5,
11923.9,1.61194,7.67059,0,5.96184,784,5,
11923.9,1.61316,7.67212,0,5.96184,784,5,
11923.9,1.61743,7.67365,0,5.96184,784,5,
11923.9,1.61835,7.67059,0,5.96184,784,5,
11923.9,1.62262,7.67212,0,5.96184,784,5,
11923.9,1.62476,7.67365,0,5.96184,784,5,
11923.9,1.6275,7.66754,0,5.96184,784,5,
11923.9,1.62994,7.67365,0,5.96184,784,5,
11923.9,1.63177,7.67059,0,5.96184,784,5,
11923.9,1.63696,7.66907,0,5.96184,784,5,
11923.9,1.63727,7.67517,0,5.96184,784,5,
11923.9,1.64093,7.67059,0,5.96184,784,5,
11923.9,1.64246,7.67212,0,5.96184,784,5,
11923.9,1.64642,7.67059,0,5.96184,784,5,
11924,1.64734,7.67212,0,5.96184,784,5,
11924,1.65161,7.67059,0,5.96184,784,5,
11924,1.65253,7.67212,0,5.96184,784,5,
11924,1.6568,7.67365,0,5.96184,784,5,
11924,1.65771,7.67212,0,5.96184,784,5,
11924,1.66107,7.67365,0,5.96184,784,5,
11924,1.66229,7.67212,0,5.96184,784,5,
11924,1.66443,7.67517,0,5.96184,784,5,
11924,1.66687,7.67212,0,5.96184,784,5,
11924,1.66931,7.67212,0,5.96184,784,5,
11924,1.67145,7.67059,0,5.96184,784,5,
11924,1.67145,7.67059,0,5.96184,784,5,
11924,1.67694,7.67059,0,5.96184,784,5,
11924,1.67694,7.67517,0,5.96184,784,5,
11924,1.68121,7.67212,0,5.96184,784,5,
11924,1.68182,7.66907,0,5.96184,784,5,
11924,1.68365,7.66907,0,5.96184,784,5,
11924,1.68701,7.67365,0,5.96184,784,5,
11924,1.6864,7.67212,0,5.96184,784,5,
11924,1.69098,7.66907,0,5.96184,784,5,
11924,1.69098,7.67212,0,5.96184,784,5,
11924,1.69586,7.67212,0,5.96184,784,5,
11924,1.69647,7.67212,0,5.96184,784,5,
11924,1.69678,7.67365,0,5.96184,784,5,
11924,1.70074,7.66907,0,5.96184,784,5,
11924,1.70105,7.67212,0,5.96184,784,5,
11924,1.70502,7.67365,0,5.96184,784,5,
11924,1.70654,7.67365,0,5.96184,784,5,
11924,1.70563,7.67517,0,5.96184,784,5,
11924,1.71143,7.66907,0,5.96184,784,5,
11924,1.71143,7.67517,0,5.96184,784,5,
11924,1.71356,7.67059,0,5.96184,784,5,
11924,1.7157,7.67517,0,5.96184,784,5,
11924,1.71661,7.67365,0,5.96184,784,5,
11924,1.71997,7.67365,0,5.96184,784,5,
11924,1.72058,7.67212,0,5.96184,784,5,
11924,1.72119,7.67517,0,5.96184,784,5,
11924,1.72516,7.67517,0,5.96184,784,5,
11924,1.72516,7.67059,0,5.96184,784,5,
11924,1.72638,7.67059,0,5.96184,784,5,
11924,1.73096,7.67517,0,5.96184,784,5,
11924,1.73035,7.67365,0,5.96184,784,5,
11924,1.73035,7.67059,0,5.96184,784,5,
11924,1.73553,7.67365,0,5.96184,784,5,
11924,1.73523,7.66754,0,5.96184,784,5,
11924,1.73523,7.66907,0,5.96184,784,5,
11924,1.74042,7.67365,0,5.96184,784,5,
11924,1.73981,7.67059,0,5.96184,784,5,
11924,1.73981,7.66754,0,5.96184,784,5,
11924,1.74438,7.67212,0,5.96184,784,5,
11924,1.74469,7.67365,0,5.96184,784,5,
11924.1,1.745,7.67059,0,5.96184,784,5,
11924.1,1.74683,7.67212,0,5.96184,784,5,
11924.1,1.74988,7.67212,0,5.96184,784,5,
11924.1,1.75049,7.67365,0,5.96184,784,5,
11924.1,1.75049,7.67059,0,5.96184,784,5,
11924.1,1.75598,7.67059,0,5.96184,784,5,
11924.1,1.75507,7.67212,0,5.96184,784,5,
11924.1,1.75507,7.67059,0,5.96184,784,5,
11924.1,1.75751,7.67059,0,5.96184,784,5,
11924.1,1.75934,7.67212,0,5.96184,784,5,
11924.1,1.75934,7.67059,0,5.96184,784,5,
11924.1,1.76056,7.67059,0,5.96184,784,5,
11924.1,1.76453,7.67365,0,5.96184,784,5,
11924.1,1.76422,7.67517,0,5.96184,784,5,
11924.1,1.76422,7.67517,0,5.96184,784,5,
11924.1,1.76453,7.67517,0,5.96184,784,5,
11924.1,1.77002,7.67365,0,5.96184,784,5,
11924.1,1.77002,7.67517,0,5.96184,784,5,
11924.1,1.77002,7.66907,0,5.96184,784,5,
11924.1,1.77032,7.67365,0,5.96184,784,5,
11924.1,1.77399,7.66907,0,5.96184,784,5,
11924.1,1.7746,7.67059,0,5.96184,784,5,
11924.1,1.7746,7.67365,0,5.96184,784,5,
11924.1,1.7749,7.67059,0,5.96184,784,5,
11924.1,1.77795,7.67365,0,5.96184,784,5,
11924.1,1.78009,7.66907,0,5.96184,784,5,
11924.1,1.78009,7.67212,0,5.96184,784,5,
11924.1,1.77948,7.67517,0,5.96184,784,5,
11924.1,1.77948,7.67365,0,5.96184,784,5,
11924.1,1.78436,7.67059,0,5.96184,784,5,
11924.1,1.78467,7.67059,0,5.96184,784,5,
11924.1,1.78436,7.67365,0,5.96184,784,5,
11924.1,1.78467,7.67212,0,5.96184,784,5,
11924.1,1.78436,7.67365,0,5.96184,784,5,
11924.1,1.78894,7.67212,0,5.96184,784,5,
11924.1,1.78955,7.66754,0,5.96184,784,5,
11924.1,1.79047,7.67365,0,5.96184,784,5,
11924.1,1.78894,7.66754,0,5.96184,784,5,
11924.1,1.78894,7.67059,0,5.96184,784,5,
11924.1,1.78955,7.67059,0,5.96184,784,5,
11924.1,1.79413,7.67059,0,5.96184,784,5,
11924.1,1.79382,7.66907,0,5.96184,784,5,
11924.1,1.79352,7.67365,0,5.96184,784,5,
11924.1,1.79413,7.67365,0,5.96184,784,5,
11924.1,1.79382,7.67059,0,5.96184,784,5,
11924.1,1.79413,7.67365,0,5.96184,784,5,
11924.1,1.7984,7.67365,0,5.96184,784,5,
11924.1,1.79871,7.67212,0,5.96184,784,5,
11924.1,1.79871,7.67365,0,5.96184,784,5,
11924.1,1.79962,7.67212,0,5.96184,784,5,
11924.2,1.79871,7.67365,0,5.96184,784,5,
11924.2,1.79932,7.67059,0,5.96184,784,5,
11924.2,1.79871,7.67059,0,5.96184,784,5,
11924.2,1.79901,7.67059,0,5.96184,784,5,
11924.2,1.8042,7.67059,0,5.96184,784,5,
11924.2,1.8045,7.67517,0,5.96184,784,5,
11924.2,1.8042,7.67365,0,5.96184,784,5,
11924.2,1.80359,7.67212,0,5.96184,784,5,
11924.2,1.80481,7.67212,0,5.96184,784,5,
11924.2,1.8042,7.67059,0,5.96184,784,5,
11924.2,1.80359,7.67059,0,5.96184,784,5,
11924.2,1.80389,7.66907,0,5.96184,784,5,
11924.2,1.80389,7.67059,0,5.96184,784,5,
11924.2,1.80359,7.66754,0,5.96184,784,5,
11924.2,1.8042,7.67365,0,5.96184,784,5,
11924.2,1.80908,7.67517,0,5.96184,784,5,
11924.2,1.80878,7.67212,0,5.96184,784,5,
11924.2,1.80847,7.67059,0,5.96184,784,5,
11924.2,1.80908,7.67365,0,5.96184,784,5,
11924.2,1.80878,7.67059,0,5.96184,784,5,
11924.2,1.80878,7.67059,0,5.96184,784,5,
11924.2,1.80847,7.67212,0,5.96184,784,5,
11924.2,1.80878,7.67517,0,5.96184,784,5,
11924.2,1.80969,7.67059,0,5.96184,784,5,
11924.2,1.80878,7.67212,0,5.96184,784,5,
11924.2,1.80939,7.67059,0,5.96184,784,5,
11924.2,1.80939,7.67059,0,5.96184,784,5,
11924.2,1.80878,7.66907,2.558,5.96184,784,5,
11924.2,1.80908,7.67365,2.558,5.96184,784,5,
11924.2,1.80939,7.66907,2.558,5.96184,784,5,
11924.2,1.80939,7.67365,2.558,5.96184,784,5,
11924.2,1.80908,7.67517,2.558,5.96184,784,5,
11924.2,1.80908,7.67059,2.558,5.96184,784,5,
11924.2,1.80878,7.67212,2.558,5.96184,784,5,
11924.2,1.80847,7.67059,2.558,5.96184,784,5,
11924.2,1.80939,7.67517,2.558,5.96184,784,5,
11924.2,1.80878,7.67059,2.558,5.96184,784,5,
11924.2,1.80908,7.67059,2.558,5.96184,784,5,
11924.2,1.80878,7.67365,2.558,5.96184,784,5,
11924.2,1.80908,7.67059,2.558,5.96184,784,5,
11924.2,1.80939,7.67212,2.558,5.96184,784,5,
11924.2,1.80359,7.67212,2.558,5.96184,784,5,
11924.2,1.80359,7.66754,2.558,5.96184,784,5,
11924.2,1.8042,7.67365,2.558,5.96184,784,5,
11924.2,1.80389,7.67212,2.558,5.96184,784,5,
11924.2,1.80389,7.67212,2.558,5.96184,784,5,
11924.2,1.80359,7.66907,2.558,5.96184,784,5,
11924.2,1.80359,7.67059,2.558,5.96184,784,5,
11924.2,1.8045,7.67365,2.558,5.96184,784,5,
11924.2,1.80389,7.67212,2.558,5.96184,784,5,
11924.3,1.80359,7.67059,2.558,5.96184,784,5,
11924.3,1.80206,7.67059,2.558,5.96184,784,5,
11924.3,1.79871,7.67212,2.558,5.96184,784,5,
11924.3,1.79962,7.67365,2.558,5.96184,784,5,
11924.3,1.79962,7.67059,2.558,5.96184,784,5,
11924.3,1.7984,7.67212,2.558,5.96184,784,5,
11924.3,1.79901,7.67365,2.558,5.96184,784,5,
11924.3,1.79901,7.66907,2.558,5.96184,784,5,
11924.3,1.79718,7.67059,2.558,5.96184,784,5,
11924.3,1.79413,7.67212,2.558,5.96184,784,5,
11924.3,1.79413,7.67517,2.558,5.96184,784,5,
11924.3,1.79413,7.67365,2.558,5.96184,784,5,
11924.3,1.79413,7.67212,2.558,5.96184,784,5,
11924.3,1.79443,7.67059,2.558,5.96184,784,5,
11924.3,1.78925,7.66907,2.558,5.96184,784,5,
11924.3,1.78955,7.67212,2.558,5.96184,784,5,
11924.3,1.78986,7.67365,2.558,5.96184,784,5,
11924.3,1.79016,7.66907,2.558,5.96184,784,5,
11924.3,1.78894,7.67212,2.558,5.96184,784,5,
11924.3,1.78467,7.67365,2.558,5.96184,784,5,
11924.3,1.78436,7.67212,2.558,5.96184,784,5,
11924.3,1.78528,7.67059,2.558,5.96184,784,5,
11924.3,1.78467,7.67059,2.558,5.96184,784,5,
11924.3,1.7807,7.67059,2.558,5.96184,784,5,
11924.3,1.77979,7.67059,2.558,5.96184,784,5,
11924.3,1.77979,7.67059,2.558,5.96184,784,5,
11924.3,1.77979,7.67365,2.558,5.96184,784,5,
11924.3,1.7749,7.67059,2.558,5.96184,784,5,
11924.3,1.7749,7.67212,2.558,5.96184,784,5,
11924.3,1.7749,7.67517,2.558,5.96184,784,5,
11924.3,1.7746,7.67365,2.558,5.96184,784,5,
11924.3,1.76971,7.67059,2.558,5.96184,784,5,
11924.3,1.77002,7.67365,2.558,5.96184,784,5,
11924.3,1.76971,7.66907,2.558,5.96184,784,5,
11924.3,1.76544,7.67365,2.558,5.96184,784,5,
11924.3,1.76483,7.67059,2.558,5.96184,784,5,
11924.3,1.76453,7.66754,2.558,5.96184,784,5,
11924.3,1.763,7.66907,2.558,5.96184,784,5,
11924.3,1.75995,7.67365,2.558,5.96184,784,5,
11924.3,1.75934,7.67365,2.558,5.96184,784,5,
11924.3,1.75781,7.66907,2.558,5.96184,784,5,
11924.3,1.75537,7.67059,2.558,5.96184,784,5,
11924.3,1.75446,7.67059,2.558,5.96184,784,5,
11924.3,1.75323,7.66907,2.558,5.96184,784,5,
11924.3,1.75049,7.67212,2.558,5.96184,784,5,
11924.3,1.75049,7.67365,2.558,5.96184,784,5,
11924.3,1.7453,7.66907,2.558,5.96184,784,5,
11924.3,1.7453,7.66907,2.558,5.96184,784,5,
11924.3,1.74561,7.67365,2.558,5.96184,784,5,
11924.4,1.73981,7.67059,2.558,5.96184,784,5,
11924.4,1.74072,7.66907,2.558,5.96184,784,5,
11924.4,1.73859,7.67212,2.558,5.96184,784,5,
11924.4,1.73492,7.67365,2.558,5.96184,784,5,
11924.4,1.73553,7.67212,2.558,5.96184,784,5,
11924.4,1.73035,7.67059,2.558,5.96184,784,5,
11924.4,1.73004,7.67059,2.558,5.96184,784,5,
11924.4,1.72791,7.67059,2.558,5.96184,784,5,
11924.4,1.72516,7.67059,2.558,5.96184,784,5,
11924.4,1.72516,7.67365,2.558,5.96184,784,5,
11924.4,1.72058,7.67365,2.558,5.96184,784,5,
11924.4,1.7215,7.67212,2.558,5.96184,784,5,
11924.4,1.71692,7.66754,2.558,5.96184,784,5,
11924.4,1.71539,7.67212,2.558,5.96184,784,5,
11924.4,1.71387,7.67365,2.558,5.96184,784,5,
11924.4,1.71143,7.67059,2.558,5.96184,784,5,
11924.4,1.70898,7.67517,2.558,5.96184,784,5,
11924.4,1.70654,7.67517,2.558,5.96184,784,5,
11924.4,1.70593,7.66907,2.558,5.96184,784,5,
11924.4,1.70135,7.67212,2.558,5.96184,784,5,
11924.4,1.70166,7.67059,2.558,5.96184,784,5,
11924.4,1.69617,7.66907,2.558,5.96184,784,5,
11924.4,1.69617,7.67212,2.558,5.96184,784,5,
11924.4,1.69098,7.66907,2.558,5.96184,784,5,
11924.4,1.69159,7.67212,2.558,5.96184,784,5,
11924.4,1.68701,7.67212,2.558,5.96184,784,5,
11924.4,1.6861,7.67365,2.558,5.96184,784,5,
11924.4,1.68213,7.67517,2.558,5.96184,784,5,
11924.4,1.68121,7.67059,2.558,5.96184,784,5,
11924.4,1.67633,7.66754,2.558,5.96184,784,5,
11924.4,1.67694,7.67059,2.558,5.96184,784,5,
11924.4,1.67145,7.67365,2.558,5.96184,784,5,
11924.4,1.6684,7.67212,2.558,5.96184,784,5,
11924.4,1.66687,7.67365,2.558,5.96184,784,5,
11924.4,1.66382,7.67212,2.558,5.96184,784,5,
11924.4,1.66168,7.67212,2.558,5.96184,784,5,
11924.4,1.65894,7.67059,2.558,5.96184,784,5,
11924.4,1.6568,7.67517,2.558,5.96184,784,5,
11924.4,1.65283,7.67212,2.558,5.96184,784,5,
11924.4,1.65161,7.67365,2.558,5.96184,784,5,
11924.4,1.64673,7.67365,2.558,5.96184,784,5,
11924.4,1.64734,7.67212,2.558,5.96184,784,5,
11924.4,1.64246,7.67212,2.558,5.96184,784,5,
11924.4,1.64246,7.67365,2.558,5.96184,784,5,
11924.4,1.63666,7.6767,2.558,5.96184,784,5,
11924.4,1.63483,7.67212,2.558,5.96184,784,5,
11924.4,1.63239,7.66907,2.558,5.96184,784,5,
11924.4,1.62903,7.67365,2.558,5.96184,784,5,
11924.4,1.62811,7.67059,2.558,5.96184,784,5,
11924.4,1.62292,7.67365,2.558,5.96184,784,5,
11924.5,1.62292,7.67365,2.558,5.96184,784,5,
11924.5,1.61804,7.67059,2.558,5.96184,784,5,
11924.5,1.61743,7.67059,2.558,5.96184,784,5,
11924.5,1.61285,7.66907,2.558,5.96184,784,5,
11924.5,1.61041,7.67212,2.558,5.96184,784,5,
11924.5,1.60797,7.67212,2.558,5.96184,784,5,
11924.5,1.60309,7.66907,2.558,5.96184,784,5,
11924.5,1.60309,7.67059,2.558,5.96184,784,5,
11924.5,1.5979,7.67212,2.558,5.96184,784,5,
11924.5,1.5979,7.67212,2.558,5.96184,784,5,
11924.5,1.59332,7.67059,2.558,5.96184,784,5,
11924.5,1.59027,7.67365,2.558,5.96184,784,5,
11924.5,1.58905,7.66602,2.558,5.96184,784,5,
11924.5,1.58356,7.67212,2.558,5.96184,784,5,
11924.5,1.58325,7.67059,2.558,5.96184,784,5,
11924.5,1.57898,7.67212,2.558,5.96184,784,5,
11924.5,1.57806,7.67059,2.558,5.96184,784,5,
11924.5,1.57379,7.66907,2.558,5.96184,784,5,
11924.5,1.57166,7.67517,2.558,5.96184,784,5,
11924.5,1.5686,7.67212,2.558,5.96184,784,5,
11924.5,1.56433,7.67212,2.558,5.96184,784,5,
11924.5,1.56342,7.67059,2.558,5.96184,784,5,
11924.5,1.55945,7.67212,2.558,5.96184,784,5,
11924.5,1.5564,7.67059,2.558,5.96184,784,5,
11924.5,1.55365,7.67365,2.558,5.96184,784,5,
11924.5,1.54999,7.67212,2.558,5.96184,784,5,
11924.5,1.54907,7.67365,2.558,5.96184,784,5,
11924.5,1.5448,7.67365,2.558,5.96184,784,5,
11924.5,1.54449,7.66907,2.558,5.96184,784,5,
11924.5,1.53961,7.67212,2.558,5.96184,784,5,
11924.5,1.53656,7.67059,2.558,5.96184,784,5,
11924.5,1.53473,7.6767,2.558,5.96184,784,5,
11924.5,1.53046,7.67059,2.558,5.96184,784,5,
11924.5,1.52924,7.67059,2.558,5.96184,784,5,
11924.5,1.52527,7.67365,2.558,5.96184,784,5,
11924.5,1.52466,7.67059,2.558,5.96184,784,5,
11924.5,1.51947,7.66907,2.558,5.96184,784,5,
11924.5,1.51703,7.67517,2.558,5.96184,784,5,
11924.5,1.51428,7.66907,2.558,5.96184,784,5,
11924.5,1.51031,7.67059,2.558,5.96184,784,5,
11924.5,1.51062,7.67365,2.558,5.96184,784,5,
11924.5,1.50513,7.66907,2.558,5.96184,784,5,
11924.5,1.50299,7.67212,2.558,5.96184,784,5,
11924.5,1.50085,7.66907,2.558,5.96184,784,5,
11924.5,1.49567,7.67059,2.558,5.96184,784,5,
11924.5,1.49567,7.67517,2.558,5.96184,784,5,
11924.5,1.49078,7.67212,2.558,5.96184,784,5,
11924.5,1.49017,7.67365,2.558,5.96184,784,5,
11924.5,1.48529,7.66907,2.558,5.96184,784,5,
11924.5,1.48621,7.67212,2.558,5.96184,784,5,
11924.5,1.48102,7.67059,2.558,5.96184,784,5,
11924.6,1.47827,7.67517,2.558,5.96184,784,5,
11924.6,1.47583,7.67059,2.558,5.96184,784,5,
11924.6,1.47156,7.66907,2.558,5.96184,784,5,
11924.6,1.47034,7.67059,2.558,5.96184,784,5,
11924.6,1.46606,7.67365,2.558,5.96184,784,5,
11924.6,1.46576,7.67212,2.558,5.96184,784,5,
11924.6,1.46149,7.67059,2.558,5.96184,784,5,
11924.6,1.45996,7.67365,2.558,5.96184,784,5,
11924.6,1.4563,7.67365,2.558,5.96184,784,5,
11924.6,1.45355,7.67365,2.558,5.96184,784,5,
11924.6,1.45172,7.67212,2.558,5.96184,784,5,
11924.6,1.44714,7.67365,2.558,5.96184,784,5,
11924.6,1.44684,7.67517,2.558,5.96184,784,5,
11924.6,1.44135,7.67365,2.558,5.96184,784,5,
11924.6,1.44165,7.67517,2.558,5.96184,784,5,
11924.6,1.43616,7.67365,2.558,5.96184,784,5,
11924.6,1.43677,7.67365,2.558,5.96184,784,5,
11924.6,1.43158,7.67365,2.558,5.96184,784,5,
11924.6,1.42853,7.66907,2.558,5.96184,784,5,
11924.6,1.4267,7.67212,2.558,5.96184,784,5,
11924.6,1.42395,7.67059,2.558,5.96184,784,5,
11924.6,1.42181,7.67365,2.558,5.96184,784,5,
11924.6,1.41693,7.67059,2.558,5.96184,784,5,
11924.6,1.41663,7.67059,2.558,5.96184,784,5,
11924.6,1.41266,7.67212,2.558,5.96184,784,5,
11924.6,1.41174,7.67212,2.558,5.96184,784,5,
11924.6,1.40717,7.67212,2.558,5.96184,784,5,
11924.6,1.40686,7.67365,2.558,5.96184,784,5,
11924.6,1.40198,7.67365,2.558,5.96184,784,5,
11924.6,1.40259,7.67059,2.558,5.96184,784,5,
11924.6,1.39771,7.67059,2.558,5.96184,784,5,
11924.6,1.39771,7.66907,2.558,5.96184,784,5,
11924.6,1.39252,7.66907,2.558,5.96184,784,5,
11924.6,1.39221,7.67212,2.558,5.96184,784,5,
11924.6,1.38794,7.67365,2.558,5.96184,784,5,
11924.6,1.38702,7.67059,2.558,5.96184,784,5,
11924.6,1.38336,7.66907,2.558,5.96184,784,5,
11924.6,1.38275,7.67365,2.558,5.96184,784,5,
11924.6,1.37787,7.66907,2.558,5.96184,784,5,
11924.6,1.37817,7.67059,2.558,5.96184,784,5,
11924.6,1.3736,7.67365,2.558,5.96184,784,5,
11924.6,1.37268,7.66907,2.558,5.96184,784,5,
11924.6,1.36871,7.67517,2.558,5.96184,784,5,
11924.6,1.3681,7.67365,2.558,5.96184,784,5,
11924.6,1.36444,7.67212,2.558,5.96184,784,5,
11924.6,1.36353,7.67212,2.558,5.96184,784,5,
11924.6,1.36078,7.67059,2.558,5.96184,784,5,
11924.6,1.35834,7.67212,2.558,5.96184,784,5,
11924.6,1.35803,7.66907,2.558,5.96184,784,5,
11924.6,1.35284,7.67059,2.558,5.96184,784,5,
11924.7,1.35345,7.66754,2.558,5.96184,784,5,
11924.7,1.34857,7.67365,2.558,5.96184,784,5,
11924.7,1.34888,7.67365,2.558,5.96184,784,5,
11924.7,1.3443,7.67059,2.558,5.96184,784,5,
11924.7,1.34399,7.67059,2.558,5.96184,784,5,
11924.7,1.34125,7.67059,2.558,5.96184,784,5,
11924.7,1.33881,7.67517,2.558,5.96184,784,5,
11924.7,1.3385,7.67059,2.558,5.96184,784,5,
11924.7,1.33423,7.66907,2.558,5.96184,784,5,
11924.7,1.33301,7.67212,2.558,5.96184,784,5,
11924.7,1.32874,7.67059,2.558,5.96184,784,5,
11924.7,1.32935,7.67059,2.558,5.96184,784,5,
11924.7,1.32446,7.67059,2.558,5.96184,784,5,
11924.7,1.32385,7.67059,2.558,5.96184,784,5,
11924.7,1.32416,7.67212,2.558,5.96184,784,5,
11924.7,1.31897,7.67212,2.558,5.96184,784,5,
11924.7,1.31897,7.67365,2.558,5.96184,784,5,
11924.7,1.31439,7.67365,2.558,5.96184,784,5,
11924.7,1.31378,7.67517,2.558,5.96184,784,5,
11924.7,1.31226,7.67365,2.558,5.96184,784,5,
11924.7,1.3092,7.67517,2.558,5.96184,784,5,
11924.7,1.30829,7.67517,2.558,5.96184,784,5,
11924.7,1.30463,7.67059,2.558,5.96184,784,5,
11924.7,1.30493,7.67365,2.558,5.96184,784,5,
11924.7,1.30157,7.67059,2.558,5.96184,784,5,
11924.7,1.29974,7.67517,2.558,5.96184,784,5,
11924.7,1.29944,7.67059,2.558,5.96184,784,5,
11924.7,1.29456,7.67059,2.558,5.96184,784,5,
11924.7,1.29486,7.67517,2.558,5.96184,784,5,
11924.7,1.29242,7.67212,2.558,5.96184,784,5,
11924.7,1.28967,7.67212,2.558,5.96184,784,5,
11924.7,1.28998,7.67365,2.558,5.96184,784,5,
11924.7,1.28571,7.66907,2.558,5.96184,784,5,
11924.7,1.28448,7.67365,2.558,5.96184,784,5,
11924.7,1.28479,7.67059,2.558,5.96184,784,5,
11924.7,1.2793,7.67365,2.558,5.96184,784,5,
11924.7,1.28021,7.66907,2.558,5.96184,784,5,
11924.7,1.27533,7.67059,2.558,5.96184,784,5,
11924.7,1.27472,7.66754,2.558,5.96184,784,5,
11924.7,1.27441,7.67059,2.558,5.96184,784,5,
11924.7,1.26984,7.67059,2.558,5.96184,784,5,
11924.7,1.26984,7.67365,2.558,5.96184,784,5,
11924.7,1.27014,7.67212,2.558,5.96184,784,5,
11924.7,1.26495,7.67365,2.558,5.96184,784,5,
11924.7,1.26495,7.67365,2.558,5.96184,784,5,
11924.7,1.26282,7.66602,2.558,5.96184,784,5,
11924.7,1.26099,7.66907,2.558,5.96184,784,5,
11924.7,1.26068,7.66754,2.558,5.96184,784,5,
11924.7,1.2558,7.66907,2.558,5.96184,784,5,
11924.8,1.25519,7.67059,2.558,5.96184,784,5,
11924.8,1.25458,7.67517,2.558,5.96184,784,5,
11924.8,1.25183,7.67212,2.558,5.96184,784,5,
11924.8,1.25061,7.67212,2.558,5.96184,784,5,
11924.8,1.25031,7.67365,2.558,5.96184,784,5,
11924.8,1.24573,7.67059,2.558,5.96184,784,5,
11924.8,1.24573,7.67212,2.558,5.96184,784,5,
11924.8,1.24603,7.67212,2.558,5.96184,784,5,
11924.8,1.24084,7.67365,2.558,5.96184,784,5,
11924.8,1.24054,7.67059,2.558,5.96184,784,5,
11924.8,1.24054,7.67059,2.558,5.96184,784,5,
11924.8,1.23566,7.67365,2.558,5.96184,784,5,
11924.8,1.23566,7.67517,2.558,5.96184,784,5,
11924.8,1.23535,7.67517,2.558,5.96184,784,5,
11924.8,1.23169,7.67212,2.558,5.96184,784,5,
11924.8,1.23108,7.66907,2.558,5.96184,784,5,
11924.8,1.23108,7.67212,2.558,5.96184,784,5,
11924.8,1.2262,7.66907,2.558,5.96184,784,5,
11924.8,1.2265,7.67212,2.558,5.96184,784,5,
11924.8,1.22589,7.67212,2.558,5.96184,784,5,
11924.8,1.22314,7.67212,2.558,5.96184,784,5,
11924.8,1.22131,7.67212,2.558,5.96184,784,5,
11924.8,1.22131,7.67212,2.558,5.96184,784,5,
11924.8,1.2207,7.67517,2.558,5.96184,784,5,
11924.8,1.21674,7.66754,2.558,5.96184,784,5,
11924.8,1.21674,7.66144,2.558,5.96184,784,5,
11924.8,1.21643,7.66144,2.558,5.96184,784,5,
11924.8,1.21094,7.65839,2.558,5.96184,784,5,
11924.8,1.21124,7.66144,2.558,5.96184,784,5,
11924.8,1.21124,7.65991,2.558,5.96184,784,5,
11924.8,1.2088,7.65686,2.558,5.96184,784,5,
11924.8,1.20605,7.65991,2.558,5.96184,784,5,
11924.8,1.20605,7.66449,2.558,5.96184,784,5,
11924.8,1.20636,7.65839,2.558,5.96184,784,5,
11924.8,1.20178,7.65839,2.558,5.96184,784,5,
11924.8,1.20117,7.66296,2.558,5.96184,784,5,
11924.8,1.20178,7.66144,2.558,5.96184,784,5,
11924.8,1.20178,7.65991,2.558,5.96184,784,5,
11924.8,1.19568,7.65839,2.558,5.96184,784,5,
11924.8,1.19629,7.65686,2.558,5.96184,784,5,
11924.8,1.1969,7.65991,2.558,5.96184,784,5,
11924.8,1.19476,7.66144,2.558,5.96184,784,5,
11924.8,1.19171,7.65991,2.558,5.96184,784,5,
11924.8,1.19202,7.65991,2.558,5.96184,784,5,
11924.8,1.19141,7.65991,2.558,5.96184,784,5,
11924.8,1.18774,7.65991,2.558,5.96184,784,5,
11924.8,1.18622,7.65991,2.558,5.96184,784,5,
11924.8,1.18713,7.65839,2.558,5.96184,784,5,
11924.8,1.18713,7.66144,2.558,5.96184,784,5,
11924.8,1.18225,7.66144,2.558,5.96184,784,5,
11924.9,1.18195,7.65839,2.558,5.96184,784,5,
11924.9,1.18256,7.66144,2.558,5.96184,784,5,
11924.9,1.18225,7.65991,2.558,5.96184,784,5,
11924.9,1.17798,7.65839,2.558,5.96184,784,5,
11924.9,1.17767,7.65686,2.558,5.96184,784,5,
11924.9,1.17645,7.65839,2.558,5.96184,784,5,
11924.9,1.17706,7.65839,2.558,5.96184,784,5,
11924.9,1.17462,7.65991,2.558,5.96184,784,5,
11924.9,1.17249,7.65991,2.558,5.96184,784,5,
11924.9,1.17218,7.65991,2.558,5.96184,784,5,
11924.9,1.17249,7.65991,2.558,5.96184,784,5,
11924.9,1.17188,7.65991,2.558,5.96184,784,5,
11924.9,1.16699,7.65686,2.558,5.96184,784,5,
11924.9,1.16699,7.66144,2.558,5.96184,784,5,
11924.9,1.16699,7.65839,2.558,5.96184,784,5,
11924.9,1.16638,7.66296,2.558,5.96184,784,5,
11924.9,1.16455,7.65839,2.558,5.96184,784,5,
11924.9,1.16241,7.65991,2.558,5.96184,784,5,
11924.9,1.16211,7.65991,2.558,5.96184,784,5,
11924.9,1.16211,7.65839,2.558,5.96184,784,5,
11924.9,1.16211,7.66144,2.558,5.96184,784,5,
11924.9,1.15723,7.65839,2.558,5.96184,784,5,
11924.9,1.15723,7.66144,2.558,5.96184,784,5,
11924.9,1.15784,7.65534,2.558,5.96184,784,5,
11924.9,1.15723,7.65839,2.558,5.96184,784,5,
11924.9,1.15723,7.65991,2.558,5.96184,784,5,
11924.9,1.15356,7.65839,2.558,5.96184,784,5,
11924.9,1.15234,7.65991,2.558,5.96184,784,5,
11924.9,1.15204,7.65839,2.558,5.96184,784,5,
11924.9,1.15265,7.65839,2.558,5.96184,784,5,
11924.9,1.15265,7.65534,2.558,5.96184,784,5,
11924.9,1.15234,7.66144,2.558,5.96184,784,5,
11924.9,1.14746,7.66144,2.558,5.96184,784,5,
11924.9,1.14746,7.65991,2.558,5.96184,784,5,
11924.9,1.14746,7.65991,2.558,5.96184,784,5,
11924.9,1.14716,7.65839,2.558,5.96184,784,5,
11924.9,1.14777,7.65839,2.558,5.96184,784,5,
11924.9,1.14319,7.66144,2.558,5.96184,784,5,
11924.9,1.14288,7.66296,2.558,5.96184,784,5,
11924.9,1.14288,7.65839,2.558,5.96184,784,5,
11924.9,1.14258,7.65839,2.558,5.96184,784,5,
11924.9,1.14258,7.65839,2.558,5.96184,784,5,
11924.9,1.14258,7.65839,2.558,5.96184,784,5,
11924.9,1.13831,7.66144,2.558,5.96184,784,5,
11924.9,1.1377,7.65839,2.558,5.96184,784,5,
11924.9,1.13739,7.65991,2.558,5.96184,784,5,
11924.9,1.13739,7.65839,2.558,5.96184,784,5,
11924.9,1.13739,7.66144,2.558,5.96184,784,5,
11924.9,1.138,7.65839,2.558,5.96184,784,5,
11924.9,1.1377,7.65686,2.558,5.96184,784,5,
11925,1.13251,7.66144,2.558,5.96184,784,5,
11925,1.13159,7.65839,2.558,5.96184,784,5,
11925,1.13281,7.65991,2.558,5.96184,784,5,
11925,1.13251,7.66144,2.558,5.96184,784,5,
11925,1.1319,7.66144,2.558,5.96184,784,5,
11925,1.13251,7.65686,2.558,5.96184,784,5,
11925,1.13251,7.65991,2.558,5.96184,784,5,
11925,1.12732,7.66144,2.558,5.96184,784,5,
11925,1.12823,7.65991,2.558,5.96184,784,5,
11925,1.12762,7.66144,2.558,5.96184,784,5,
11925,1.12793,7.65991,2.558,5.96184,784,5,
11925,1.12732,7.65839,2.558,5.96184,784,5,
11925,1.12793,7.65991,2.558,5.96184,784,5,
11925,1.12762,7.66144,2.558,5.96184,784,5,
11925,1.12396,7.65991,2.558,5.96184,784,5,
11925,1.12305,7.65991,2.558,5.96184,784,5,
11925,1.12305,7.65991,2.558,5.96184,784,5,
11925,1.12335,7.65839,2.558,5.96184,784,5,
11925,1.12305,7.65686,2.558,5.96184,784,5,
11925,1.12183,7.65991,2.558,5.96184,784,5,
11925,1.12305,7.65991,2.558,5.96184,784,5,
11925,1.12305,7.65991,2.558,5.96184,784,5,
11925,1.11847,7.66144,2.558,5.96184,784,5,
11925,1.11786,7.65839,2.558,5.96184,784,5,
11925,1.11755,7.65839,2.558,5.96184,784,5,
11925,1.11755,7.66144,2.558,5.96184,784,5,
11925,1.11816,7.65686,2.558,5.96184,784,5,
11925,1.11816,7.65839,2.558,5.96184,784,5,
11925,1.11816,7.66144,2.558,5.96184,784,5,
11925,1.11725,7.65991,2.558,5.96184,784,5,
11925,1.11786,7.65991,2.558,5.96184,784,5,
11925,1.11267,7.65839,2.558,5.96184,784,5,
11925,1.11298,7.65991,2.558,5.96184,784,5,
11925,1.11267,7.65991,2.558,5.96184,784,5,
11925,1.11298,7.65991,2.558,5.96184,784,5,
11925,1.11267,7.66144,2.558,5.96184,784,5,
11925,1.11328,7.65686,2.558,5.96184,784,5,
11925,1.11328,7.65991,2.558,5.96184,784,5,
11925,1.11267,7.65839,2.558,5.96184,784,5,
11925,1.10901,7.65991,2.558,5.96184,784,5,
11925,1.1087,7.65839,2.558,5.96184,784,5,
11925,1.1087,7.65839,2.558,5.96184,784,5,
11925,1.1087,7.65991,2.558,5.96184,784,5,
11925,1.1084,7.66144,2.558,5.96184,784,5,
11925,1.1084,7.65839,2.558,5.96184,784,5,
11925,1.10901,7.65686,2.558,5.96184,784,5,
11925,1.10809,7.65839,2.558,5.96184,784,5,
11925,1.1084,7.65991,2.558,5.96184,784,5,
11925,1.10352,7.65839,2.558,5.96184,784,5,
11925,1.10291,7.65991,2.558,5.96184,784,5,
11925,1.10352,7.65991,2.558,5.96184,784,5,
11925.1,1.10352,7.66144,2.558,5.96184,784,5,
11925.1,1.10413,7.65991,2.558,5.96184,784,5,
11925.1,1.10382,7.65991,2.558,5.96184,784,5,
11925.1,1.10352,7.66144,2.558,5.96184,784,5,
11925.1,1.10107,7.65991,2.558,5.96184,784,5,
11925.1,1.09833,7.65991,2.558,5.96184,784,5,
11925.1,1.09833,7.66144,2.558,5.96184,784,5,
11925.1,1.09924,7.66144,2.558,5.96184,784,5,
11925.1,1.09833,7.65839,2.558,5.96184,784,5,
11925.1,1.09833,7.65991,2.558,5.96184,784,5,
11925.1,1.09894,7.66144,2.558,5.96184,784,5,
11925.1,1.0968,7.66296,2.558,5.96184,784,5,
11925.1,1.09344,7.65839,2.558,5.96184,784,5,
11925.1,1.09344,7.65839,2.558,5.96184,784,5,
11925.1,1.09375,7.65991,2.558,5.96184,784,5,
11925.1,1.09344,7.66144,2.558,5.96184,784,5,
11925.1,1.09406,7.65991,2.558,5.96184,784,5,
11925.1,1.09375,7.65839,2.558,5.96184,784,5,
11925.1,1.08856,7.65686,2.558,5.96184,784,5,
11925.1,1.08917,7.65686,2.558,5.96184,784,5,
11925.1,1.08948,7.66144,2.558,5.96184,784,5,
11925.1,1.08887,7.65839,2.558,5.96184,784,5,
11925.1,1.08917,7.65839,2.558,5.96184,784,5,
11925.1,1.08612,7.65839,2.558,5.96184,784,5,
11925.1,1.08337,7.66144,2.558,5.96184,784,5,
11925.1,1.08429,7.65991,2.558,5.96184,784,5,
11925.1,1.08429,7.65839,2.558,5.96184,784,5,
11925.1,1.08459,7.65686,2.558,5.96184,784,5,
11925.1,1.08398,7.66144,2.558,5.96184,784,5,
11925.1,1.0791,7.66144,2.558,5.96184,784,5,
11925.1,1.07941,7.65839,2.558,5.96184,784,5,
11925.1,1.0788,7.65839,2.558,5.96184,784,5,
11925.1,1.0788,7.65686,2.558,5.96184,784,5,
11925.1,1.07666,7.65991,2.558,5.96184,784,5,
11925.1,1.07452,7.66144,2.558,5.96184,784,5,
11925.1,1.07361,7.65839,2.558,5.96184,784,5,
11925.1,1.07483,7.66296,2.558,5.96184,784,5,
11925.1,1.07361,7.65839,2.558,5.96184,784,5,
11925.1,1.06934,7.65991,2.558,5.96184,784,5,
11925.1,1.06964,7.66144,2.558,5.96184,784,5,
11925.1,1.06873,7.65991,2.558,5.96184,784,5,
11925.1,1.06934,7.65991,2.558,5.96184,784,5,
11925.1,1.06506,7.66144,2.558,5.96184,784,5,
11925.1,1.06445,7.65839,2.558,5.96184,784,5,
11925.1,1.06476,7.65839,2.558,5.96184,784,5,
11925.1,1.05988,7.65991,2.558,5.96184,784,5,
11925.1,1.05988,7.65991,2.558,5.96184,784,5,
11925.1,1.05988,7.65686,2.558,5.96184,784,5,
11925.1,1.05713,7.65839,2.558,5.96184,784,5,
11925.1,1.05469,7.65839,2.558,5.96184,784,5,
11925.2,1.05469,7.65686,2.558,5.96184,784,5,
11925.2,1.05164,7.65686,2.558,5.96184,784,5,
11925.2,1.04889,7.64465,2.558,5.96184,784,5,
11925.2,1.0495,7.64771,2.558,5.96184,784,5,
11925.2,1.04584,7.64771,2.558,5.96184,784,5,
11925.2,1.04492,7.64771,2.558,5.96184,784,5,
11925.2,1.0437,7.64771,2.558,5.96184,784,5,
11925.2,1.03943,7.64618,2.558,5.96184,784,5,
11925.2,1.04004,7.64771,2.558,5.96184,784,5,
11925.2,1.03546,7.64618,2.558,5.96184,784,5,
11925.2,1.03455,7.64465,2.558,5.96184,784,5,
11925.2,1.0318,7.64618,2.558,5.96184,784,5,
11925.2,1.02966,7.64771,2.558,5.96184,784,5,
11925.2,1.02722,7.64771,2.558,5.96184,784,5,
11925.2,1.02417,7.64465,2.558,5.96184,784,5,
11925.2,1.02264,7.64923,2.558,5.96184,784,5,
11925.2,1.02051,7.64771,2.558,5.96184,784,5,
11925.2,1.01746,7.64618,2.558,5.96184,784,5,
11925.2,1.01501,7.64771,2.558,5.96184,784,5,
11925.2,1.01135,7.64923,2.558,5.96184,784,5,
11925.2,1.01044,7.64618,2.558,5.96184,784,5,
11925.2,1.00586,7.64465,2.558,5.96184,784,5,
11925.2,1.00494,7.64923,2.558,5.96184,784,5,
11925.2,1.00128,7.64771,2.558,5.96184,784,5,
11925.2,0.998535,7.65076,2.558,5.96184,784,5,
11925.2,0.995483,7.64771,2.558,5.96184,784,5,
11925.2,0.991211,7.64771,2.558,5.96184,784,5,
11925.2,0.988464,7.64923,2.558,5.96184,784,5,
11925.2,0.985718,7.64618,2.558,5.96184,784,5,
11925.2,0.982056,7.64771,2.558,5.96184,784,5,
11925.2,0.98114,7.64771,2.558,5.96184,784,5,
11925.2,0.975342,7.64771,2.558,5.96184,784,5,
11925.2,0.970764,7.64771,2.558,5.96184,784,5,
11925.2,0.968933,7.64923,2.558,5.96184,784,5,
11925.2,0.966492,7.64618,2.558,5.96184,784,5,
11925.2,0.961609,7.64771,2.558,5.96184,784,5,
11925.2,0.956726,7.65228,2.558,5.96184,784,5,
11925.2,0.955811,7.64618,2.558,5.96184,784,5,
11925.2,0.950928,7.64618,2.558,5.96184,784,5,
11925.2,0.946655,7.65076,2.558,5.96184,784,5,
11925.2,0.941772,7.65076,2.558,5.96184,784,5,
11925.2,0.940857,7.64465,2.558,5.96184,784,5,
11925.2,0.936584,7.65076,2.558,5.96184,784,5,
11925.2,0.932007,7.64618,2.558,5.96184,784,5,
11925.2,0.927734,7.64618,2.558,5.96184,784,5,
11925.2,0.924683,7.64618,2.558,5.96184,784,5,
11925.2,0.922241,7.64771,2.558,5.96184,784,5,
11925.2,0.916748,7.64618,2.558,5.96184,784,5,
11925.2,0.912476,7.64923,2.558,5.96184,784,5,
11925.2,0.907898,7.64771,2.558,5.96184,784,5,
11925.3,0.904846,7.64771,2.558,5.96184,784,5,
11925.3,0.899963,7.64771,2.558,5.96184,784,5,
11925.3,0.897827,7.64618,2.558,5.96184,784,5,
11925.3,0.892944,7.64923,2.558,5.96184,784,5,
11925.3,0.887451,7.64771,2.558,5.96184,784,5,
11925.3,0.883179,7.64618,2.558,5.96184,784,5,
11925.3,0.878601,7.64618,2.558,5.96184,784,5,
11925.3,0.875549,7.64771,2.558,5.96184,784,5,
11925.3,0.871277,7.64771,2.558,5.96184,784,5,
11925.3,0.86792,7.64923,2.558,5.96184,784,5,
11925.3,0.863342,7.64923,2.558,5.96184,784,5,
11925.3,0.857849,7.64771,2.558,5.96184,784,5,
11925.3,0.853577,7.65228,2.558,5.96184,784,5,
11925.3,0.848999,7.64465,2.558,5.96184,784,5,
11925.3,0.844116,7.64923,2.558,5.96184,784,5,
11925.3,0.838928,7.65076,2.558,5.96184,784,5,
11925.3,0.836182,7.64618,2.558,5.96184,784,5,
11925.3,0.831604,7.64618,2.558,5.96184,784,5,
11925.3,0.826111,7.64771,2.558,5.96184,784,5,
11925.3,0.82428,7.64618,2.558,5.96184,784,5,
11925.3,0.819397,7.64771,2.558,5.96184,784,5,
11925.3,0.813599,7.64923,2.558,5.96184,784,5,
11925.3,0.809021,7.64771,2.558,5.96184,784,5,
11925.3,0.804138,7.64923,2.558,5.96184,784,5,
11925.3,0.800171,7.64771,2.558,5.96184,784,5,
11925.3,0.795288,7.64923,2.558,5.96184,784,5,
11925.3,0.789795,7.64923,2.558,5.96184,784,5,
11925.3,0.784607,7.64923,2.558,5.96184,784,5,
11925.3,0.78064,7.64618,2.558,5.96184,784,5,
11925.3,0.775757,7.64923,2.558,5.96184,784,5,
11925.3,0.770264,7.64465,2.558,5.96184,784,5,
11925.3,0.765686,7.64618,2.558,5.96184,784,5,
11925.3,0.760193,7.64618,2.558,5.96184,784,5,
11925.3,0.75592,7.64923,2.558,5.96184,784,5,
11925.3,0.750732,7.64618,2.558,5.96184,784,5,
11925.3,0.746155,7.64618,2.558,5.96184,784,5,
11925.3,0.741272,7.64771,2.558,5.96184,784,5,
11925.3,0.736389,7.64923,2.558,5.96184,784,5,
11925.3,0.731812,7.64771,2.558,5.96184,784,5,
11925.3,0.726318,7.64923,2.558,5.96184,784,5,
11925.3,0.722046,7.64923,2.558,5.96184,784,5,
11925.3,0.716553,7.64771,2.558,5.96184,784,5,
11925.3,0.71167,7.64923,2.558,5.96184,784,5,
11925.3,0.706482,7.64313,2.558,5.96184,784,5,
11925.3,0.701294,7.64618,2.558,5.96184,784,5,
11925.3,0.695801,7.64465,2.558,5.96184,784,5,
11925.3,0.692444,7.64923,2.558,5.96184,784,5,
11925.3,0.684204,7.64771,2.558,5.96184,784,5,
11925.3,0.679321,7.64618,2.558,5.96184,784,5,
11925.4,0.672913,7.64618,2.558,5.96184,784,5,
11925.4,0.667114,7.64771,2.558,5.96184,784,5,
11925.4,0.662231,7.65076,2.558,5.96184,784,5,
11925.4,0.654907,7.64771,2.558,5.96184,784,5,
11925.4,0.648499,7.64771,2.558,5.96184,784,5,
11925.4,0.64209,7.64771,2.558,5.96184,784,5,
11925.4,0.635071,7.64771,2.558,5.96184,784,5,
11925.4,0.627747,7.64618,2.558,5.96184,784,5,
11925.4,0.620422,7.64771,2.558,5.96184,784,5,
11925.4,0.614319,7.64771,2.558,5.96184,784,5,
11925.4,0.606384,7.64771,2.558,5.96184,784,5,
11925.4,0.59967,7.64618,2.558,5.96184,784,5,
11925.4,0.591431,7.64771,2.558,5.96184,784,5,
11925.4,0.583801,7.64465,2.558,5.96184,784,5,
11925.4,0.574646,7.64618,2.558,5.96184,784,5,
11925.4,0.566101,7.64771,2.558,5.96184,784,5,
11925.4,0.557251,7.64771,2.558,5.96184,784,5,
11925.4,0.549622,7.64923,2.558,5.96184,784,5,
11925.4,0.539246,7.64313,2.558,5.96184,784,5,
11925.4,0.532227,7.64923,2.558,5.96184,784,5,
11925.4,0.523071,7.64618,2.558,5.96184,784,5,
11925.4,0.513306,7.64923,2.558,5.96184,784,5,
11925.4,0.503235,7.64771,2.558,5.96184,784,5,
11925.4,0.49469,7.64771,2.558,5.96184,784,5,
11925.4,0.486755,7.64771,2.558,5.96184,784,5,
11925.4,0.476685,7.64465,2.558,5.96184,784,5,
11925.4,0.466309,7.64771,2.558,5.96184,784,5,
11925.4,0.454102,7.64923,2.558,5.96184,784,5,
11925.4,0.444946,7.64771,2.558,5.96184,784,5,
11925.4,0.43457,7.65076,2.558,5.96184,784,5,
11925.4,0.424194,7.65076,2.558,5.96184,784,5,
11925.4,0.415344,7.64313,2.558,5.96184,784,5,
11925.4,0.402832,7.64465,2.558,5.96184,784,5,
11925.4,0.393982,7.64313,2.558,5.96184,784,5,
11925.4,0.381165,7.64313,2.558,5.96184,784,5,
11925.4,0.371399,7.64923,2.558,5.96184,784,5,
11925.4,0.360718,7.64771,2.558,5.96184,784,5,
11925.4,0.349121,7.64618,2.558,5.96184,784,5,
11925.4,0.336304,7.65076,2.558,5.96184,784,5,
11925.4,0.326233,7.64771,2.558,5.96184,784,5,
11925.4,0.315247,7.64771,2.558,5.96184,784,5,
11925.4,0.302124,7.64465,2.558,5.96184,784,5,
11925.4,0.292969,7.64923,2.558,5.96184,784,5,
11925.4,0.281372,7.64771,2.558,5.96184,784,5,
11925.4,0.26825,7.64465,2.558,5.96184,784,5,
11925.4,0.257874,7.64618,2.558,5.96184,784,5,
11925.4,0.245667,7.64771,2.558,5.96184,784,5,
11925.4,0.233459,7.64771,2.558,5.96184,784,5,
11925.4,0.221863,7.64923,2.558,5.96184,784,5,
11925.4,0.20874,7.64923,2.558,5.96184,784,5,
11925.5,0.197449,7.64923,2.558,5.96184,784,5,
11925.5,0.185547,7.64923,2.558,5.96184,784,5,
11925.5,0.172729,7.64923,2.558,5.96184,784,5,
11925.5,0.159912,7.64771,2.558,5.96184,784,5,
11925.5,0.148315,7.64618,2.558,5.96184,784,5,
11925.5,0.135803,7.64618,2.558,5.96184,784,5,
11925.5,0.123901,7.64618,2.558,5.96184,784,5,
11925.5,0.110168,7.65076,2.558,5.96184,784,5,
11925.5,0.0994873,7.64923,2.558,5.96184,784,5,
11925.5,0.0863647,7.64618,2.558,5.96184,784,5,
11925.5,0.0726318,7.64618,2.558,5.96184,784,5,
11925.5,0.062561,7.64465,2.558,5.96184,784,5,
11925.5,0.0479126,7.64923,2.558,5.96184,784,5,
11925.5,0.0357056,7.64618,2.558,5.96184,784,5,
11925.5,0.0238037,7.64771,2.558,5.96184,784,5,
11925.5,0.0109863,7.64923,2.558,5.96184,784,5,
11925.5,-0.000610352,7.64923,2.558,5.96184,784,5,
11925.5,-0.015564,7.64618,2.558,5.96184,784,5,
11925.5,-0.027771,7.64465,2.558,5.96184,784,5,
11925.5,-0.0405884,7.64771,2.558,5.96184,784,5,
11925.5,-0.0546265,7.64923,2.558,5.96184,784,5,
11925.5,-0.0668335,7.64618,2.558,5.96184,784,5,
11925.5,-0.0799561,7.64923,2.558,5.96184,784,5,
11925.5,-0.0912476,7.64771,2.558,5.96184,784,5,
11925.5,-0.104065,7.64923,2.558,5.96184,784,5,
11925.5,-0.119019,7.64923,2.558,5.96184,784,5,
11925.5,-0.13031,7.64465,2.558,5.96184,784,5,
11925.5,-0.143127,7.64771,2.558,5.96184,784,5,
11925.5,-0.157471,7.64771,2.558,5.96184,784,5,
11925.5,-0.169373,7.64771,2.558,5.96184,784,5,
11925.5,-0.182495,7.64618,2.558,5.96184,784,5,
11925.5,-0.196838,7.65076,2.558,5.96184,784,5,
11925.5,-0.207214,7.64618,2.558,5.96184,784,5,
11925.5,-0.221863,7.64923,2.558,5.96184,784,5,
11925.5,-0.233459,7.64771,2.558,5.96184,784,5,
11925.5,-0.246582,7.64923,2.558,5.96184,784,5,
11925.5,-0.260925,7.64923,2.558,5.96184,784,5,
11925.5,-0.272827,7.64618,2.558,5.96184,784,5,
11925.5,-0.28656,7.64771,2.558,5.96184,784,5,
11925.5,-0.300598,7.64771,2.558,5.96184,784,5,
11925.5,-0.310669,7.64923,2.558,5.96184,784,5,
11925.5,-0.324097,7.64923,2.558,5.96184,784,5,
11925.5,-0.336914,7.64923,2.558,5.96184,784,5,
11925.5,-0.348816,7.64465,2.558,5.96184,784,5,
11925.5,-0.360718,7.64618,2.558,5.96184,784,5,
11925.5,-0.374146,7.64771,2.558,5.96184,784,5,
11925.5,-0.388184,7.64618,2.558,5.96184,784,5,
11925.5,-0.400085,7.64618,2.558,5.96184,784,5,
11925.5,-0.412903,7.64618,2.558,5.96184,784,5,
11925.5,-0.425415,7.64771,2.558,5.96184,784,5,
11925.5,-0.437622,7.64618,2.558,5.96184,784,5,
11925.6,-0.449829,7.64618,2.558,5.96184,784,5,
11925.6,-0.461731,7.64771,2.558,5.96184,784,5,
11925.6,-0.473633,7.64923,2.558,5.96184,784,5,
11925.6,-0.48645,7.64923,2.558,5.96184,784,5,
11925.6,-0.497742,7.64618,2.558,5.96184,784,5,
11925.6,-0.51178,7.64771,2.558,5.96184,784,5,
11925.6,-0.522461,7.64771,2.558,5.96184,784,5,
11925.6,-0.535278,7.64465,2.558,5.96184,784,5,
11925.6,-0.547485,7.64771,2.558,5.96184,784,5,
11925.6,-0.559692,7.64771,2.558,5.96184,784,5,
11925.6,-0.571594,7.64923,2.558,5.96184,784,5,
11925.6,-0.584412,7.64465,2.558,5.96184,784,5,
11925.6,-0.596313,7.64618,2.558,5.96184,784,5,
11925.6,-0.608215,7.64923,2.558,5.96184,784,5,
11925.6,-0.618896,7.64618,2.558,5.96184,784,5,
11925.6,-0.630493,7.64923,2.558,5.96184,784,5,
11925.6,-0.643616,7.64923,2.558,5.96184,784,5,
11925.6,-0.655518,7.65076,2.558,5.96184,784,5,
11925.6,-0.665283,7.64923,2.558,5.96184,784,5,
11925.6,-0.677795,7.64923,2.558,5.96184,784,5,
11925.6,-0.689087,7.64618,2.558,5.96184,784,5,
11925.6,-0.699463,7.64771,2.558,5.96184,784,5,
11925.6,-0.711975,7.64618,2.558,5.96184,784,5,
11925.6,-0.722046,7.64923,2.558,5.96184,784,5,
11925.6,-0.733643,7.64618,2.558,5.96184,784,5,
11925.6,-0.74585,7.64923,2.558,5.96184,784,5,
11925.6,-0.75592,7.64618,2.558,5.96184,784,5,
11925.6,-0.767517,7.64771,2.558,5.96184,784,5,
11925.6,-0.778198,7.64923,2.558,5.96184,784,5,
11925.6,-0.7901,7.64771,2.558,5.96184,784,5,
11925.6,-0.800476,7.64618,2.558,5.96184,784,5,
11925.6,-0.810242,7.64923,2.558,5.96184,784,5,
11925.6,-0.820007,7.64923,2.558,5.96184,784,5,
11925.6,-0.831909,7.64465,2.558,5.96184,784,5,
11925.6,-0.841675,7.64618,2.558,5.96184,784,5,
11925.6,-0.85144,7.64618,2.558,5.96184,784,5,
11925.6,-0.860596,7.64771,2.558,5.96184,784,5,
11925.6,-0.873718,7.64771,2.558,5.96184,784,5,
11925.6,-0.883484,7.64923,2.558,5.96184,784,5,
11925.6,-0.894165,7.64465,2.558,5.96184,784,5,
11925.6,-0.90332,7.64923,2.558,5.96184,784,5,
11925.6,-0.913391,7.64923,2.558,5.96184,784,5,
11925.6,-0.922852,7.64618,2.558,5.96184,784,5,
11925.6,-0.932312,7.65076,2.558,5.96184,784,5,
11925.6,-0.942688,7.64771,2.558,5.96184,784,5,
11925.6,-0.949402,7.64923,2.558,5.96184,784,5,
11925.6,-0.959473,7.65076,2.558,5.96184,784,5,
11925.6,-0.968933,7.65076,2.558,5.96184,784,5,
11925.6,-0.978699,7.64771,2.558,5.96184,784,5,
11925.6,-0.986328,7.64771,2.558,5.96184,784,5,
11925.7,-0.996399,7.64618,2.558,5.96184,784,5,
11925.7,-1.00647,7.64618,2.558,5.96184,784,5,
11925.7,-1.01288,7.64618,2.558,5.96184,784,5,
11925.7,-1.02264,7.64771,2.558,5.96184,784,5,
11925.7,-1.03058,7.64618,2.558,5.96184,784,5,
11925.7,-1.0379,7.64771,2.558,5.96184,784,5,
11925.7,-1.04706,7.64923,2.558,5.96184,784,5,
11925.7,-1.05469,7.64923,2.558,5.96184,784,5,
11925.7,-1.0614,7.65076,2.558,5.96184,784,5,
11925.7,-1.07178,7.64618,2.558,5.96184,784,5,
11925.7,-1.07697,7.65076,2.558,5.96184,784,5,
11925.7,-1.08673,7.65228,2.558,5.96184,784,5,
11925.7,-1.09406,7.64618,2.558,5.96184,784,5,
11925.7,-1.10077,7.64618,2.558,5.96184,784,5,
11925.7,-1.10626,7.64771,2.558,5.96184,784,5,
11925.7,-1.11542,7.64465,2.558,5.96184,784,5,
11925.7,-1.12122,7.64923,2.558,5.96184,784,5,
11925.7,-1.12885,7.65076,2.558,5.96184,784,5,
11925.7,-1.13464,7.64618,2.558,5.96184,784,0,
11925.7,-1.14075,7.64618,2.558,5.96184,784,0,
11925.7,-1.14807,7.64465,2.558,5.96184,784,0,
11925.7,-1.15509,7.64771,2.558,5.96184,784,0,
11925.7,-1.16028,7.65076,2.558,5.96184,784,0,
11925.7,-1.16577,7.64923,2.558,5.96184,784,0,
11925.7,-1.17004,7.64618,2.558,5.96184,784,0,
11925.7,-1.17828,7.64618,2.558,5.96184,784,0,
11925.7,-1.18347,7.64618,2.558,5.96184,784,0,
11925.7,-1.18744,7.64771,2.558,5.96184,784,0,
11925.7,-1.19232,7.64618,2.558,5.96184,784,0,
11925.7,-1.19812,7.64618,2.558,5.96184,784,0,
11925.7,-1.20239,7.65228,2.558,5.96184,784,0,
11925.7,-1.20758,7.64771,2.558,5.96184,784,0,
11925.7,-1.21246,7.64465,2.558,5.96184,784,0,
11925.7,-1.2146,7.64923,2.558,5.96184,784,0,
11925.7,-1.21918,7.64618,2.558,5.96184,784,0,
11925.7,-1.22406,7.64923,2.558,5.96184,784,0,
11925.7,-1.22864,7.64923,2.558,5.96184,784,0,
11925.7,-1.2323,7.64771,2.558,5.96184,784,0,
11925.7,-1.23444,7.64771,2.558,5.96184,784,0,
11925.7,-1.23962,7.64465,2.558,5.96184,784,0,
11925.7,-1.2442,7.64923,2.558,5.96184,784,0,
11925.7,-1.2439,7.64618,2.558,5.96184,784,0,
11925.7,-1.24878,7.64465,2.558,5.96184,784,0,
11925.7,-1.24908,7.64771,2.558,5.96184,784,0,
11925.7,-1.25336,7.65076,2.558,5.96184,784,0,
11925.7,-1.2558,7.64771,2.558,5.96184,784,0,
11925.7,-1.25885,7.64923,2.558,5.96184,784,0,
11925.7,-1.26129,7.64923,2.558,5.96184,784,0,
11925.7,-1.26343,7.65076,2.558,5.96184,784,0,
11925.8,-1.26373,7.64771,2.558,5.96184,784,0,
11925.8,-1.26831,7.64923,2.558,5.96184,784,0,
11925.8,-1.26862,7.64923,2.558,5.96184,784,0,
11925.8,-1.26892,7.64465,2.558,5.96184,784,0,
11925.8,-1.27319,7.64771,2.558,5.96184,784,0,
11925.8,-1.2735,7.64771,2.558,5.96184,784,0,
11925.8,-1.2735,7.64771,2.558,5.96184,784,0,
11925.8,-1.2735,7.64618,2.558,5.96184,784,0,
11925.8,-1.27777,7.64923,2.558,5.96184,784,0,
11925.8,-1.27777,7.64771,2.558,5.96184,784,0,
11925.8,-1.27838,7.64618,2.558,5.96184,784,0,
11925.8,-1.27808,7.64923,2.558,5.96184,784,0,
11925.8,-1.27838,7.64923,2.558,5.96184,784,0,
11925.8,-1.27838,7.64771,2.558,5.96184,784,0,
11925.8,-1.27777,7.64771,2.558,5.96184,784,0,
11925.8,-1.27808,7.64923,2.558,5.96184,784,0,
11925.8,-1.27838,7.64923,2.558,5.96184,784,0,
11925.8,-1.27808,7.64313,2.558,5.96184,784,0,
11925.8,-1.27777,7.63702,2.558,5.96184,784,0,
11925.8,-1.27777,7.63397,2.558,5.96184,784,0,
11925.8,-1.27838,7.6355,2.558,5.96184,784,0,
11925.8,-1.27869,7.63397,2.558,5.96184,784,0,
11925.8,-1.27838,7.63855,2.558,5.96184,784,0,
11925.8,-1.27625,7.63397,2.558,5.96184,784,0,
11925.8,-1.2735,7.6355,2.558,5.96184,784,0,
11925.8,-1.27319,7.63397,2.558,5.96184,784,0,
11925.8,-1.27319,7.6355,2.558,5.96184,784,0,
11925.8,-1.2735,7.63702,2.558,5.96184,784,0,
11925.8,-1.26831,7.63397,2.558,5.96184,784,0,
11925.8,-1.26801,7.63702,2.558,5.96184,784,0,
11925.8,-1.26892,7.63397,2.558,5.96184,784,0,
11925.8,-1.26312,7.63397,2.558,5.96184,784,0,
11925.8,-1.26343,7.6355,2.558,5.96184,784,0,
11925.8,-1.26099,7.63245,2.558,5.96184,784,0,
11925.8,-1.25885,7.63397,2.558,5.96184,784,0,
11925.8,-1.25854,7.6355,2.558,5.96184,784,0,
11925.8,-1.25397,7.63397,2.558,5.96184,784,0,
11925.8,-1.25366,7.6355,2.558,5.96184,784,0,
11925.8,-1.24847,7.6355,2.558,5.96184,784,0,
11925.8,-1.24878,7.63397,2.558,5.96184,784,0,
11925.8,-1.24359,7.6355,2.558,5.96184,784,0,
11925.8,-1.2442,7.63397,2.558,5.96184,784,0,
11925.8,-1.23901,7.6355,2.558,5.96184,784,0,
11925.8,-1.23596,7.6355,2.558,5.96184,784,0,
11925.8,-1.23413,7.63702,2.558,5.96184,784,0,
11925.8,-1.22925,7.63702,2.558,5.96184,784,0,
11925.8,-1.22955,7.63855,2.558,5.96184,784,0,
11925.8,-1.22437,7.6355,2.558,5.96184,784,0,
11925.8,-1.22009,7.63855,2.558,5.96184,784,0,
11925.8,-1.21918,7.63702,2.558,5.96184,784,0,
11925.9,-1.2146,7.63245,2.558,5.96184,784,0,
11925.9,-1.21063,7.63855,2.558,5.96184,784,0,
11925.9,-1.20697,7.63397,2.558,5.96184,784,0,
11925.9,-1.20453,7.6355,2.558,5.96184,784,0,
11925.9,-1.19995,7.63702,2.558,5.96184,784,0,
11925.9,-1.19537,7.6355,2.558,5.96184,784,0,
11925.9,-1.19232,7.63245,2.558,5.96184,784,0,
11925.9,-1.19019,7.63702,2.558,5.96184,784,0,
11925.9,-1.185,7.63397,2.558,5.96184,784,0,
11925.9,-1.18042,7.63092,2.558,5.96184,784,0,
11925.9,-1.17615,7.6355,2.558,5.96184,784,0,
11925.9,-1.17279,7.63702,2.558,5.96184,784,0,
11925.9,-1.17035,7.63397,2.558,5.96184,784,0,
11925.9,-1.16577,7.63245,2.558,5.96184,784,0,
11925.9,-1.16089,7.64008,2.558,5.96184,784,0,
11925.9,-1.1557,7.63397,2.558,5.96184,784,0,
11925.9,-1.1499,7.63702,2.558,5.96184,784,0,
11925.9,-1.14624,7.63702,2.558,5.96184,784,0,
11925.9,-1.14197,7.63245,2.558,5.96184,784,0,
11925.9,-1.13892,7.63397,2.558,5.96184,784,0,
11925.9,-1.13403,7.63397,2.558,5.96184,784,0,
11925.9,-1.12854,7.63397,2.558,5.96184,784,0,
11925.9,-1.12396,7.63397,2.558,5.96184,784,0,
11925.9,-1.12122,7.63702,2.558,5.96184,784,0,
11925.9,-1.11725,7.6355,2.558,5.96184,784,0,
11925.9,-1.11145,7.63855,2.558,5.96184,784,0,
11925.9,-1.10687,7.63702,2.558,5.96184,784,0,
11925.9,-1.10138,7.63397,2.558,5.96184,784,0,
11925.9,-1.09741,7.63702,2.558,5.96184,784,0,
11925.9,-1.09222,7.63855,2.558,5.96184,784,0,
11925.9,-1.08704,7.63245,2.558,5.96184,784,0,
11925.9,-1.08154,7.6355,2.558,5.96184,784,0,
11925.9,-1.07788,7.63245,2.558,5.96184,784,0,
11925.9,-1.07269,7.6355,2.558,5.96184,784,0,
11925.9,-1.06476,7.63397,2.558,5.96184,784,0,
11925.9,-1.06018,7.63855,2.558,5.96184,784,0,
11925.9,-1.0556,7.63397,2.558,5.96184,784,0,
11925.9,-1.05072,7.63397,2.558,5.96184,784,0,
11925.9,-1.04584,7.63702,2.558,5.96184,784,0,
11925.9,-1.03912,7.63702,2.558,5.96184,784,0,
11925.9,-1.03363,7.63397,2.558,5.96184,784,0,
11925.9,-1.02936,7.63702,2.558,5.96184,784,0,
11925.9,-1.02386,7.63397,2.558,5.96184,784,0,
11925.9,-1.01868,7.63702,2.558,5.96184,784,0,
11925.9,-1.0141,7.63397,2.558,5.96184,784,0,
11925.9,-1.00891,7.63397,2.558,5.96184,784,0,
11925.9,-1.00464,7.6355,2.558,5.96184,784,0,
11925.9,-0.99884,7.6355,2.558,5.96184,784,0,
11925.9,-0.991516,7.63397,2.558,5.96184,784,0,
11925.9,-0.986938,7.63702,2.558,5.96184,784,0,
11926,-0.980225,7.64008,2.558,5.96184,784,0,
11926,-0.975952,7.63397,2.558,5.96184,784,0,
11926,-0.970459,7.6355,2.558,5.96184,784,0,
11926,-0.964966,7.6355,2.558,5.96184,784,0,
11926,-0.959778,7.63397,2.558,5.96184,784,0,
11926,-0.954895,7.6355,2.558,5.96184,784,0,
11926,-0.947266,7.63702,2.558,5.96184,784,0,
11926,-0.942993,7.6355,2.558,5.96184,784,0,
11926,-0.935669,7.63245,2.558,5.96184,784,0,
11926,-0.930481,7.63245,2.558,5.96184,784,0,
11926,-0.925903,7.63397,2.558,5.96184,784,0,
11926,-0.920715,7.6355,2.558,5.96184,784,0,
11926,-0.915833,7.6355,2.558,5.96184,784,0,
11926,-0.910645,7.63702,2.558,5.96184,784,0,
11926,-0.90332,7.64008,2.558,5.96184,784,0,
11926,-0.898743,7.6355,2.558,5.96184,784,0,
11926,-0.892334,7.63702,2.558,5.96184,784,0,
11926,-0.887146,7.63702,2.558,5.96184,784,0,
11926,-0.882263,7.63397,2.558,5.96184,784,0,
11926,-0.87677,7.63702,2.558,5.96184,784,0,
11926,-0.870056,7.6355,2.558,5.96184,784,0,
11926,-0.864258,7.63702,2.558,5.96184,784,0,
11926,-0.858459,7.6355,2.558,5.96184,784,0,
11926,-0.852966,7.6355,2.558,5.96184,784,0,
11926,-0.846863,7.63245,2.558,5.96184,784,0,
11926,-0.84259,7.63397,2.558,5.96184,784,0,
11926,-0.837708,7.63245,2.558,5.96184,784,0,
11926,-0.829773,7.6355,2.558,5.96184,784,0,
11926,-0.8255,7.6355,2.558,5.96184,784,0,
11926,-0.818176,7.63397,2.558,5.96184,784,0,
11926,-0.813293,7.63702,2.558,5.96184,784,0,
11926,-0.808411,7.62329,0,5.96184,784,0,
11926,-0.802917,7.62329,0,5.96184,784,0,
11926,-0.795593,7.62177,0,5.96184,784,0,
11926,-0.791016,7.62177,0,5.96184,784,0,
11926,-0.783691,7.62482,0,5.96184,784,0,
11926,-0.778809,7.62329,0,5.96184,784,0,
11926,-0.774231,7.62329,0,5.96184,784,0,
11926,-0.769043,7.62329,0,5.96184,784,0,
11926,-0.760803,7.62329,0,5.96184,784,0,
11926,-0.756836,7.62329,0,5.96184,784,0,
11926,-0.748901,7.62634,0,5.96184,784,0,
11926,-0.744934,7.62482,0,5.96184,784,0,
11926,-0.739441,7.62329,0,5.96184,784,0,
11926,-0.733948,7.62177,0,5.96184,784,0,
11926,-0.726929,7.62329,0,5.96184,784,0,
11926,-0.721741,7.62329,0,5.96184,784,0,
11926,-0.715027,7.62482,0,5.96184,784,0,
11926,-0.709534,7.62329,0,5.96184,784,0,
11926,-0.705261,7.62329,0,5.96184,784,0,
11926,-0.697937,7.62177,0,5.96184,784,0,
11926.1,-0.693054,7.62482,0,5.96184,784,0,
11926.1,-0.686035,7.62024,0,5.96184,784,0,
11926.1,-0.681458,7.62177,0,5.96184,784,0,
11926.1,-0.675659,7.62329,0,5.96184,784,0,
11926.1,-0.670776,7.62329,0,5.96184,784,0,
11926.1,-0.663757,7.62329,0,5.96184,784,0,
11926.1,-0.656738,7.62329,0,5.96184,784,0,
11926.1,-0.651855,7.62177,0,5.96184,784,0,
11926.1,-0.646057,7.62177,0,5.96184,784,0,
11926.1,-0.641174,7.62329,0,5.96184,784,0,
11926.1,-0.633545,7.62787,0,5.96184,784,0,
11926.1,-0.626831,7.62024,0,5.96184,784,0,
11926.1,-0.621948,7.62329,0,5.96184,784,0,
11926.1,-0.617065,7.62482,0,5.96184,784,0,
11926.1,-0.611877,7.62329,0,5.96184,784,0,
11926.1,-0.604553,7.61871,0,5.96184,784,0,
11926.1,-0.59967,7.62634,0,5.96184,784,0,
11926.1,-0.593262,7.62634,0,5.96184,784,0,
11926.1,-0.587463,7.62329,0,5.96184,784,0,
11926.1,-0.582275,7.62177,0,5.96184,784,0,
11926.1,-0.574951,7.62177,0,5.96184,784,0,
11926.1,-0.569763,7.62177,0,5.96184,784,0,
11926.1,-0.562744,7.62329,0,5.96184,784,0,
11926.1,-0.557861,7.62482,0,5.96184,784,0,
11926.1,-0.552673,7.62329,0,5.96184,784,0,
11926.1,-0.546265,7.62329,0,5.96184,784,0,
11926.1,-0.540771,7.62482,0,5.96184,784,0,
11926.1,-0.534363,7.62177,0,5.96184,784,0,
11926.1,-0.528259,7.62177,0,5.96184,784,0,
11926.1,-0.523682,7.62329,0,5.96184,784,0,
11926.1,-0.515442,7.62634,0,5.96184,784,0,
11926.1,-0.509033,7.62024,0,5.96184,784,0,
11926.1,-0.50415,7.62177,0,5.96184,784,0,
11926.1,-0.499268,7.62329,0,5.96184,784,0,
11926.1,-0.491943,7.62482,0,5.96184,784,0,
11926.1,-0.486755,7.62024,0,5.96184,784,0,
11926.1,-0.479736,7.62177,0,5.96184,784,0,
11926.1,-0.474854,7.62329,0,5.96184,784,0,
11926.1,-0.469971,7.62482,0,5.96184,784,0,
11926.1,-0.462036,7.62329,0,5.96184,784,0,
11926.1,-0.455017,7.62024,0,5.96184,784,0,
11926.1,-0.450134,7.62024,0,5.96184,784,0,
11926.1,-0.445251,7.62177,0,5.96184,784,0,
11926.1,-0.437317,7.62482,0,5.96184,784,0,
11926.1,-0.433044,7.62024,0,5.96184,784,0,
11926.1,-0.426331,7.62177,0,5.96184,784,0,
11926.1,-0.420837,7.62329,0,5.96184,784,0,
11926.1,-0.415955,7.62177,0,5.96184,784,0,
11926.1,-0.40863,7.62329,0,5.96184,784,0,
11926.1,-0.401306,7.62482,0,5.96184,784,0,
11926.2,-0.396423,7.62329,0,5.96184,784,0,
11926.2,-0.391541,7.62329,0,5.96184,784,0,
11926.2,-0.383911,7.62329,0,5.96184,784,0,
11926.2,-0.377197,7.62482,0,5.96184,784,0,
11926.2,-0.372314,7.62482,0,5.96184,784,0,
11926.2,-0.366821,7.62177,0,5.96184,784,0,
11926.2,-0.359192,7.62024,0,5.96184,784,0,
11926.2,-0.354309,7.62024,0,5.96184,784,0,
11926.2,-0.3479,7.62177,0,5.96184,784,0,
11926.2,-0.342407,7.62482,0,5.96184,784,0,
11926.2,-0.337524,7.62482,0,5.96184,784,0,
11926.2,-0.329285,7.62634,0,5.96184,784,0,
11926.2,-0.323181,7.62024,0,5.96184,784,0,
11926.2,-0.317383,7.62329,0,5.96184,784,0,
11926.2,-0.311584,7.62482,0,5.96184,784,0,
11926.2,-0.305481,7.62177,0,5.96184,784,0,
11926.2,-0.298767,7.62024,0,5.96184,784,0,
11926.2,-0.292969,7.62024,0,5.96184,784,0,
11926.2,-0.287781,7.62482,0,5.96184,784,0,
11926.2,-0.280457,7.62177,0,5.96184,784,0,
11926.2,-0.274658,7.62329,0,5.96184,784,0,
11926.2,-0.269165,7.62177,0,5.96184,784,0,
11926.2,-0.264282,7.62329,0,5.96184,784,0,
11926.2,-0.256348,7.62329,0,5.96184,784,0,
11926.2,-0.251465,7.62482,0,5.96184,784,0,
11926.2,-0.244446,7.62787,0,5.96184,784,0,
11926.2,-0.239563,7.62329,0,5.96184,784,0,
11926.2,-0.232239,7.62177,0,5.96184,784,0,
11926.2,-0.227356,7.62482,0,5.96184,784,0,
11926.2,-0.219421,7.62482,0,5.96184,784,0,
11926.2,-0.215759,7.62329,0,5.96184,784,0,
11926.2,-0.209351,7.62024,0,5.96184,784,0,
11926.2,-0.202637,7.62634,0,5.96184,784,0,
11926.2,-0.195618,7.62482,0,5.96184,784,0,
11926.2,-0.190125,7.62482,0,5.96184,784,0,
11926.2,-0.183105,7.62787,0,5.96184,784,0,
11926.2,-0.178223,7.62482,0,5.96184,784,0,
11926.2,-0.171204,7.62177,0,5.96184,784,0,
11926.2,-0.16571,7.62329,0,5.96184,784,0,
11926.2,-0.158081,7.62024,0,5.96184,784,0,
11926.2,-0.150757,7.62329,0,5.96184,784,0,
11926.2,-0.146484,7.62482,0,5.96184,784,0,
11926.2,-0.141296,7.62177,0,5.96184,784,0,
11926.2,-0.133972,7.61108,0,5.96184,784,0,
11926.2,-0.126953,7.61108,0,5.96184,784,0,
11926.2,-0.121765,7.60956,0,5.96184,784,0,
11926.2,-0.115051,7.61414,0,5.96184,784,0,
11926.2,-0.107422,7.61261,0,5.96184,784,0,
11926.2,-0.102234,7.61108,0,5.96184,784,0,
11926.2,-0.0970459,7.61108,0,5.96184,784,0,
11926.3,-0.0900269,7.61108,0,5.96184,784,0,
11926.3,-0.0827026,7.60956,0,5.96184,784,0,
11926.3,-0.0775146,7.60956,0,5.96184,784,0,
11926.3,-0.0701904,7.61108,0,5.96184,784,0,
11926.3,-0.0634766,7.60956,0,5.96184,784,0,
11926.3,-0.0576782,7.61108,0,5.96184,784,0,
11926.3,-0.050354,7.61108,0,5.96184,784,0,
11926.3,-0.0442505,7.61261,0,5.96184,784,0,
11926.3,-0.038147,7.61108,0,5.96184,784,0,
11926.3,-0.032959,7.61108,0,5.96184,784,0,
11926.3,-0.0259399,7.61261,0,5.96184,784,0,
11926.3,-0.0189209,7.61261,0,5.96184,784,0,
11926.3,-0.0140381,7.61108,0,5.96184,784,0,
11926.3,-0.00579834,7.60956,0,5.96184,784,0,
11926.3,0.000610352,7.61261,0,5.96184,784,0,
11926.3,0.00579834,7.61261,0,5.96184,784,0,
11926.3,0.0137329,7.61261,0,5.96184,784,0,
11926.3,0.0198364,7.60956,0,5.96184,784,0,
11926.3,0.0253296,7.61261,0,5.96184,784,0,
11926.3,0.0335693,7.61261,0,5.96184,784,0,
11926.3,0.039978,7.60956,0,5.96184,784,0,
11926.3,0.0448608,7.61261,0,5.96184,784,0,
11926.3,0.0524902,7.60956,0,5.96184,784,0,
11926.3,0.0595093,7.61108,0,5.96184,784,0,
11926.3,0.0650024,7.60956,0,5.96184,784,0,
11926.3,0.0720215,7.61108,0,5.96184,784,0,
11926.3,0.0793457,7.61108,0,5.96184,784,0,
11926.3,0.0839233,7.61108,0,5.96184,784,0,
11926.3,0.0912476,7.61108,0,5.96184,784,0,
11926.3,0.0976562,7.61261,0,5.96184,784,0,
11926.3,0.102844,7.61261,0,5.96184,784,0,
11926.3,0.107727,7.60803,0,5.96184,784,0,
11926.3,0.116272,7.61108,0,5.96184,784,0,
11926.3,0.122681,7.60956,0,5.96184,784,0,
11926.3,0.128174,7.61261,0,5.96184,784,0,
11926.3,0.135193,7.61108,0,5.96184,784,0,
11926.3,0.142212,7.60956,0,5.96184,784,0,
11926.3,0.14801,7.61261,0,5.96184,784,0,
11926.3,0.155029,7.60803,0,5.96184,784,0,
11926.3,0.161743,7.61414,0,5.96184,784,0,
11926.3,0.166626,7.61261,0,5.96184,784,0,
11926.3,0.174255,7.61261,0,5.96184,784,0,
11926.3,0.181274,7.61108,0,5.96184,784,0,
11926.3,0.186462,7.61261,0,5.96184,784,0,
11926.3,0.19104,7.61108,0,5.96184,784,0,
11926.3,0.198975,7.61719,0,5.96184,784,0,
11926.3,0.205994,7.60803,0,5.96184,784,0,
11926.3,0.210876,7.60956,0,5.96184,784,0,
11926.3,0.218811,7.60803,0,5.96184,784,0,
11926.4,0.22583,7.60956,0,5.96184,784,0,
11926.4,0.230713,7.60956,0,5.96184,784,0,
11926.4,0.235291,7.60956,0,5.96184,784,0,
11926.4,0.24353,7.61108,0,5.96184,784,0,
11926.4,0.249634,7.61108,0,5.96184,784,0,
11926.4,0.255737,7.61108,0,5.96184,784,0,
11926.4,0.262451,7.60956,0,5.96184,784,0,
11926.4,0.26947,7.61261,0,5.96184,784,0,
11926.4,0.275269,7.61261,0,5.96184,784,0,
11926.4,0.279846,7.60956,0,5.96184,784,0,
11926.4,0.287476,7.61108,0,5.96184,784,0,
11926.4,0.294495,7.61108,0,5.96184,784,0,
11926.4,0.299072,7.61108,0,5.96184,784,0,
11926.4,0.307617,7.60956,0,5.96184,784,0,
11926.4,0.312195,7.61108,0,5.96184,784,0,
11926.4,0.318298,7.61261,0,5.96184,784,0,
11926.4,0.323792,7.61108,0,5.96184,784,0,
11926.4,0.330811,7.61261,0,5.96184,784,0,
11926.4,0.337524,7.61108,0,5.96184,784,0,
11926.4,0.342407,7.6004,0,5.96184,784,0,
11926.4,0.348511,7.59735,0,5.96184,784,0,
11926.4,0.35553,7.59735,0,5.96184,784,0,
11926.4,0.362854,7.6004,0,5.96184,784,0,
11926.4,0.367737,7.59888,0,5.96184,784,0,
11926.4,0.372925,7.59888,0,5.96184,784,0,
11926.4,0.380249,7.6004,0,5.96184,784,0,
11926.4,0.386963,7.59888,0,5.96184,784,0,
11926.4,0.392151,7.6004,0,5.96184,784,0,
11926.4,0.397644,7.59735,0,5.96184,784,0,
11926.4,0.404663,7.6004,0,5.96184,784,0,
11926.4,0.411377,7.59735,0,5.96184,784,0,
11926.4,0.416565,7.59888,0,5.96184,784,0,
11926.4,0.421753,7.59888,0,5.96184,784,0,
11926.4,0.429688,7.59888,0,5.96184,784,0,
11926.4,0.435181,7.59888,0,5.96184,784,0,
11926.4,0.440979,7.59888,0,5.96184,784,0,
11926.4,0.447083,7.6004,0,5.96184,784,0,
11926.4,0.45166,7.59888,0,5.96184,784,0,
11926.4,0.459595,7.59888,0,5.96184,784,0,
11926.4,0.466919,7.59735,0,5.96184,784,0,
11926.4,0.471497,7.6004,0,5.96184,784,0,
11926.4,0.476074,7.59888,0,5.96184,784,0,
11926.4,0.483398,7.6004,0,5.96184,784,0,
11926.4,0.490723,7.59583,0,5.96184,784,0,
11926.4,0.494995,7.6004,0,5.96184,784,0,
11926.4,0.500793,7.60193,0,5.96184,784,0,
11926.4,0.508118,7.59888,0,5.96184,784,0,
11926.4,0.513306,7.59735,0,5.96184,784,0,
11926.4,0.519409,7.6004,0,5.96184,784,0,
11926.4,0.525208,7.59888,0,5.96184,784,5,
11926.5,0.53009,7.59888,0,5.96184,784,5,
11926.5,0.537109,7.6004,0,5.96184,784,5,
11926.5,0.543823,7.59583,0,5.96184,784,5,
11926.5,0.549927,7.60193,0,5.96184,784,5,
11926.5,0.554199,7.5943,0,5.96184,784,5,
11926.5,0.562134,7.58514,0,5.96184,784,5,
11926.5,0.568542,7.5882,0,5.96184,784,5,
11926.5,0.57373,7.5882,0,5.96184,784,5,
11926.5,0.578613,7.58667,0,5.96184,784,5,
11926.5,0.585632,7.59125,0,5.96184,784,5,
11926.5,0.592957,7.58667,0,5.96184,784,5,
11926.5,0.598755,7.58514,0,5.96184,784,5,
11926.5,0.603638,7.58972,0,5.96184,784,5,
11926.5,0.610962,7.58667,0,5.96184,784,5,
11926.5,0.617981,7.58972,0,5.96184,784,5,
11926.5,0.622864,7.58667,0,5.96184,784,5,
11926.5,0.627747,7.5882,0,5.96184,784,5,
11926.5,0.635071,7.58514,0,5.96184,784,5,
11926.5,0.641479,7.57446,0,5.96184,784,5,
11926.5,0.647888,7.57446,0,5.96184,784,5,
11926.5,0.65155,7.57141,0,5.96184,784,5,
11926.5,0.65918,7.57446,0,5.96184,784,5,
11926.5,0.666504,7.56683,0,5.96184,784,5,
11926.5,0.671387,7.56073,0,5.96184,784,5,
11926.5,0.676575,7.56226,0,5.96184,784,5,
11926.5,0.684204,7.5531,0,5.96184,784,5,
11926.5,0.691223,7.55158,0,5.96184,784,5,
11926.5,0.696411,7.53632,0,5.96184,784,5,
11926.5,0.700989,7.52716,0,5.96184,784,5,
11926.5,0.708618,7.51953,0,5.96184,784,5,
11926.5,0.715942,7.51038,0,5.96184,784,5,
11926.5,0.720825,7.49817,0,5.96184,784,5,
11926.5,0.726013,7.47528,0,5.96184,784,5,
11926.5,0.733032,7.46155,0,5.96184,784,5,
11926.5,0.740051,7.44782,0,5.96184,784,5,
11926.5,0.745544,7.42798,0,5.96184,784,5,
11926.5,0.750732,7.40204,0,5.96184,784,5,
11926.5,0.757751,7.37763,0,5.96184,784,5,
11926.5,0.764771,7.34863,0,5.96184,784,5,
11926.5,0.769653,7.31354,0,5.96184,784,5,
11926.5,0.775146,7.27844,0,5.96184,784,5,
11926.5,0.782166,7.2403,0,5.96184,784,5,
11926.5,0.787354,7.20215,0,5.96184,784,5,
11926.5,0.794373,7.15485,0,5.96184,784,5,
11926.5,0.799255,7.10602,0,5.96184,784,5,
11926.5,0.804138,7.05261,0,5.96184,784,5,
11926.5,0.811462,6.99616,0,5.96184,784,5,
11926.5,0.818787,6.93512,0,5.96184,784,5,
11926.5,0.823669,6.86951,0,5.96184,784,5,
11926.5,0.829163,6.80084,0,5.96184,784,5,
11926.5,0.83374,6.72913,0,5.96184,784,5,
11926.6,0.840759,6.65894,0,5.96184,784,5,
11926.6,0.847473,6.58112,0,5.96184,784,5,
11926.6,0.852966,6.49414,0,5.96184,784,5,
11926.6,0.858154,6.4148,0,5.96184,784,5,
11926.6,0.863037,6.3324,0,5.96184,784,5,
11926.6,0.870972,6.23932,0,5.96184,784,5,
11926.6,0.875549,6.15082,0,5.96184,784,5,
11926.6,0.882263,6.05011,0,5.96184,784,0,
11926.6,0.887146,5.96619,0,5.96184,784,0,
11926.6,0.892639,5.87006,0,5.96184,784,0,
11926.6,0.896912,5.76935,0,5.96184,784,0,
11926.6,0.905151,5.66864,0,5.96184,784,0,
11926.6,0.909424,5.56641,0,5.96184,784,0,
11926.6,0.917053,5.4657,0,5.96184,784,0,
11926.6,0.921631,5.36804,0,5.96184,784,0,
11926.6,0.926208,5.26886,0,5.96184,784,0,
11926.6,0.931702,5.15747,0,5.96184,784,0,
11926.6,0.93689,5.05829,0,5.96184,784,0,
11926.6,0.944519,4.96063,0,5.96184,784,0,
11926.6,0.949097,4.85077,0,5.96184,784,0,
11926.6,0.954285,4.75617,0,5.96184,784,0,
11926.6,0.960083,4.65698,0,5.96184,784,0,
11926.6,0.964966,4.54559,0,5.96184,784,0,
11926.6,0.970764,4.44946,0,5.96184,784,0,
11926.6,0.975647,4.34723,0,5.96184,784,0,
11926.6,0.98053,4.2511,0,5.96184,784,0,
11926.6,0.986328,4.15039,0,5.96184,784,0,
11926.6,0.990906,4.05579,0,5.96184,784,0,
11926.6,0.996094,3.95508,0,5.96184,784,0,
11926.6,1.00311,3.86047,0,5.96184,784,0,
11926.6,1.00739,3.77655,0,5.96184,784,0,
11926.6,1.01288,3.67584,0,5.96184,784,0,
11926.6,1.01837,3.58734,0,5.96184,784,0,
11926.6,1.02295,3.49274,0,5.96184,784,0,
11926.6,1.02722,3.40576,0,5.96184,784,0,
11926.6,1.03241,3.31421,0,5.96184,784,0,
11926.6,1.0376,3.22723,0,5.96184,784,0,
11926.6,1.0437,3.13873,0,5.96184,784,0,
11926.6,1.04828,3.05176,0,5.96184,784,0,
11926.6,1.05164,2.96936,0,5.96184,784,0,
11926.6,1.05713,2.89307,0,5.96184,784,0,
11926.6,1.06262,2.80914,0,5.96184,784,0,
11926.6,1.0672,2.72217,0,5.96184,784,0,
11926.6,1.07178,2.64587,0,5.96184,784,0,
11926.6,1.07635,2.57111,0,5.96184,784,0,
11926.6,1.08154,2.49329,0,5.96184,784,0,
11926.6,1.08429,2.41547,0,5.96184,784,0,
11926.6,1.08826,2.3468,0,5.96184,784,0,
11926.6,1.09344,2.27356,0,5.96184,784,0,
11926.6,1.09894,2.2049,0,5.96184,784,0,
11926.7,1.10229,2.13623,0,5.96184,784,0,
11926.7,1.1084,2.07214,0,5.96184,784,0,
11926.7,1.11267,2.00958,0,5.96184,784,0,
11926.7,1.11725,1.94702,0,5.96184,784,0,
11926.7,1.12061,1.88599,0,5.96184,784,0,
11926.7,1.12549,1.828,0,5.96184,784,0,
11926.7,1.12823,1.76849,0,5.96184,784,0,
11926.7,1.13251,1.71814,0,5.96184,784,0,
11926.7,1.13739,1.66931,0,5.96184,784,0,
11926.7,1.14288,1.62048,0,5.96184,784,0,
11926.7,1.14746,1.57318,0,5.96184,784,0,
11926.7,1.1499,1.52435,0,5.96184,784,0,
11926.7,1.15204,1.48773,0,5.96184,784,0,
11926.7,1.15692,1.44501,0,5.96184,784,0,
11926.7,1.16211,1.40228,0,5.96184,784,0,
11926.7,1.16608,1.36414,0,5.96184,784,0,
11926.7,1.16669,1.32599,0,5.96184,784,0,
11926.7,1.17188,1.29242,0,5.96184,784,0,
11926.7,1.17767,1.26648,0,5.96184,784,0,
11926.7,1.18073,1.23901,0,5.96184,784,0,
11926.7,1.18195,1.20697,0,5.96184,784,0,
11926.7,1.18652,1.18408,0,5.96184,784,0,
11926.7,1.1911,1.1673,0,5.96184,784,0,
11926.7,1.19476,1.14594,0,5.96184,784,0,
11926.7,1.19659,1.13525,0,5.96184,784,0,
11926.7,1.20178,1.11542,0,5.96184,784,0,
11926.7,1.20392,1.10474,0,5.96184,784,0,
11926.7,1.20697,1.09711,0,5.96184,784,0,
11926.7,1.21094,1.091,0,5.96184,784,0,
11926.7,1.21338,1.08185,0,5.96184,784,0,
11926.7,1.21643,1.08185,0,5.96184,784,0,
11926.7,1.22131,1.08337,0,5.96184,784,0,
11926.7,1.2207,1.0849,0,5.96184,784,0,
11926.7,1.22589,1.091,0,5.96184,784,0,
11926.7,1.22986,1.09406,0,5.96184,784,0,
11926.7,1.23138,1.10779,0,5.96184,784,0,
11926.7,1.23596,1.11694,0,5.96184,784,0,
11926.7,1.23596,1.13068,0,5.96184,784,0,
11926.7,1.24023,1.14136,0,5.96184,784,0,
11926.7,1.24084,1.15357,0,5.96184,784,0,
11926.7,1.24603,1.17035,0,5.96184,784,0,
11926.7,1.24847,1.18256,0,5.96184,784,0,
11926.7,1.25061,1.19629,0,5.96184,784,0,
11926.7,1.25275,1.2146,0,5.96184,784,0,
11926.7,1.25488,1.23291,0,5.96184,784,0,
11926.7,1.25732,1.24359,0,5.96184,784,0,
11926.7,1.25977,1.26038,0,5.96184,784,0,
11926.7,1.26007,1.27106,0,5.96184,784,0,
11926.7,1.26495,1.28632,0,5.96184,784,0,
11926.8,1.26495,1.29395,0,5.96184,784,0,
11926.8,1.26953,1.3031,0,5.96184,784,0,
11926.8,1.26953,1.31683,0,5.96184,784,0,
11926.8,1.2738,1.33057,0,5.96184,784,0,
11926.8,1.27411,1.33667,0,5.96184,784,0,
11926.8,1.27716,1.34277,0,5.96184,784,0,
11926.8,1.2796,1.33972,0,5.96184,784,0,
11926.8,1.27991,1.35193,0,5.96184,784,0,
11926.8,1.28448,1.35346,0,5.96184,784,0,
11926.8,1.28479,1.35193,0,5.96184,784,0,
11926.8,1.28479,1.3504,0,5.96184,784,0,
11926.8,1.29028,1.34888,0,5.96184,784,0,
11926.8,1.28998,1.3382,0,5.96184,784,0,
11926.8,1.29181,1.34125,0,5.96184,784,0,
11926.8,1.29425,1.33667,0,5.96184,784,0,
11926.8,1.29456,1.32904,0,5.96184,784,0,
11926.8,1.29669,1.31989,0,5.96184,784,0,
11926.8,1.29944,1.31683,0,5.96184,784,0,
11926.8,1.29974,1.30768,0,5.96184,784,0,
11926.8,1.29974,1.29395,0,5.96184,784,0,
11926.8,1.30432,1.28327,0,5.96184,784,0,
11926.8,1.30463,1.26953,0,5.96184,784,0,
11926.8,1.30463,1.2619,0,5.96184,784,0,
11926.8,1.30829,1.25122,0,5.96184,784,0,
11926.8,1.3092,1.23291,0,5.96184,784,0,
11926.8,1.3092,1.22376,0,5.96184,784,0,
11926.8,1.3092,1.20392,0,5.96184,784,0,
11926.8,1.31317,1.19324,0,5.96184,784,0,
11926.8,1.31378,1.18103,0,5.96184,784,0,
11926.8,1.31378,1.17035,0,5.96184,784,0,
11926.8,1.31439,1.15051,0,5.96184,784,0,
11926.8,1.3147,1.13678,0,5.96184,784,0,
11926.8,1.31897,1.12305,0,5.96184,784,0,
11926.8,1.31927,1.10931,0,5.96184,784,0,
11926.8,1.31958,1.09406,0,5.96184,784,0,
11926.8,1.31927,1.07269,0,5.96184,784,0,
11926.8,1.31927,1.06049,0,5.96184,784,0,
11926.8,1.32416,1.04523,0,5.96184,784,0,
11926.8,1.32385,1.02997,0,5.96184,784,0,
11926.8,1.32416,1.01318,0,5.96184,784,0,
11926.8,1.32355,0.997926,0,5.96184,784,0,
11926.8,1.32385,0.982667,0,5.96184,784,0,
11926.8,1.32446,0.971986,0,5.96184,784,0,
11926.8,1.32843,0.955201,0,5.96184,784,0,
11926.8,1.32843,0.936891,0,5.96184,784,0,
11926.8,1.32843,0.923158,0,5.96184,784,0,
11926.8,1.32965,0.906373,0,5.96184,784,0,
11926.8,1.32812,0.894166,0,5.96184,784,0,
11926.8,1.32843,0.878907,0,5.96184,784,0,
11926.8,1.32874,0.8667,0,5.96184,784,0,
11926.9,1.32843,0.851441,0,5.96184,784,0,
11926.9,1.33301,0.839234,0,5.96184,784,0,
11926.9,1.33423,0.823976,0,5.96184,784,0,
11926.9,1.33301,0.813294,0,5.96184,784,0,
11926.9,1.33423,0.798036,0,5.96184,784,0,
11926.9,1.33362,0.784303,0,5.96184,784,0,
11926.9,1.33423,0.773622,0,5.96184,784,0,
11926.9,1.33392,0.761415,0,5.96184,784,0,
11926.9,1.33362,0.747682,0,5.96184,784,0,
11926.9,1.33362,0.735475,0,5.96184,784,0,
11926.9,1.33392,0.724793,0,5.96184,784,0,
11926.9,1.33301,0.715638,0,5.96184,784,0,
11926.9,1.33362,0.701905,0,5.96184,784,0,
11926.9,1.33362,0.688172,0,5.96184,784,0,
11926.9,1.33362,0.679017,0,5.96184,784,0,
11926.9,1.33331,0.668336,0,5.96184,784,0,
11926.9,1.33362,0.656129,2.538,5.96184,784,0,
11926.9,1.33301,0.651551,2.538,5.96184,784,0,
11926.9,1.33362,0.64087,2.538,5.96184,784,0,
11926.9,1.33362,0.630189,2.538,5.96184,784,0,
11926.9,1.33392,0.619508,2.538,5.96184,784,0,
11926.9,1.33362,0.610353,2.538,5.96184,784,0,
11926.9,1.33362,0.610353,2.538,5.96184,784,0,
11926.9,1.33423,0.595094,2.538,5.96184,784,0,
11926.9,1.33362,0.587464,2.538,5.96184,784,0,
11926.9,1.33362,0.581361,2.538,5.96184,784,0,
11926.9,1.33362,0.573731,2.538,5.96184,784,0,
11926.9,1.33392,0.569154,2.538,5.96184,784,0,
11926.9,1.33423,0.558473,2.538,5.96184,784,0,
11926.9,1.33362,0.558473,2.538,5.96184,784,0,
11926.9,1.33362,0.541688,2.538,5.96184,784,0,
11926.9,1.33362,0.54474,2.538,5.96184,784,0,
11926.9,1.33392,0.532533,2.538,5.96184,784,0,
11926.9,1.33392,0.535584,2.538,5.96184,784,0,
11926.9,1.3327,0.521852,2.538,5.96184,784,0,
11926.9,1.33362,0.517274,2.538,5.96184,784,0,
11926.9,1.32904,0.520326,2.538,11.7739,784,0,
11926.9,1.32904,0.509645,2.538,11.7739,784,0,
11926.9,1.32874,0.508119,2.538,11.7739,784,0,
11926.9,1.32935,0.500489,2.538,11.7739,784,0,
11926.9,1.32843,0.497437,2.538,11.7739,784,0,
11926.9,1.32843,0.495912,2.538,11.7739,784,0,
11926.9,1.32874,0.495912,2.538,11.7739,784,0,
11926.9,1.32904,0.483705,2.538,11.7739,784,0,
11926.9,1.32874,0.482179,2.538,11.7739,784,0,
11926.9,1.32874,0.48523,2.538,11.7739,784,0,
11926.9,1.32385,0.48523,2.538,11.7739,784,0,
11926.9,1.32446,0.469972,2.538,11.7739,784,0,
11926.9,1.32416,0.471498,2.538,11.7739,784,0,
11926.9,1.32446,0.468446,2.538,11.7739,784,0,
11927,1.32446,0.469972,2.538,11.7739,784,0,
11927,1.32416,0.469972,2.538,11.7739,784,0,
11927,1.32324,0.46692,2.538,11.7739,784,0,
11927,1.32385,0.457765,2.538,11.7739,784,0,
11927,1.31866,0.457765,2.538,11.7739,784,0,
11927,1.31958,0.463868,2.538,11.7739,784,0,
11927,1.31866,0.459291,2.538,11.7739,784,0,
11927,1.31897,0.457765,2.538,11.7739,784,0,
11927,1.31958,0.459291,2.538,11.7739,784,0,
11927,1.31927,0.459291,2.538,11.7739,784,0,
11927,1.31958,0.456239,2.538,11.7739,784,0,
11927,1.31439,0.459291,2.538,11.7739,784,0,
11927,1.31378,0.459291,2.538,11.7739,784,0,
11927,1.31439,0.456239,2.538,11.7739,784,0,
11927,1.31378,0.459291,2.538,11.7739,784,0,
11927,1.31439,0.457765,2.538,11.7739,784,0,
11927,1.31409,0.460816,2.538,11.7739,784,0,
11927,1.30951,0.457765,2.538,11.7739,784,0,
11927,1.3089,0.456239,2.538,11.7739,784,0,
11927,1.3092,0.459291,2.538,11.7739,784,0,
11927,1.30951,0.457765,2.538,11.7739,784,0,
11927,1.3089,0.459291,2.538,11.7739,784,0,
11927,1.30951,0.460816,2.538,11.7739,784,0,
11927,1.30432,0.457765,2.538,11.7739,784,0,
11927,1.30463,0.457765,2.538,11.7739,784,0,
11927,1.30371,0.460816,2.538,11.7739,784,0,
11927,1.30432,0.462342,2.538,11.7739,784,0,
11927,1.30402,0.459291,2.538,11.7739,784,0,
11927,1.30432,0.460816,2.538,11.7739,784,0,
11927,1.29944,0.460816,2.538,11.7739,784,0,
11927,1.29913,0.462342,2.538,11.7739,784,0,
11927,1.29944,0.468446,2.538,11.7739,784,0,
11927,1.29913,0.473023,2.538,11.7739,784,0,
11927,1.29944,0.469972,2.538,11.7739,784,0,
11927,1.29639,0.468446,2.538,11.7739,784,0,
11927,1.29456,0.473023,2.538,11.7739,784,0,
11927,1.29425,0.471498,2.538,11.7739,784,0,
11927,1.29395,0.471498,2.538,11.7739,784,0,
11927,1.29486,0.469972,2.538,11.7739,784,0,
11927,1.29486,0.473023,2.538,11.7739,784,0,
11927,1.28967,0.486756,2.538,11.7739,784,0,
11927,1.28906,0.482179,2.538,11.7739,784,0,
11927,1.28937,0.48523,2.538,11.7739,784,0,
11927,1.28937,0.483705,2.538,11.7739,784,0,
11927,1.28937,0.48523,2.538,11.7739,784,0,
11927,1.28479,0.48523,2.538,11.7739,784,0,
11927,1.28479,0.483705,2.538,11.7739,784,0,
11927,1.28448,0.480653,2.538,11.7739,784,0,
11927,1.2851,0.483705,2.538,11.7739,784,0,
11927,1.28448,0.49286,2.538,11.7739,784,0,
11927,1.28082,0.497437,2.538,11.7739,784,0,
11927.1,1.2796,0.494386,2.538,11.7739,784,0,
11927.1,1.2796,0.495912,2.538,11.7739,784,0,
11927.1,1.28021,0.494386,2.538,11.7739,784,0,
11927.1,1.28021,0.495912,2.538,11.7739,784,0,
11927.1,1.27747,0.497437,2.538,11.7739,784,0,
11927.1,1.27441,0.495912,2.538,11.7739,784,0,
11927.1,1.27502,0.491334,2.538,11.7739,784,0,
11927.1,1.27472,0.495912,2.538,11.7739,784,0,
11927.1,1.27533,0.494386,2.538,11.7739,784,0,
11927.1,1.27289,0.506593,2.538,11.7739,784,0,
11927.1,1.26984,0.51117,2.538,11.7739,784,0,
11927.1,1.27014,0.506593,2.538,11.7739,784,0,
11927.1,1.27014,0.51117,2.538,11.7739,784,0,
11927.1,1.26984,0.508119,2.538,11.7739,784,0,
11927.1,1.26709,0.509645,2.538,11.7739,784,0,
11927.1,1.26526,0.509645,2.538,11.7739,784,0,
11927.1,1.26495,0.508119,2.538,11.7739,784,0,
11927.1,1.26526,0.508119,2.538,11.7739,784,0,
11927.1,1.26495,0.508119,2.538,11.7739,784,0,
11927.1,1.26556,0.505067,2.538,11.7739,784,0,
11927.1,1.26007,0.506593,2.538,11.7739,784,0,
11927.1,1.26007,0.508119,2.538,11.7739,784,0,
11927.1,1.25977,0.509645,2.538,11.7739,784,0,
11927.1,1.26007,0.505067,2.538,11.7739,784,0,
11927.1,1.26038,0.508119,2.538,11.7739,784,0,
11927.1,1.25519,0.508119,2.538,11.7739,784,0,
11927.1,1.25519,0.512696,2.538,11.7739,784,0,
11927.1,1.25549,0.521852,2.538,11.7739,784,0,
11927.1,1.25519,0.521852,2.538,11.7739,784,0,
11927.1,1.25519,0.520326,2.538,11.7739,784,0,
11927.1,1.25061,0.521852,2.538,11.7739,784,0,
11927.1,1.25092,0.520326,2.538,11.7739,784,0,
11927.1,1.25031,0.5188,2.538,11.7739,784,0,
11927.1,1.25,0.521852,2.538,11.7739,784,0,
11927.1,1.25,0.520326,2.538,11.7739,784,0,
11927.1,1.24603,0.520326,2.538,11.7739,784,0,
11927.1,1.24512,0.521852,2.538,11.7739,784,0,
11927.1,1.24542,0.520326,2.538,11.7739,784,0,
11927.1,1.24542,0.520326,2.538,11.7739,784,0,
11927.1,1.24573,0.520326,2.538,11.7739,784,0,
11927.1,1.24542,0.523377,2.538,11.7739,784,0,
11927.1,1.24054,0.517274,2.538,11.7739,784,0,
11927.1,1.24054,0.5188,2.538,11.7739,784,0,
11927.1,1.24084,0.520326,2.538,11.7739,784,0,
11927.1,1.24115,0.520326,2.538,11.7739,784,0,
11927.1,1.24084,0.521852,2.538,11.7739,784,0,
11927.1,1.23627,0.5188,2.538,11.7739,784,0,
11927.1,1.23596,0.520326,2.538,11.7739,784,0,
11927.1,1.23596,0.520326,2.538,11.7739,784,0,
11927.1,1.23535,0.521852,2.538,11.7739,784,0,
11927.2,1.23657,0.520326,2.538,11.7739,784,0,
11927.2,1.23627,0.524903,2.538,11.7739,784,0,
11927.2,1.23169,0.520326,2.538,11.7739,784,0,
11927.2,1.23169,0.520326,2.538,11.7739,784,0,
11927.2,1.23169,0.520326,2.538,11.7739,784,0,
11927.2,1.2323,0.521852,2.538,11.7739,784,0,
11927.2,1.23108,0.520326,2.538,11.7739,784,0,
11927.2,1.22681,0.523377,2.538,11.7739,784,0,
11927.2,1.22589,0.521852,2.538,11.7739,784,0,
11927.2,1.2265,0.524903,2.538,11.7739,784,0,
11927.2,1.2262,0.520326,2.538,11.7739,784,0,
11927.2,1.22681,0.520326,2.538,11.7739,784,0,
11927.2,1.2262,0.5188,2.538,11.7739,784,0,
11927.2,1.22223,0.524903,2.538,11.7739,784,0,
11927.2,1.22162,0.5188,2.538,11.7739,784,0,
11927.2,1.22131,0.520326,2.538,11.7739,784,0,
11927.2,1.22131,0.5188,2.538,11.7739,784,0,
11927.2,1.22131,0.517274,2.538,11.7739,784,0,
11927.2,1.2207,0.517274,2.538,11.7739,784,0,
11927.2,1.21674,0.5188,2.538,11.7739,784,0,
11927.2,1.21674,0.520326,2.538,11.7739,784,0,
11927.2,1.21643,0.517274,2.538,11.7739,784,0,
11927.2,1.21582,0.520326,2.538,11.7739,784,0,
11927.2,1.21643,0.520326,2.538,11.7739,784,0,
11927.2,1.21674,0.520326,2.538,11.7739,784,0,
11927.2,1.21613,0.517274,2.538,11.7739,784,0,
11927.2,1.21216,0.517274,2.538,11.7739,784,0,
11927.2,1.21124,0.520326,2.538,11.7739,784,0,
11927.2,1.21185,0.521852,2.538,11.7739,784,0,
11927.2,1.21155,0.521852,2.538,11.7739,784,0,
11927.2,1.21094,0.523377,2.538,11.7739,784,0,
11927.2,1.21155,0.5188,2.538,11.7739,784,0,
11927.2,1.20697,0.5188,2.538,11.7739,784,0,
11927.2,1.20667,0.517274,2.538,11.7739,784,0,
11927.2,1.20667,0.521852,2.538,11.7739,784,0,
11927.2,1.20667,0.5188,2.538,11.7739,784,0,
11927.2,1.20667,0.5188,2.538,11.7739,784,0,
11927.2,1.20636,0.5188,2.538,11.7739,784,0,
11927.2,1.20697,0.523377,2.538,11.7739,784,0,
11927.2,1.20483,0.521852,2.538,11.7739,784,0,
11927.2,1.20148,0.520326,2.538,11.7739,784,0,
11927.2,1.20148,0.531007,2.538,11.7739,784,0,
11927.2,1.20178,0.531007,2.538,11.7739,784,0,
11927.2,1.20148,0.534059,2.538,11.7739,784,0,
11927.2,1.20148,0.532533,2.538,11.7739,784,0,
11927.2,1.20148,0.529481,2.538,11.7739,784,0,
11927.2,1.20148,0.531007,2.538,11.7739,784,0,
11927.2,1.19659,0.535584,2.538,11.7739,784,0,
11927.2,1.19659,0.529481,2.538,11.7739,784,0,
11927.2,1.1969,0.531007,2.538,11.7739,784,0,
11927.3,1.19629,0.534059,2.538,11.7739,784,0,
11927.3,1.19598,0.534059,2.538,11.7739,784,0,
11927.3,1.1969,0.534059,2.538,11.7739,784,0,
11927.3,1.19598,0.529481,2.538,11.7739,784,0,
11927.3,1.19659,0.531007,2.538,11.7739,784,0,
11927.3,1.19141,0.53711,2.538,11.7739,784,0,
11927.3,1.19202,0.529481,2.538,11.7739,784,0,
11927.3,1.19202,0.531007,2.538,11.7739,784,0,
11927.3,1.19263,0.529481,2.538,11.7739,784,0,
11927.3,1.19232,0.535584,2.538,11.7739,784,0,
11927.3,1.19263,0.531007,2.538,11.7739,784,0,
11927.3,1.1911,0.529481,2.538,11.7739,784,0,
11927.3,1.19202,0.538636,2.538,11.7739,784,0,
11927.3,1.19171,0.543214,2.538,11.7739,784,0,
11927.3,1.18652,0.54474,2.538,11.7739,784,0,
11927.3,1.18713,0.54474,2.538,11.7739,784,0,
11927.3,1.18591,0.543214,2.538,11.7739,784,0,
11927.3,1.18591,0.540162,2.538,11.7739,784,0,
11927.3,1.18622,0.540162,2.538,11.7739,784,0,
11927.3,1.18622,0.541688,2.538,11.7739,784,0,
11927.3,1.18683,0.546266,2.538,11.7739,784,0,
11927.3,1.18683,0.546266,2.538,11.7739,784,0,
11927.3,1.18683,0.54474,2.538,11.7739,784,0,
11927.3,1.18134,0.543214,2.538,11.7739,784,0,
11927.3,1.18164,0.543214,2.538,11.7739,784,0,
11927.3,1.18164,0.546266,2.538,11.7739,784,0,
11927.3,1.18195,0.54474,2.538,11.7739,784,0,
11927.3,1.18164,0.54474,2.538,11.7739,784,0,
11927.3,1.18195,0.547791,2.538,11.7739,784,0,
11927.3,1.18134,0.553895,2.538,11.7739,784,0,
11927.3,1.18164,0.555421,2.538,11.7739,784,0,
11927.3,1.18103,0.555421,2.538,11.7739,784,0,
11927.3,1.18164,0.555421,2.538,11.7739,784,0,
11927.3,1.17889,0.556947,2.538,11.7739,784,0,
11927.3,1.17737,0.555421,2.538,11.7739,784,0,
11927.3,1.17645,0.558473,2.538,11.7739,784,0,
11927.3,1.17615,0.555421,2.538,11.7739,784,0,
11927.3,1.17676,0.559999,2.538,11.7739,784,0,
11927.3,1.17676,0.559999,2.538,11.7739,784,0,
11927.3,1.17584,0.558473,2.538,11.7739,784,0,
11927.3,1.17706,0.559999,2.538,11.7739,784,0,
11927.3,1.17676,0.558473,2.538,11.7739,784,0,
11927.3,1.17767,0.558473,2.538,11.7739,784,0,
11927.3,1.17706,0.558473,2.538,11.7739,784,0,
11927.3,1.17676,0.567628,2.538,11.7739,784,0,
11927.3,1.17188,0.57068,2.538,11.7739,784,0,
11927.3,1.17157,0.569154,2.538,11.7739,784,0,
11927.3,1.17188,0.569154,2.538,11.7739,784,0,
11927.3,1.17126,0.569154,2.538,11.7739,784,0,
11927.4,1.17279,0.566102,2.538,11.7739,784,0,
11927.4,1.17218,0.567628,2.538,11.7739,784,0,
11927.4,1.17188,0.566102,2.538,11.7739,784,0,
11927.4,1.17279,0.57068,2.538,11.7739,784,0,
11927.4,1.17218,0.569154,2.538,11.7739,784,0,
11927.4,1.17188,0.569154,2.538,11.7739,784,0,
11927.4,1.17218,0.57068,2.538,11.7739,784,0,
11927.4,1.17249,0.569154,2.538,11.7739,784,0,
11927.4,1.1673,0.569154,2.538,11.7739,784,0,
11927.4,1.1673,0.579835,2.538,11.7739,784,0,
11927.4,1.16791,0.581361,2.538,11.7739,784,0,
11927.4,1.1676,0.581361,2.538,11.7739,784,0,
11927.4,1.16638,0.576783,2.538,11.7739,784,0,
11927.4,1.16791,0.579835,2.538,11.7739,784,0,
11927.4,1.16699,0.582887,2.538,11.7739,784,0,
11927.4,1.16638,0.581361,2.538,11.7739,784,0,
11927.4,1.1673,0.584413,2.538,11.7739,784,0,
11927.4,1.16699,0.585938,2.538,11.7739,784,0,
11927.4,1.1676,0.581361,2.538,11.7739,784,0,
11927.4,1.16699,0.584413,2.538,11.7739,784,0,
11927.4,1.16302,0.581361,2.538,11.7739,784,0,
11927.4,1.16211,0.581361,2.538,11.7739,784,0,
11927.4,1.16241,0.592042,2.538,11.7739,784,0,
11927.4,1.16241,0.592042,2.538,11.7739,784,0,
11927.4,1.16241,0.592042,2.538,11.7739,784,0,
11927.4,1.16302,0.590516,2.538,11.7739,784,0,
11927.4,1.16272,0.592042,2.538,11.7739,784,0,
11927.4,1.16211,0.590516,2.538,11.7739,784,0,
11927.4,1.16211,0.592042,2.538,11.7739,784,0,
11927.4,1.1615,0.595094,2.538,11.7739,784,0,
11927.4,1.16241,0.595094,2.538,11.7739,784,0,
11927.4,1.1615,0.593568,2.538,11.7739,784,0,
11927.4,1.15753,0.593568,2.538,11.7739,784,0,
11927.4,1.15662,0.593568,2.538,11.7739,784,0,
11927.4,1.15692,0.593568,2.538,11.7739,784,0,
11927.4,1.15631,0.604249,2.538,11.7739,784,0,
11927.4,1.15753,0.605775,2.538,11.7739,784,0,
11927.4,1.15723,0.605775,2.538,11.7739,784,0,
11927.4,1.15723,0.607301,2.538,11.7739,784,0,
11927.4,1.15723,0.611878,2.538,11.7739,784,0,
11927.4,1.15784,0.602723,2.538,11.7739,784,0,
11927.4,1.15784,0.604249,2.538,11.7739,784,0,
11927.4,1.15295,0.607301,2.538,11.7739,784,0,
11927.4,1.15265,0.604249,2.538,11.7739,784,0,
11927.4,1.15173,0.604249,2.538,11.7739,784,0,
11927.4,1.15234,0.604249,2.538,11.7739,784,0,
11927.4,1.15265,0.605775,2.538,11.7739,784,0,
11927.4,1.15173,0.607301,2.538,11.7739,784,0,
11927.4,1.15295,0.604249,2.538,11.7739,784,0,
11927.4,1.15265,0.605775,2.538,11.7739,784,0,
11927.5,1.15204,0.605775,2.538,11.7739,784,0,
11927.5,1.1496,0.602723,2.538,11.7739,784,0,
11927.5,1.14807,0.608827,2.538,11.7739,784,0,
11927.5,1.14655,0.605775,2.538,11.7739,784,0,
11927.5,1.14655,0.617982,2.538,11.7739,784,0,
11927.5,1.14716,0.621034,2.538,11.7739,784,0,
11927.5,1.14716,0.616456,2.538,11.7739,784,0,
11927.5,1.14746,0.61493,2.538,11.7739,784,0,
11927.5,1.14777,0.616456,2.538,11.7739,784,0,
11927.5,1.14716,0.617982,2.538,11.7739,784,0,
11927.5,1.14349,0.611878,2.538,11.7739,784,0,
11927.5,1.14227,0.619508,2.538,11.7739,784,0,
11927.5,1.14288,0.619508,2.538,11.7739,784,0,
11927.5,1.14166,0.619508,2.538,11.7739,784,0,
11927.5,1.14227,0.617982,2.538,11.7739,784,0,
11927.5,1.14288,0.619508,2.538,11.7739,784,0,
11927.5,1.14288,0.617982,2.538,11.7739,784,0,
11927.5,1.14197,0.617982,2.538,11.7739,784,0,
11927.5,1.13983,0.616456,2.538,11.7739,784,0,
11927.5,1.13678,0.617982,2.538,11.7739,784,0,
11927.5,1.138,0.617982,2.538,11.7739,784,0,
11927.5,1.138,0.617982,2.538,11.7739,784,0,
11927.5,1.13708,0.617982,2.538,11.7739,784,0,
11927.5,1.13739,0.619508,2.538,11.7739,784,0,
11927.5,1.1377,0.61493,2.538,11.7739,784,0,
11927.5,1.13739,0.61493,2.538,11.7739,784,0,
11927.5,1.13525,0.616456,2.538,11.7739,784,0,
11927.5,1.13312,0.621034,2.538,11.7739,784,0,
11927.5,1.13312,0.617982,2.538,11.7739,784,0,
11927.5,1.1322,0.616456,2.538,11.7739,784,0,
11927.5,1.13281,0.616456,2.538,11.7739,784,0,
11927.5,1.1322,0.617982,2.538,11.7739,784,0,
11927.5,1.13281,0.61493,2.538,11.7739,784,0,
11927.5,1.13312,0.619508,2.538,11.7739,784,0,
11927.5,1.12915,0.627137,2.538,11.7739,784,0,
11927.5,1.12762,0.628663,2.538,11.7739,784,0,
11927.5,1.12793,0.631715,2.538,11.7739,784,0,
11927.5,1.12762,0.628663,2.538,11.7739,784,0,
11927.5,1.12854,0.630189,2.538,11.7739,784,0,
11927.5,1.12793,0.630189,2.538,11.7739,784,0,
11927.5,1.12915,0.628663,2.538,11.7739,784,0,
11927.5,1.12762,0.633241,2.538,11.7739,784,0,
11927.5,1.12244,0.630189,2.538,11.7739,784,0,
11927.5,1.12305,0.628663,2.538,11.7739,784,0,
11927.5,1.12305,0.630189,2.538,11.7739,784,0,
11927.5,1.12305,0.630189,2.538,11.7739,784,0,
11927.5,1.12244,0.631715,2.538,11.7739,784,0,
11927.5,1.12305,0.628663,2.538,11.7739,784,0,
11927.5,1.12305,0.628663,2.538,11.7739,784,0,
11927.5,1.11877,0.627137,2.538,11.7739,784,0,
11927.5,1.11786,0.631715,2.538,11.7739,784,0,
11927.6,1.11786,0.630189,2.538,11.7739,784,0,
11927.6,1.11847,0.630189,2.538,11.7739,784,0,
11927.6,1.11816,0.643922,2.538,11.7739,784,0,
11927.6,1.11816,0.642396,2.538,11.7739,784,0,
11927.6,1.11786,0.642396,2.538,11.7739,784,0,
11927.6,1.11603,0.642396,2.538,11.7739,784,0,
11927.6,1.11328,0.642396,2.538,11.7739,784,0,
11927.6,1.11237,0.639344,2.538,11.7739,784,0,
11927.6,1.11359,0.639344,2.538,11.7739,784,0,
11927.6,1.11298,0.64087,2.538,11.7739,784,0,
11927.6,1.11298,0.645448,2.538,11.7739,784,0,
11927.6,1.11237,0.64087,2.538,11.7739,784,0,
11927.6,1.11023,0.642396,2.538,11.7739,784,0,
11927.6,1.1084,0.64087,2.538,11.7739,784,0,
11927.6,1.10779,0.64087,2.538,11.7739,784,0,
11927.6,1.10779,0.643922,2.538,11.7739,784,0,
11927.6,1.10809,0.643922,2.538,11.7739,784,0,
11927.6,1.10748,0.64087,2.538,11.7739,784,0,
11927.6,1.10901,0.656129,2.538,11.7739,784,0,
11927.6,1.10565,0.657655,2.538,11.7739,784,0,
11927.6,1.10352,0.654603,2.538,11.7739,784,0,
11927.6,1.10291,0.654603,2.538,11.7739,784,0,
11927.6,1.10352,0.653077,2.538,11.7739,784,0,
11927.6,1.10352,0.654603,2.538,11.7739,784,0,
11927.6,1.10229,0.653077,2.538,11.7739,784,0,
11927.6,1.10352,0.653077,2.538,11.7739,784,0,
11927.6,1.09833,0.653077,2.538,11.7739,784,0,
11927.6,1.09833,0.654603,2.538,11.7739,784,0,
11927.6,1.09833,0.653077,2.538,11.7739,784,0,
11927.6,1.09863,0.656129,2.538,11.7739,784,0,
11927.6,1.09833,0.650025,2.538,11.7739,784,0,
11927.6,1.09833,0.654603,2.538,11.7739,784,0,
11927.6,1.09833,0.654603,2.538,11.7739,784,0,
11927.6,1.09344,0.651551,2.538,11.7739,784,0,
11927.6,1.09375,0.657655,2.538,11.7739,784,0,
11927.6,1.09344,0.654603,2.538,11.7739,784,0,
11927.6,1.09375,0.654603,2.538,11.7739,784,0,
11927.6,1.09344,0.668336,2.538,11.7739,784,0,
11927.6,1.09314,0.665284,2.538,11.7739,784,0,
11927.6,1.08917,0.668336,2.538,11.7739,784,0,
11927.6,1.08887,0.668336,2.538,11.7739,784,0,
11927.6,1.08856,0.668336,2.538,11.7739,784,0,
11927.6,1.08887,0.66681,2.538,11.7739,784,0,
11927.6,1.08856,0.671388,2.538,11.7739,784,0,
11927.6,1.08856,0.665284,2.538,11.7739,784,0,
11927.6,1.08459,0.668336,2.538,11.7739,784,0,
11927.6,1.08429,0.66681,2.538,11.7739,784,0,
11927.6,1.08398,0.668336,2.538,11.7739,784,0,
11927.6,1.08398,0.668336,2.538,11.7739,784,0,
11927.6,1.08368,0.669862,2.538,11.7739,784,0,
11927.7,1.08398,0.669862,2.538,11.7739,784,0,
11927.7,1.07971,0.680543,2.538,11.7739,784,0,
11927.7,1.07941,0.680543,2.538,11.7739,784,0,
11927.7,1.0791,0.677491,2.538,11.7739,784,0,
11927.7,1.0788,0.680543,2.538,11.7739,784,0,
11927.7,1.0788,0.679017,2.538,11.7739,784,0,
11927.7,1.07849,0.682069,2.538,11.7739,784,0,
11927.7,1.07452,0.688172,2.538,11.7739,784,0,
11927.7,1.0733,0.691224,2.538,11.7739,784,0,
11927.7,1.07391,0.686646,2.538,11.7739,784,0,
11927.7,1.07361,0.701905,2.538,11.7739,784,0,
11927.7,1.0733,0.706483,2.538,11.7739,784,0,
11927.7,1.07361,0.704957,2.538,11.7739,784,0,
11927.7,1.06934,0.715638,2.538,11.7739,784,0,
11927.7,1.06964,0.715638,2.538,11.7739,784,0,
11927.7,1.06903,0.720216,2.538,11.7739,784,0,
11927.7,1.06934,0.727845,2.538,11.7739,784,0,
11927.7,1.06964,0.726319,2.538,11.7739,784,0,
11927.7,1.06934,0.729371,2.538,11.7739,784,0,
11927.7,1.06384,0.743104,2.538,11.7739,784,0,
11927.7,1.06323,0.738526,2.538,11.7739,784,0,
11927.7,1.06354,0.750733,2.538,11.7739,784,0,
11927.7,1.06323,0.755311,2.538,11.7739,784,0,
11927.7,1.06445,0.756837,2.538,11.7739,784,0,
11927.7,1.06384,0.767518,2.538,11.7739,784,0,
11927.7,1.05957,0.765992,2.538,11.7739,784,0,
11927.7,1.05957,0.775147,2.538,11.7739,784,0,
11927.7,1.05896,0.773622,2.538,11.7739,784,0,
11927.7,1.05957,0.791932,2.538,11.7739,784,0,
11927.7,1.05927,0.785829,2.538,11.7739,784,0,
11927.7,1.05927,0.802613,2.538,11.7739,784,0,
11927.7,1.05469,0.802613,2.538,11.7739,784,0,
11927.7,1.0553,0.813294,2.538,11.7739,784,0,
11927.7,1.05408,0.813294,2.538,11.7739,784,0,
11927.7,1.0553,0.825501,2.538,11.7739,784,0,
11927.7,1.05438,0.823976,2.538,11.7739,784,0,
11927.7,1.05408,0.837708,2.538,11.7739,784,0,
11927.7,1.05164,0.834657,2.538,11.7739,784,0,
11927.7,1.0495,0.849916,2.538,11.7739,784,0,
11927.7,1.0495,0.849916,2.538,11.7739,784,0,
11927.7,1.0498,0.860597,2.538,11.7739,784,0,
11927.7,1.04919,0.868226,2.538,11.7739,784,0,
11927.7,1.04889,0.875855,2.538,11.7739,784,0,
11927.7,1.05011,0.883485,2.538,11.7739,784,0,
11927.7,1.04736,0.885011,2.538,11.7739,784,0,
11927.7,1.04492,0.901795,2.538,11.7739,784,0,
11927.7,1.04523,0.898744,2.538,11.7739,784,0,
11927.7,1.04523,0.909425,2.538,11.7739,784,0,
11927.7,1.04431,0.91858,2.538,11.7739,784,0,
11927.8,1.04401,0.923158,2.538,11.7739,784,0,
11927.8,1.04492,0.932313,2.538,11.7739,784,0,
11927.8,1.04401,0.938416,2.538,11.7739,784,0,
11927.8,1.04004,0.949098,2.538,11.7739,784,0,
11927.8,1.04004,0.946046,2.538,11.7739,784,0,
11927.8,1.03943,0.962831,2.538,11.7739,784,0,
11927.8,1.04034,0.955201,2.538,11.7739,784,0,
11927.8,1.04004,0.973512,2.538,11.7739,784,0,
11927.8,1.03912,0.978089,2.538,11.7739,784,0,
11927.8,1.04034,0.985719,2.538,11.7739,784,0,
11927.8,1.04004,0.990296,2.538,11.7739,784,0,
11927.8,1.03729,0.999452,2.538,11.7739,784,0,
11927.8,1.03485,0.997926,2.538,11.7739,784,0,
11927.8,1.03424,1.00861,2.538,11.7739,784,0,
11927.8,1.03424,1.01318,2.538,11.7739,784,0,
11927.8,1.03455,1.02387,2.538,11.7739,784,0,
11927.8,1.03485,1.02081,2.538,11.7739,784,0,
11927.8,1.03485,1.03455,2.538,11.7739,784,0,
11927.8,1.03455,1.03302,2.538,11.7739,784,0,
11927.8,1.03424,1.04828,2.538,11.7739,784,0,
11927.8,1.03424,1.04981,2.538,11.7739,784,0,
11927.8,1.02997,1.05591,2.538,11.7739,784,0,
11927.8,1.03027,1.06049,2.538,11.7739,784,0,
11927.8,1.02966,1.05744,2.538,11.7739,784,0,
11927.8,1.03027,1.07269,2.538,11.7739,784,0,
11927.8,1.02966,1.06964,2.538,11.7739,784,0,
11927.8,1.02997,1.07422,2.538,11.7739,784,0,
11927.8,1.02936,1.08337,2.538,11.7739,784,0,
11927.8,1.02966,1.08337,2.538,11.7739,784,0,
11927.8,1.02936,1.09558,2.538,11.7739,784,0,
11927.8,1.03058,1.09558,2.538,11.7739,784,0,
11927.8,1.02539,1.09558,2.538,11.7739,784,0,
11927.8,1.02539,1.11237,2.538,11.7739,784,0,
11927.8,1.02539,1.10474,2.538,11.7739,784,0,
11927.8,1.02539,1.10779,2.538,11.7739,784,0,
11927.8,1.02539,1.11847,2.538,11.7739,784,0,
11927.8,1.02539,1.12152,2.538,11.7739,784,0,
11927.8,1.02539,1.12,2.538,11.7739,784,0,
11927.8,1.02448,1.13068,2.538,11.7739,784,0,
11927.8,1.02478,1.13678,2.538,11.7739,784,0,
11927.8,1.02417,1.13525,2.538,11.7739,784,0,
11927.8,1.0257,1.1322,2.538,11.7739,784,0,
11927.8,1.02386,1.14441,2.538,11.7739,784,0,
11927.8,1.02051,1.14594,2.538,11.7739,784,0,
11927.8,1.0202,1.14441,2.538,11.7739,784,0,
11927.8,1.02051,1.14594,2.538,11.7739,784,0,
11927.8,1.0199,1.15662,2.538,11.7739,784,0,
11927.8,1.0199,1.15814,2.538,11.7739,784,0,
11927.8,1.02051,1.15357,2.538,11.7739,784,0,
11927.8,1.0202,1.15814,2.538,11.7739,784,0,
11927.9,1.01959,1.16882,2.538,11.7739,784,0,
11927.9,1.0199,1.16882,2.538,11.7739,784,0,
11927.9,1.01959,1.17188,2.538,11.7739,784,0,
11927.9,1.0199,1.1734,2.538,11.7739,784,0,
11927.9,1.01959,1.17188,2.538,11.7739,784,0,
11927.9,1.0202,1.18103,2.538,11.7739,784,0,
11927.9,1.02051,1.18408,2.538,11.7739,784,0,
11927.9,1.01562,1.18561,2.538,11.7739,784,0,
11927.9,1.01532,1.18256,2.538,11.7739,784,0,
11927.9,1.01501,1.18103,2.538,11.7739,784,0,
11927.9,1.01471,1.18713,2.538,11.7739,784,0,
11927.9,1.01501,1.19782,2.538,11.7739,784,0,
11927.9,1.01471,1.19629,2.538,11.7739,784,0,
11927.9,1.01562,1.19629,2.538,11.7739,784,0,
11927.9,1.01501,1.19629,2.538,11.7739,784,0,
11927.9,1.01532,1.19476,2.538,11.7739,784,0,
11927.9,1.01593,1.19782,2.538,11.7739,784,0,
11927.9,1.0144,1.20392,2.538,11.7739,784,0,
11927.9,1.01562,1.20239,2.538,11.7739,784,0,
11927.9,1.01532,1.20697,2.538,11.7739,784,0,
11927.9,1.01532,1.20697,2.538,11.7739,784,0,
11927.9,1.01562,1.20545,2.538,11.7739,784,0,
11927.9,1.01501,1.20239,2.538,11.7739,784,0,
11927.9,1.01288,1.21613,2.538,11.7739,784,0,
11927.9,1.01074,1.2207,2.538,11.7739,784,0,
11927.9,1.00983,1.2207,2.538,11.7739,784,0,
11927.9,1.01074,1.21918,2.538,11.7739,784,0,
11927.9,1.01013,1.21765,2.538,11.7739,784,0,
11927.9,1.00983,1.22223,2.538,11.7739,784,0,
11927.9,1.01013,1.23139,2.538,11.7739,784,0,
11927.9,1.01044,1.22986,2.538,11.7739,784,0,
11927.9,1.01013,1.23444,2.538,11.7739,784,0,
11927.9,1.00983,1.22986,2.538,11.7739,784,0,
11927.9,1.01013,1.22986,2.538,11.7739,784,0,
11927.9,1.01013,1.24359,2.538,11.7739,784,0,
11927.9,1.01044,1.24207,2.538,11.7739,784,0,
11927.9,1.01044,1.24359,2.538,11.7739,784,0,
11927.9,1.01105,1.24512,2.538,11.7739,784,0,
11927.9,1.00983,1.24207,2.538,11.7739,784,0,
11927.9,1.00983,1.25122,2.538,11.7739,784,0,
11927.9,1.00983,1.25427,2.538,11.7739,784,0,
11927.9,1.00525,1.25733,2.538,11.7739,784,0,
11927.9,1.00586,1.25733,2.538,11.7739,784,0,
11927.9,1.00525,1.25427,2.538,11.7739,784,0,
11927.9,1.00525,1.25733,2.538,11.7739,784,0,
11927.9,1.00555,1.26648,2.538,11.7739,784,0,
11927.9,1.00525,1.27106,2.538,11.7739,784,0,
11927.9,1.00525,1.26953,2.538,11.7739,784,0,
11927.9,1.00494,1.26801,2.538,11.7739,784,0,
11927.9,1.00555,1.26953,2.538,11.7739,784,0,
11928,1.00586,1.26801,2.538,11.7739,784,0,
11928,1.00525,1.26953,2.538,11.7739,784,0,
11928,1.00525,1.27258,2.538,11.7739,784,0,
11928,1.00525,1.28021,2.538,11.7739,784,0,
11928,1.00464,1.28327,2.538,11.7739,784,0,
11928,1.00586,1.28327,2.538,11.7739,784,0,
11928,1.00586,1.28021,2.538,11.7739,784,0,
11928,1.00555,1.28327,2.538,11.7739,784,0,
11928,1.00555,1.28174,2.538,11.7739,784,0,
11928,1.00616,1.28327,2.538,11.7739,784,0,
11928,1.00555,1.27716,2.538,11.7739,784,0,
11928,1.00616,1.28021,2.538,11.7739,784,0,
11928,1.00098,1.28327,2.538,11.7739,784,0,
11928,1.00067,1.29395,2.538,11.7739,784,0,
11928,0.999756,1.29395,2.538,11.7739,784,0,
11928,1.00098,1.29242,2.538,11.7739,784,0,
11928,1.00098,1.29395,2.538,11.7739,784,0,
11928,1.00037,1.29089,2.538,11.7739,784,0,
11928,1.00006,1.29547,2.538,11.7739,784,0,
11928,1.00098,1.29242,2.538,11.7739,784,0,
11928,1.00006,1.29547,2.538,11.7739,784,0,
11928,1.00159,1.29395,2.538,11.7739,784,0,
11928,1.00098,1.29242,2.538,11.7739,784,0,
11928,0.999756,1.29089,2.538,11.7739,784,0,
11928,0.999756,1.29242,2.538,11.7739,784,0,
11928,1.00006,1.29395,2.538,11.7739,784,0,
11928,1.00006,1.29242,2.538,11.7739,784,0,
11928,1.00006,1.29242,2.538,11.7739,784,0,
11928,1.00098,1.29395,2.538,11.7739,784,0,
11928,1.00006,1.29242,2.538,11.7739,784,0,
11928,1.00006,1.29395,2.538,11.7739,784,0,
11928,1.00067,1.30768,2.538,11.7739,784,0,
11928,1.00067,1.30158,2.538,11.7739,784,0,
11928,1.00006,1.30921,2.538,11.7739,784,0,
11928,1.00067,1.30768,2.538,11.7739,784,0,
11928,1.00006,1.3031,2.538,11.7739,784,0,
11928,0.999756,1.30768,2.538,11.7739,784,0,
11928,0.999756,1.3031,2.538,11.7739,784,0,
11928,1.00037,1.3031,2.538,11.7739,784,0,
11928,1.00067,1.30463,2.538,11.7739,784,0,
11928,1.00006,1.30615,2.538,11.7739,784,0,
11928,1.00006,1.30921,2.538,11.7739,784,0,
11928,1.00128,1.30768,2.538,11.7739,784,0,
11928,0.999756,1.30463,2.538,11.7739,784,0,
11928,1.00067,1.30921,2.538,11.7739,784,0,
11928,1.00098,1.30615,2.538,11.7739,784,0,
11928,1.00037,1.3031,2.538,11.7739,784,0,
11928,1.00098,1.31683,2.538,11.7739,784,0,
11928,1.00037,1.31531,2.538,11.7739,784,0,
11928,0.999146,1.31836,2.538,11.7739,784,0,
11928,1.00098,1.31531,2.538,11.7739,784,0,
11928.1,1.00037,1.31683,2.538,11.7739,784,0,
11928.1,1.00098,1.31836,2.538,11.7739,784,0,
11928.1,1.00067,1.31683,2.538,11.7739,784,0,
11928.1,0.999756,1.31836,2.538,11.7739,784,0,
11928.1,1.00098,1.31531,2.538,11.7739,784,0,
11928.1,0.999756,1.31836,2.538,11.7739,784,0,
11928.1,1.00037,1.32141,2.538,11.7739,784,0,
11928.1,0.999451,1.32904,2.538,11.7739,784,0,
11928.1,1.00037,1.33209,2.538,11.7739,784,0,
11928.1,1.00006,1.33057,2.538,11.7739,784,0,
11928.1,1.00067,1.33209,2.538,11.7739,784,0,
11928.1,1.00098,1.33057,2.538,11.7739,784,0,
11928.1,1.00098,1.32904,2.538,11.7739,784,0,
11928.1,1.00067,1.32904,2.538,11.7739,784,0,
11928.1,1.00037,1.33209,2.538,11.7739,784,0,
11928.1,1.00098,1.33057,2.538,11.7739,784,0,
11928.1,1.00006,1.33514,2.538,11.7739,784,0,
11928.1,1.00037,1.33972,2.538,11.7739,784,0,
11928.1,1.00037,1.33972,2.538,11.7739,784,0,
11928.1,1.00098,1.33972,2.538,11.7739,784,0,
11928.1,1.00037,1.34125,2.538,11.7739,784,0,
11928.1,1.00037,1.3382,2.538,11.7739,784,0,
11928.1,1.00067,1.34277,2.538,11.7739,784,0,
11928.1,1.00464,1.34125,2.538,11.7739,784,0,
11928.1,1.00586,1.34125,2.538,11.7739,784,0,
11928.1,1.00525,1.34125,2.538,11.7739,784,0,
11928.1,1.00464,1.34125,2.538,11.7739,784,0,
11928.1,1.00464,1.35498,2.538,11.7739,784,0,
11928.1,1.00555,1.35346,2.538,11.7739,784,0,
11928.1,1.00616,1.35193,2.538,11.7739,784,0,
11928.1,1.00494,1.35346,2.538,11.7739,784,0,
11928.1,1.00494,1.35803,2.538,11.7739,784,0,
11928.1,1.00494,1.3504,2.538,11.7739,784,0,
11928.1,1.00616,1.35498,2.538,11.7739,784,0,
11928.1,1.00525,1.35651,2.538,11.7739,784,0,
11928.1,1.00494,1.35498,2.538,11.7739,784,0,
11928.1,1.00586,1.35498,2.538,11.7739,784,0,
11928.1,1.00494,1.35498,2.538,11.7739,784,0,
11928.1,1.00525,1.35498,2.538,11.7739,784,0,
11928.1,1.00586,1.35498,2.538,11.7739,784,0,
11928.1,1.00525,1.35193,2.538,11.7739,784,0,
11928.1,1.00494,1.34888,2.538,11.7739,784,0,
11928.1,1.00494,1.35193,2.538,11.7739,784,0,
11928.1,1.00555,1.35193,2.538,11.7739,784,0,
11928.1,1.00525,1.35346,2.538,11.7739,784,0,
11928.1,1.00464,1.35346,2.538,11.7739,784,0,
11928.1,1.00586,1.35498,2.538,11.7739,784,0,
11928.1,1.00525,1.35193,2.538,11.7739,784,0,
11928.1,1.00616,1.35193,2.538,11.7739,784,0,
11928.1,1.00464,1.35498,2.538,11.7739,784,0,
11928.2,1.00555,1.35346,2.538,11.7739,784,0,
11928.2,1.00586,1.35498,2.538,11.7739,784,0,
11928.2,1.00525,1.35346,2.538,11.7739,784,0,
11928.2,1.00464,1.35498,2.538,11.7739,784,0,
11928.2,1.01074,1.3504,2.538,11.7739,784,0,
11928.2,1.01074,1.35498,2.538,11.7739,784,0,
11928.2,1.00952,1.35346,2.538,11.7739,784,0,
11928.2,1.01135,1.35803,2.538,11.7739,784,0,
11928.2,1.01013,1.35193,2.538,11.7739,784,0,
11928.2,1.01044,1.36566,2.538,11.7739,784,0,
11928.2,1.01044,1.36108,2.538,11.7739,784,0,
11928.2,1.01013,1.36719,2.538,11.7739,784,0,
11928.2,1.01013,1.36871,2.538,11.7739,784,0,
11928.2,1.01105,1.36566,2.538,11.7739,784,0,
11928.2,1.01013,1.36719,2.538,11.7739,784,0,
11928.2,1.01013,1.36719,2.538,11.7739,784,0,
11928.2,1.01013,1.36414,2.538,11.7739,784,0,
11928.2,1.01013,1.36566,2.538,11.7739,784,0,
11928.2,1.01044,1.36566,2.538,11.7739,784,0,
11928.2,1.01105,1.36871,2.538,11.7739,784,0,
11928.2,1.01074,1.36719,2.538,11.7739,784,0,
11928.2,1.01074,1.36414,2.538,11.7739,784,0,
11928.2,1.01044,1.36566,2.538,11.7739,784,0,
11928.2,1.01135,1.36414,2.538,11.7739,784,0,
11928.2,1.01013,1.36719,2.538,11.7739,784,0,
11928.2,1.01013,1.36566,2.538,11.7739,784,0,
11928.2,1.01074,1.36719,2.538,11.7739,784,0,
11928.2,1.01074,1.36871,2.538,11.7739,784,0,
11928.2,1.01105,1.36414,2.538,11.7739,784,0,
11928.2,1.01044,1.36871,2.538,11.7739,784,0,
11928.2,1.00586,1.36414,2.538,11.7739,784,0,
11928.2,1.00586,1.36566,2.538,11.7739,784,0,
11928.2,1.00464,1.36414,2.538,11.7739,784,0,
11928.2,1.00555,1.36719,2.538,11.7739,784,0,
11928.2,1.00586,1.36566,2.538,11.7739,784,0,
11928.2,1.00555,1.36719,2.538,11.7739,784,0,
11928.2,1.00555,1.36414,2.538,11.7739,784,0,
11928.2,1.00525,1.36566,2.538,11.7739,784,0,
11928.2,1.00525,1.36566,2.538,11.7739,784,0,
11928.2,1.00586,1.36719,2.538,11.7739,784,0,
11928.2,1.00586,1.36566,2.538,11.7739,784,0,
11928.2,1.00555,1.36719,2.538,11.7739,784,0,
11928.2,1.00586,1.36719,2.538,11.7739,784,0,
11928.2,1.00555,1.36719,2.538,11.7739,784,0,
11928.2,1.00128,1.36719,2.538,11.7739,784,0,
11928.2,1.00006,1.36871,2.538,11.7739,784,0,
11928.2,1.00098,1.36719,2.538,11.7739,784,0,
11928.2,1.00037,1.36871,2.538,11.7739,784,0,
11928.2,1.00006,1.36566,2.538,11.7739,784,0,
11928.2,1.00067,1.36719,2.538,11.7739,784,0,
11928.3,1.00067,1.36719,2.538,11.7739,784,0,
11928.3,0.999451,1.36719,2.538,11.7739,784,0,
11928.3,1.00098,1.36871,2.538,11.7739,784,0,
11928.3,0.996094,1.36414,2.538,11.7739,784,0,
11928.3,0.995483,1.36414,2.538,11.7739,784,0,
11928.3,0.995789,1.36719,2.538,11.7739,784,0,
11928.3,0.995483,1.36871,2.538,11.7739,784,0,
11928.3,0.994873,1.36871,2.538,11.7739,784,0,
11928.3,0.995178,1.35193,2.538,11.7739,784,0,
11928.3,0.995178,1.35346,2.538,11.7739,784,0,
11928.3,0.991211,1.35193,2.538,11.7739,784,0,
11928.3,0.990601,1.35498,2.538,11.7739,784,0,
11928.3,0.990295,1.35498,2.538,11.7739,784,0,
11928.3,0.990601,1.35651,2.538,11.7739,784,0,
11928.3,0.990601,1.35498,2.538,11.7739,784,0,
11928.3,0.990295,1.35346,2.538,11.7739,784,0,
11928.3,0.988464,1.35193,2.538,11.7739,784,0,
11928.3,0.985718,1.3504,2.538,11.7739,784,0,
11928.3,0.985413,1.35193,2.538,11.7739,784,0,
11928.3,0.986023,1.35346,2.538,11.7739,784,0,
11928.3,0.985413,1.35193,2.538,11.7739,784,0,
11928.3,0.985718,1.35346,2.538,11.7739,784,0,
11928.3,0.983276,1.3504,2.538,11.7739,784,0,
11928.3,0.981445,1.35193,2.538,11.7739,784,0,
11928.3,0.980835,1.35651,2.538,11.7739,784,0,
11928.3,0.98053,1.3504,2.538,11.7739,784,0,
11928.3,0.98114,1.35346,2.538,11.7739,784,0,
11928.3,0.98053,1.35651,2.538,11.7739,784,0,
11928.3,0.975647,1.35498,2.538,11.7739,784,0,
11928.3,0.976257,1.35193,2.538,11.7739,784,0,
11928.3,0.975342,1.35651,2.538,11.7739,784,0,
11928.3,0.975037,1.35346,2.538,11.7739,784,0,
11928.3,0.975647,1.35193,2.538,11.7739,784,0,
11928.3,0.973511,1.35498,2.538,11.7739,784,0,
11928.3,0.970154,1.35346,2.538,11.7739,784,0,
11928.3,0.970764,1.35346,2.538,11.7739,784,0,
11928.3,0.971069,1.35498,2.538,11.7739,784,0,
11928.3,0.97168,1.3504,2.538,11.7739,784,0,
11928.3,0.971069,1.35193,2.538,11.7739,784,0,
11928.3,0.965881,1.35498,2.538,11.7739,784,0,
11928.3,0.965881,1.35651,2.538,11.7739,784,0,
11928.3,0.965576,1.35651,2.538,11.7739,784,0,
11928.3,0.966187,1.35193,2.538,11.7739,784,0,
11928.3,0.966492,1.35346,2.538,11.7739,784,0,
11928.3,0.960999,1.35498,2.538,11.7739,784,0,
11928.3,0.961304,1.35193,2.538,11.7739,784,0,
11928.3,0.960999,1.35346,2.538,11.7739,784,0,
11928.3,0.961304,1.35346,2.538,11.7739,784,0,
11928.3,0.960999,1.35803,2.538,11.7739,784,0,
11928.4,0.955811,1.35346,2.538,11.7739,784,0,
11928.4,0.956421,1.35651,2.538,11.7739,784,0,
11928.4,0.955811,1.35651,2.538,11.7739,784,0,
11928.4,0.956421,1.35346,2.538,11.7739,784,0,
11928.4,0.956116,1.35651,2.538,11.7739,784,0,
11928.4,0.951233,1.35803,2.538,11.7739,784,0,
11928.4,0.951233,1.35346,2.538,11.7739,784,0,
11928.4,0.951233,1.35193,2.538,11.7739,784,0,
11928.4,0.951538,1.35651,2.538,11.7739,784,0,
11928.4,0.950928,1.35193,2.538,11.7739,784,0,
11928.4,0.946045,1.35346,2.538,11.7739,784,0,
11928.4,0.94635,1.35498,2.538,11.7739,784,0,
11928.4,0.946655,1.35193,2.538,11.7739,784,0,
11928.4,0.94635,1.35346,2.538,11.7739,784,0,
11928.4,0.946045,1.35651,2.538,11.7739,784,0,
11928.4,0.941467,1.35193,2.538,11.7739,784,0,
11928.4,0.941467,1.35498,2.538,11.7739,784,0,
11928.4,0.941467,1.35193,2.538,11.7739,784,0,
11928.4,0.941467,1.35803,2.538,11.7739,784,0,
11928.4,0.941772,1.35346,2.538,11.7739,784,0,
11928.4,0.937195,1.35193,2.538,11.7739,784,0,
11928.4,0.936584,1.35346,2.538,11.7739,784,0,
11928.4,0.937195,1.36261,2.538,11.7739,784,0,
11928.4,0.937195,1.36719,2.538,11.7739,784,0,
11928.4,0.936584,1.36414,2.538,11.7739,784,0,
11928.4,0.931702,1.36871,2.538,11.7739,784,0,
11928.4,0.931702,1.36414,2.538,11.7739,784,0,
11928.4,0.932007,1.36566,2.538,11.7739,784,0,
11928.4,0.932007,1.36871,2.538,11.7739,784,0,
11928.4,0.932617,1.36566,2.538,11.7739,784,0,
11928.4,0.927429,1.36566,2.538,11.7739,784,0,
11928.4,0.926819,1.36566,2.538,11.7739,784,0,
11928.4,0.926819,1.36414,2.538,11.7739,784,0,
11928.4,0.927429,1.36719,2.538,11.7739,784,0,
11928.4,0.927734,1.36719,2.538,11.7739,784,0,
11928.4,0.921326,1.36414,2.538,11.7739,784,0,
11928.4,0.922241,1.36871,2.538,11.7739,784,0,
11928.4,0.921936,1.36414,2.538,11.7739,784,0,
11928.4,0.922852,1.36719,2.538,11.7739,784,0,
11928.4,0.922241,1.36871,2.538,11.7739,784,0,
11928.4,0.917358,1.36871,2.538,11.7739,784,0,
11928.4,0.916748,1.36871,2.538,11.7739,784,0,
11928.4,0.917053,1.36414,2.538,11.7739,784,0,
11928.4,0.917358,1.36566,2.538,11.7739,784,0,
11928.4,0.917358,1.36719,2.538,11.7739,784,0,
11928.4,0.913086,1.36414,2.538,11.7739,784,0,
11928.4,0.91217,1.36719,2.538,11.7739,784,0,
11928.4,0.912781,1.36566,2.538,11.7739,784,0,
11928.4,0.91217,1.36566,2.538,11.7739,784,0,
11928.4,0.912476,1.36719,2.538,11.7739,784,0,
11928.5,0.907898,1.36719,2.538,11.7739,784,0,
11928.5,0.906982,1.36566,2.538,11.7739,784,0,
11928.5,0.907288,1.36719,2.538,11.7739,784,0,
11928.5,0.906677,1.36719,2.538,11.7739,784,0,
11928.5,0.907288,1.36566,2.538,11.7739,784,0,
11928.5,0.906677,1.36414,2.538,11.7739,784,0,
11928.5,0.90271,1.37177,2.538,11.7739,784,0,
11928.5,0.903015,1.36871,2.538,11.7739,784,0,
11928.5,0.90271,1.36871,2.538,11.7739,784,0,
11928.5,0.90271,1.36719,2.538,11.7739,784,0,
11928.5,0.9021,1.38092,2.538,11.7739,784,0,
11928.5,0.898438,1.38245,2.538,11.7739,784,0,
11928.5,0.897827,1.38092,2.538,11.7739,784,0,
11928.5,0.897827,1.3794,2.538,11.7739,784,0,
11928.5,0.897827,1.38092,2.538,11.7739,784,0,
11928.5,0.897827,1.37787,2.538,11.7739,784,0,
11928.5,0.897827,1.38092,2.538,11.7739,784,0,
11928.5,0.89386,1.37634,2.538,11.7739,784,0,
11928.5,0.892029,1.37634,2.538,11.7739,784,0,
11928.5,0.892029,1.37787,2.538,11.7739,784,0,
11928.5,0.892029,1.38092,2.538,11.7739,784,0,
11928.5,0.892334,1.37787,2.538,11.7739,784,0,
11928.5,0.892029,1.3794,2.538,11.7739,784,0,
11928.5,0.888977,1.38092,2.538,11.7739,784,0,
11928.5,0.887756,1.37482,2.538,11.7739,784,0,
11928.5,0.887146,1.3794,2.538,11.7739,784,0,
11928.5,0.887451,1.3916,2.538,11.7739,784,0,
11928.5,0.887756,1.39313,2.538,11.7739,784,0,
11928.5,0.888062,1.38855,2.538,11.7739,784,0,
11928.5,0.887146,1.39008,2.538,11.7739,784,0,
11928.5,0.882874,1.39008,2.538,11.7739,784,0,
11928.5,0.882568,1.3916,2.538,11.7739,784,0,
11928.5,0.882568,1.3916,2.538,11.7739,784,0,
11928.5,0.882874,1.38855,2.538,11.7739,784,0,
11928.5,0.883179,1.3916,2.538,11.7739,784,0,
11928.5,0.882874,1.3916,2.538,11.7739,784,0,
11928.5,0.880432,1.39313,2.538,11.7739,784,0,
11928.5,0.877991,1.38702,2.538,11.7739,784,0,
11928.5,0.877686,1.3916,2.538,11.7739,784,0,
11928.5,0.877686,1.39008,2.538,11.7739,784,0,
11928.5,0.877686,1.3916,2.538,11.7739,784,0,
11928.5,0.877991,1.40228,2.538,11.7739,784,0,
11928.5,0.87738,1.40381,2.538,11.7739,784,0,
11928.5,0.877991,1.40228,2.538,11.7739,784,0,
11928.5,0.872803,1.40228,2.538,11.7739,784,0,
11928.5,0.873108,1.40534,2.538,11.7739,784,0,
11928.5,0.872803,1.40228,2.538,11.7739,784,0,
11928.5,0.872498,1.40534,2.538,11.7739,784,0,
11928.5,0.872803,1.40076,2.538,11.7739,784,0,
11928.5,0.872498,1.40076,2.538,11.7739,784,0,
11928.5,0.873108,1.40381,0,11.7739,784,0,
11928.6,0.873108,1.40228,0,11.7739,784,0,
11928.6,0.86792,1.40534,0,11.7739,784,0,
11928.6,0.86792,1.40534,0,11.7739,784,0,
11928.6,0.867615,1.40686,0,11.7739,784,0,
11928.6,0.867615,1.40381,0,11.7739,784,0,
11928.6,0.868225,1.40228,0,11.7739,784,0,
11928.6,0.86792,1.40534,0,11.7739,784,0,
11928.6,0.868225,1.40534,0,11.7739,784,0,
11928.6,0.86792,1.41754,0,11.7739,784,0,
11928.6,0.86792,1.41754,0,11.7739,784,0,
11928.6,0.863647,1.41754,0,11.7739,784,0,
11928.6,0.863342,1.41602,0,11.7739,784,0,
11928.6,0.863342,1.41602,0,11.7739,784,0,
11928.6,0.862427,1.41602,0,11.7739,784,0,
11928.6,0.863037,1.41449,0,11.7739,784,0,
11928.6,0.862427,1.41449,0,11.7739,784,0,
11928.6,0.863037,1.41602,0,11.7739,784,0,
11928.6,0.863342,1.41907,0,11.7739,784,0,
11928.6,0.862732,1.41296,0,11.7739,784,0,
11928.6,0.863647,1.41602,0,11.7739,784,0,
11928.6,0.859375,1.41449,0,11.7739,784,0,
11928.6,0.857849,1.41449,0,11.7739,784,0,
11928.6,0.858459,1.41602,0,11.7739,784,0,
11928.6,0.858459,1.42517,0,11.7739,784,0,
11928.6,0.858154,1.4267,0,11.7739,784,0,
11928.6,0.858459,1.4267,0,11.7739,784,0,
11928.6,0.858765,1.4267,0,11.7739,784,0,
11928.6,0.857849,1.43128,0,11.7739,784,0,
11928.6,0.858154,1.42822,0,11.7739,784,0,
11928.6,0.858154,1.42975,0,11.7739,784,0,
11928.6,0.857849,1.42822,0,11.7739,784,0,
11928.6,0.857849,1.42822,0,11.7739,784,0,
11928.6,0.858459,1.42517,0,11.7739,784,0,
11928.6,0.853882,1.4267,0,11.7739,784,0,
11928.6,0.853577,1.42822,0,11.7739,784,0,
11928.6,0.852966,1.42975,0,11.7739,784,0,
11928.6,0.853577,1.42975,0,11.7739,784,0,
11928.6,0.853577,1.43128,0,11.7739,784,0,
11928.6,0.853882,1.42822,0,11.7739,784,0,
11928.6,0.853577,1.42365,0,11.7739,784,0,
11928.6,0.853577,1.43433,0,11.7739,784,0,
11928.6,0.853271,1.44196,0,11.7739,784,0,
11928.6,0.853271,1.43738,0,11.7739,784,0,
11928.6,0.853577,1.44043,0,11.7739,784,0,
11928.6,0.853882,1.43738,0,11.7739,784,0,
11928.6,0.853577,1.44043,0,11.7739,784,0,
11928.6,0.853577,1.43738,0,11.7739,784,0,
11928.6,0.853577,1.44043,0,11.7739,784,0,
11928.6,0.853271,1.43738,0,11.7739,784,0,
11928.6,0.849304,1.4389,0,11.7739,784,0,
11928.7,0.848694,1.44348,0,11.7739,784,0,
11928.7,0.848694,1.44043,0,11.7739,784,0,
11928.7,0.848694,1.4389,0,11.7739,784,0,
11928.7,0.848083,1.44196,0,11.7739,784,0,
11928.7,0.848694,1.4389,0,11.7739,784,0,
11928.7,0.848083,1.44043,0,11.7739,784,0,
11928.7,0.848694,1.44348,0,11.7739,784,0,
11928.7,0.848389,1.44043,0,11.7739,784,0,
11928.7,0.848999,1.44196,0,11.7739,784,0,
11928.7,0.848389,1.44653,0,11.7739,784,0,
11928.7,0.848389,1.45111,0,11.7739,784,0,
11928.7,0.848694,1.45111,0,11.7739,784,0,
11928.7,0.848389,1.45264,0,11.7739,784,0,
11928.7,0.848694,1.45111,0,11.7739,784,0,
11928.7,0.848389,1.45111,0,11.7739,784,0,
11928.7,0.848694,1.45416,0,11.7739,784,0,
11928.7,0.847778,1.45264,0,11.7739,784,0,
11928.7,0.848694,1.44959,0,11.7739,784,0,
11928.7,0.848389,1.45111,0,11.7739,784,0,
11928.7,0.848694,1.45264,0,11.7739,784,0,
11928.7,0.848999,1.45264,0,11.7739,784,0,
11928.7,0.848694,1.45416,0,11.7739,784,0,
11928.7,0.848389,1.45416,0,11.7739,784,0,
11928.7,0.848389,1.45111,0,11.7739,784,0,
11928.7,0.848083,1.45416,0,11.7739,784,0,
11928.7,0.849609,1.46027,0,11.7739,784,0,
11928.7,0.848694,1.46484,0,11.7739,784,0,
11928.7,0.848389,1.46179,0,11.7739,784,0,
11928.7,0.843506,1.46179,0,11.7739,784,0,
11928.7,0.843811,1.46637,0,11.7739,784,0,
11928.7,0.843811,1.46332,0,11.7739,784,0,
11928.7,0.842896,1.46484,0,11.7739,784,0,
11928.7,0.844116,1.4679,0,11.7739,784,0,
11928.7,0.843811,1.46484,0,11.7739,784,0,
11928.7,0.843506,1.46484,0,11.7739,784,0,
11928.7,0.844116,1.46332,0,11.7739,784,0,
11928.7,0.844421,1.46332,0,11.7739,784,0,
11928.7,0.844421,1.47553,0,11.7739,784,0,
11928.7,0.844727,1.474,0,11.7739,784,0,
11928.7,0.843506,1.47858,0,11.7739,784,0,
11928.7,0.843201,1.47858,0,11.7739,784,0,
11928.7,0.842896,1.47553,0,11.7739,784,0,
11928.7,0.843811,1.47553,0,11.7739,784,0,
11928.7,0.844116,1.47858,0,11.7739,784,0,
11928.7,0.844116,1.474,0,11.7739,784,0,
11928.7,0.843506,1.47858,0,11.7739,784,0,
11928.7,0.843506,1.4801,0,11.7739,784,0,
11928.7,0.843201,1.48926,0,11.7739,784,0,
11928.7,0.843811,1.48926,0,11.7739,784,0,
11928.8,0.843811,1.48926,0,11.7739,784,0,
11928.8,0.843201,1.48926,0,11.7739,784,0,
11928.8,0.843811,1.48926,0,11.7739,784,0,
11928.8,0.843811,1.49078,0,11.7739,784,0,
11928.8,0.843506,1.48621,0,11.7739,784,0,
11928.8,0.843811,1.48773,0,11.7739,784,0,
11928.8,0.842896,1.49841,0,11.7739,784,0,
11928.8,0.843506,1.49841,0,11.7739,784,0,
11928.8,0.844727,1.49994,0,11.7739,784,0,
11928.8,0.843506,1.49994,0,11.7739,784,0,
11928.8,0.843811,1.49994,0,11.7739,784,0,
11928.8,0.843811,1.50147,0,11.7739,784,0,
11928.8,0.844116,1.49689,0,11.7739,784,0,
11928.8,0.843506,1.49841,0,11.7739,784,0,
11928.8,0.844116,1.51367,0,11.7739,784,0,
11928.8,0.844116,1.51367,0,11.7739,784,0,
11928.8,0.843506,1.51215,0,11.7739,784,0,
11928.8,0.843811,1.5152,0,11.7739,784,0,
11928.8,0.843506,1.5152,0,11.7739,784,0,
11928.8,0.843506,1.51367,0,11.7739,784,0,
11928.8,0.843506,1.51215,0,11.7739,784,0,
11928.8,0.843811,1.51367,0,11.7739,784,0,
11928.8,0.843811,1.52283,0,11.7739,784,0,
11928.8,0.843506,1.52741,0,11.7739,784,0,
11928.8,0.843506,1.52741,0,11.7739,784,0,
11928.8,0.843506,1.52893,0,11.7739,784,0,
11928.8,0.843811,1.5213,0,11.7739,784,0,
11928.8,0.843506,1.52741,0,11.7739,784,0,
11928.8,0.844116,1.52435,0,11.7739,784,0,
11928.8,0.843201,1.52741,2.506,11.7739,784,0,
11928.8,0.843201,1.52588,2.506,11.7739,784,0,
11928.8,0.844116,1.52741,2.506,11.7739,784,0,
11928.8,0.843506,1.52588,2.506,11.7739,784,0,
11928.8,0.843811,1.53656,2.506,11.7739,784,0,
11928.8,0.843811,1.53656,2.506,11.7739,784,0,
11928.8,0.843811,1.53656,2.506,11.7739,784,0,
11928.8,0.843811,1.53656,2.506,11.7739,784,0,
11928.8,0.843506,1.53961,2.506,11.7739,784,0,
11928.8,0.843201,1.53504,2.506,11.7739,784,0,
11928.8,0.843506,1.53656,2.506,11.7739,784,0,
11928.8,0.843506,1.53504,2.506,11.7739,784,0,
11928.8,0.843811,1.53961,2.506,11.7739,784,0,
11928.8,0.843811,1.53809,2.506,11.7739,784,0,
11928.8,0.843506,1.53961,2.506,11.7739,784,0,
11928.8,0.843811,1.53656,2.506,11.7739,784,0,
11928.8,0.843811,1.53809,2.506,11.7739,784,0,
11928.8,0.843811,1.53809,2.506,11.7739,784,0,
11928.8,0.844116,1.53809,2.506,11.7739,784,0,
11928.8,0.843506,1.53961,2.506,11.7739,784,0,
11928.8,0.844116,1.53961,2.506,11.7739,784,0,
11928.9,0.844727,1.53656,2.506,11.7739,784,0,
11928.9,0.848694,1.53809,2.506,11.7739,784,0,
11928.9,0.848694,1.53809,2.506,11.7739,784,0,
11928.9,0.849304,1.53809,2.506,11.7739,784,0,
11928.9,0.848999,1.53809,2.506,11.7739,784,0,
11928.9,0.848083,1.55029,2.506,11.7739,784,0,
11928.9,0.848389,1.55029,2.506,11.7739,784,0,
11928.9,0.848694,1.54724,2.506,11.7739,784,0,
11928.9,0.848694,1.55029,2.506,11.7739,784,0,
11928.9,0.848694,1.55182,2.506,11.7739,784,0,
11928.9,0.848999,1.54724,2.506,11.7739,784,0,
11928.9,0.848389,1.55182,2.506,11.7739,784,0,
11928.9,0.848389,1.55029,2.506,11.7739,784,0,
11928.9,0.848694,1.55182,2.506,11.7739,784,0,
11928.9,0.848389,1.54877,2.506,11.7739,784,0,
11928.9,0.848389,1.55487,2.506,11.7739,784,0,
11928.9,0.847473,1.55029,2.506,11.7739,784,0,
11928.9,0.848389,1.54724,2.506,11.7739,784,0,
11928.9,0.848694,1.55182,2.506,11.7739,784,0,
11928.9,0.848083,1.54724,2.506,11.7739,784,0,
11928.9,0.848389,1.54877,2.506,11.7739,784,0,
11928.9,0.848083,1.54877,2.506,11.7739,784,0,
11928.9,0.848694,1.55182,2.506,11.7739,784,0,
11928.9,0.848694,1.54724,2.506,11.7739,784,0,
11928.9,0.847778,1.54877,2.506,11.7739,784,0,
11928.9,0.848694,1.54877,2.506,11.7739,784,0,
11928.9,0.848389,1.55029,2.506,11.7739,784,0,
11928.9,0.848999,1.54877,2.506,11.7739,784,0,
11928.9,0.848694,1.54724,2.506,11.7739,784,0,
11928.9,0.848389,1.54877,2.506,11.7739,784,0,
11928.9,0.848389,1.55182,2.506,11.7739,784,0,
11928.9,0.848083,1.54724,2.506,11.7739,784,0,
11928.9,0.848083,1.55029,2.506,11.7739,784,0,
11928.9,0.848083,1.55029,2.506,11.7739,784,0,
11928.9,0.848999,1.54724,2.506,11.7739,784,0,
11928.9,0.848389,1.55029,2.506,11.7739,784,0,
11928.9,0.848389,1.55029,2.506,11.7739,784,0,
11928.9,0.848389,1.55182,2.506,11.7739,784,0,
11928.9,0.847778,1.56098,2.506,11.7739,784,0,
