6700-SECPT.acq
2 msec/sample
6 channels
RSP, X, RSPEC-R
Volts
EDA, Y, PPGED-R
microsiemens
ECG R-R
Seconds
Respiration Rate
BPM
C7 - EDR
Peaks
C14 - Control
Volts
min,CH1,CH14,CH40,CH42,CH47,CH54,
,90222,90222,90222,90222,90222,90222,
172.526,3.5733,9.53217,2.7,11.5252,760,5,
172.526,3.56842,9.53674,2.7,11.5252,760,5,
172.526,3.56873,9.53522,2.7,11.5252,760,5,
172.526,3.56415,9.53064,2.7,11.5252,760,5,
172.526,3.56232,9.53369,2.7,11.5252,760,5,
172.526,3.55804,9.53064,2.7,11.5252,760,5,
172.526,3.55469,9.53064,2.7,11.5252,760,5,
172.526,3.55408,9.53369,2.7,11.5252,760,5,
172.526,3.54919,9.53674,2.7,11.5252,760,5,
172.526,3.54584,9.53369,2.7,11.5252,760,5,
172.526,3.54492,9.53674,2.7,11.5252,760,5,
172.526,3.54034,9.53217,2.7,11.5252,760,5,
172.526,3.5379,9.53217,2.7,11.5252,760,5,
172.526,3.53424,9.53217,2.7,11.5252,760,5,
172.526,3.53027,9.53217,2.7,11.5252,760,5,
172.526,3.52966,9.53217,2.7,11.5252,760,5,
172.526,3.52539,9.52911,2.7,11.5252,760,5,
172.526,3.52448,9.53217,2.7,11.5252,760,5,
172.526,3.51959,9.53217,2.7,11.5252,760,5,
172.526,3.51532,9.53522,2.7,11.5252,760,5,
172.527,3.51501,9.53369,2.7,11.5252,760,5,
172.527,3.50922,9.53217,2.7,11.5252,760,5,
172.527,3.50983,9.53369,2.7,11.5252,760,5,
172.527,3.50494,9.53369,2.7,11.5252,760,5,
172.527,3.50372,9.53064,2.7,11.5252,760,5,
172.527,3.50067,9.53217,2.7,11.5252,760,5,
172.527,3.49609,9.53674,2.7,11.5252,760,5,
172.527,3.49548,9.53064,2.7,11.5252,760,5,
172.527,3.4903,9.52911,2.7,11.5252,760,5,
172.527,3.4903,9.53217,2.7,11.5252,760,5,
172.527,3.48572,9.53217,2.7,11.5252,760,5,
172.527,3.48389,9.53217,2.7,11.5252,760,5,
172.527,3.48022,9.53217,2.7,11.5252,760,5,
172.527,3.47656,9.53522,2.7,11.5252,760,5,
172.527,3.47504,9.53217,2.7,11.5252,760,5,
172.527,3.47168,9.53369,2.7,11.5252,760,5,
172.527,3.47046,9.53217,2.7,11.5252,760,5,
172.527,3.46497,9.53217,2.7,11.5252,760,5,
172.527,3.4668,9.53674,2.7,11.5252,760,5,
172.527,3.46039,9.53674,2.7,11.5252,760,5,
172.527,3.45947,9.53217,2.7,11.5252,760,5,
172.527,3.45581,9.53522,2.7,11.5252,760,5,
172.527,3.4549,9.53369,2.7,11.5252,760,5,
172.527,3.45123,9.53369,2.7,11.5252,760,5,
172.527,3.44757,9.53522,2.7,11.5252,760,5,
172.527,3.44574,9.53217,2.7,11.5252,760,5,
172.527,3.44177,9.53217,2.7,11.5252,760,5,
172.527,3.44147,9.53369,2.7,11.5252,760,5,
172.527,3.43689,9.53217,2.7,11.5252,760,5,
172.528,3.43658,9.53217,2.7,11.5252,760,5,
172.528,3.4317,9.53369,2.7,11.5252,760,5,
172.528,3.43201,9.53217,2.7,11.5252,760,5,
172.528,3.42712,9.53369,2.7,11.5252,760,5,
172.528,3.42651,9.53217,2.7,11.5252,760,5,
172.528,3.42255,9.53217,2.7,11.5252,760,5,
172.528,3.42224,9.53217,2.7,11.5252,760,5,
172.528,3.41736,9.53217,2.7,11.5252,760,5,
172.528,3.41705,9.53217,2.7,11.5252,760,5,
172.528,3.41156,9.53522,2.7,11.5252,760,5,
172.528,3.41217,9.53217,2.7,11.5252,760,5,
172.528,3.40759,9.53217,2.7,11.5252,760,5,
172.528,3.40729,9.53522,2.7,11.5252,760,5,
172.528,3.40302,9.53064,2.7,11.5252,760,5,
172.528,3.4024,9.53217,2.7,11.5252,760,5,
172.528,3.39752,9.53217,2.7,11.5252,760,5,
172.528,3.39722,9.53522,2.7,11.5252,760,5,
172.528,3.39233,9.52911,2.7,11.5252,760,5,
172.528,3.39233,9.53369,2.7,11.5252,760,5,
172.528,3.38715,9.53217,2.7,11.5252,760,5,
172.528,3.38745,9.53369,2.7,11.5252,760,5,
172.528,3.38348,9.53522,2.7,11.5252,760,5,
172.528,3.38257,9.53674,2.7,11.5252,760,5,
172.528,3.3783,9.53217,2.7,11.5252,760,5,
172.528,3.37769,9.53369,2.7,11.5252,760,5,
172.528,3.37372,9.53217,2.7,11.5252,760,5,
172.528,3.37219,9.53217,2.7,11.5252,760,5,
172.528,3.37097,9.53369,2.7,11.5252,760,5,
172.528,3.36792,9.53369,2.7,11.5252,760,5,
172.528,3.36761,9.53217,2.7,11.5252,760,5,
172.529,3.36273,9.53522,2.7,11.5252,760,5,
172.529,3.36243,9.53217,2.7,11.5252,760,5,
172.529,3.35785,9.53217,2.7,11.5252,760,5,
172.529,3.35846,9.53369,2.7,11.5252,760,5,
172.529,3.35419,9.53217,2.7,11.5252,760,5,
172.529,3.35327,9.53369,2.7,11.5252,760,5,
172.529,3.35144,9.53217,2.7,11.5252,760,5,
172.529,3.34808,9.53522,2.7,11.5252,760,5,
172.529,3.34808,9.53064,2.7,11.5252,760,5,
172.529,3.34381,9.53522,2.7,11.5252,760,5,
172.529,3.3432,9.53674,2.7,11.5252,760,5,
172.529,3.33923,9.53369,2.7,11.5252,760,5,
172.529,3.33801,9.53217,2.7,11.5252,760,5,
172.529,3.33801,9.53369,2.7,11.5252,760,5,
172.529,3.33344,9.53369,2.7,11.5252,760,5,
172.529,3.33374,9.52911,2.7,11.5252,760,5,
172.529,3.32947,9.53217,2.7,11.5252,760,5,
172.529,3.32794,9.53369,2.7,11.5252,760,5,
172.529,3.32886,9.53369,2.7,11.5252,760,5,
172.529,3.32306,9.53064,2.7,11.5252,760,5,
172.529,3.32306,9.52911,2.7,11.5252,760,5,
172.529,3.32001,9.53217,2.7,11.5252,760,5,
172.529,3.31879,9.53217,2.7,11.5252,760,5,
172.529,3.31818,9.53064,2.7,11.5252,760,5,
172.529,3.31421,9.53369,2.7,11.5252,760,5,
172.529,3.3136,9.53369,2.7,11.5252,760,5,
172.529,3.31421,9.52911,2.7,11.5252,760,5,
172.529,3.30933,9.53064,2.7,11.5252,760,5,
172.529,3.30902,9.53522,2.7,11.5252,760,5,
172.529,3.30719,9.53217,2.7,11.5252,760,5,
172.53,3.30414,9.53217,2.7,11.5252,760,5,
172.53,3.30383,9.53674,2.7,11.5252,760,5,
172.53,3.30017,9.5459,2.7,11.5252,760,5,
172.53,3.29956,9.54285,2.7,11.5252,760,5,
172.53,3.29956,9.54285,2.7,11.5252,760,5,
172.53,3.29559,9.5459,2.7,11.5252,760,5,
172.53,3.29407,9.5459,2.7,11.5252,760,5,
172.53,3.29437,9.54743,2.7,11.5252,760,5,
172.53,3.28888,9.5459,2.7,11.5252,760,5,
172.53,3.28918,9.54895,2.7,11.5252,760,5,
172.53,3.28949,9.54743,2.7,11.5252,760,5,
172.53,3.28613,9.54895,2.7,11.5252,760,5,
172.53,3.28491,9.54437,2.7,11.5252,760,5,
172.53,3.28491,9.5459,2.7,11.5252,760,5,
172.53,3.28094,9.54437,2.7,11.5252,760,5,
172.53,3.27972,9.5459,2.7,11.5252,760,5,
172.53,3.27972,9.54743,2.7,11.5252,760,5,
172.53,3.2785,9.54895,2.7,11.5252,760,5,
172.53,3.27454,9.54437,2.7,11.5252,760,5,
172.53,3.27515,9.54437,2.7,11.5252,760,5,
172.53,3.27423,9.5459,2.7,11.5252,760,5,
172.53,3.26965,9.54743,2.7,11.5252,760,5,
172.53,3.27026,9.54895,2.7,11.5252,760,5,
172.53,3.26965,9.5459,2.7,11.5252,760,5,
172.53,3.26599,9.5459,2.7,11.5252,760,5,
172.53,3.26477,9.54895,2.7,11.5252,760,5,
172.53,3.26508,9.5459,2.7,11.5252,760,5,
172.53,3.26599,9.5459,2.7,11.5252,760,5,
172.53,3.26019,9.54743,2.7,11.5252,760,5,
172.53,3.2605,9.54437,2.7,11.5252,760,5,
172.53,3.25989,9.54437,2.7,11.5252,760,5,
172.531,3.25867,9.54437,2.7,11.5252,760,5,
172.531,3.25562,9.54437,2.7,11.5252,760,5,
172.531,3.255,9.5459,2.7,11.5252,760,5,
172.531,3.25592,9.5459,2.7,11.5252,760,5,
172.531,3.25104,9.54743,2.7,11.5252,760,5,
172.531,3.25134,9.54743,2.7,11.5252,760,5,
172.531,3.25073,9.5459,2.7,11.5252,760,5,
172.531,3.25073,9.54437,2.7,11.5252,760,5,
172.531,3.24524,9.5459,2.7,11.5252,760,5,
172.531,3.24585,9.54132,2.7,11.5252,760,5,
172.531,3.24524,9.54743,2.7,11.5252,760,5,
172.531,3.24493,9.5459,2.7,11.5252,760,5,
172.531,3.24036,9.54285,2.7,11.5252,760,5,
172.531,3.24036,9.5459,2.7,11.5252,760,5,
172.531,3.24066,9.54743,2.7,11.5252,760,5,
172.531,3.24005,9.54285,2.7,11.5252,760,5,
172.531,3.23547,9.54437,2.7,11.5252,760,5,
172.531,3.23578,9.54437,2.7,11.5252,760,5,
172.531,3.23547,9.54437,2.7,11.5252,760,5,
172.531,3.23547,9.54437,2.7,11.5252,760,5,
172.531,3.23151,9.54437,2.7,11.5252,760,5,
172.531,3.23029,9.54437,2.7,11.5252,760,5,
172.531,3.2309,9.54437,2.7,11.5252,760,5,
172.531,3.23029,9.54743,2.7,11.5252,760,5,
172.531,3.22906,9.54743,2.7,11.5252,760,5,
172.531,3.22662,9.5459,2.7,11.5252,760,5,
172.531,3.22601,9.54743,2.7,11.5252,760,5,
172.531,3.22601,9.54437,2.7,11.5252,760,5,
172.531,3.22571,9.54285,2.7,11.5252,760,5,
172.531,3.22052,9.5459,2.7,11.5252,760,5,
172.532,3.22052,9.54285,2.7,11.5252,760,5,
172.532,3.22083,9.54437,2.7,11.5252,760,5,
172.532,3.22113,9.54285,2.7,11.5252,760,5,
172.532,3.21869,9.5459,2.7,11.5252,760,5,
172.532,3.21533,9.54743,2.7,11.5252,760,5,
172.532,3.21533,9.54437,2.7,11.5252,760,5,
172.532,3.21564,9.54743,2.7,11.5252,760,5,
172.532,3.21655,9.54437,2.7,11.5252,760,5,
172.532,3.21167,9.5459,2.7,11.5252,760,5,
172.532,3.21106,9.54743,2.7,11.5252,760,5,
172.532,3.21075,9.54437,2.7,11.5252,760,5,
172.532,3.21075,9.54437,2.7,11.5252,760,5,
172.532,3.21075,9.54743,2.7,11.5252,760,5,
172.532,3.20648,9.54743,2.7,11.5252,760,5,
172.532,3.20587,9.54285,2.7,11.5252,760,5,
172.532,3.20679,9.5459,2.7,11.5252,760,5,
172.532,3.20618,9.5459,2.7,11.5252,760,5,
172.532,3.20618,9.54743,2.7,11.5252,760,5,
172.532,3.2016,9.54437,2.7,11.5252,760,5,
172.532,3.2019,9.5459,2.7,11.5252,760,5,
172.532,3.2016,9.5459,2.7,11.5252,760,5,
172.532,3.20129,9.5459,0,11.5252,760,5,
172.532,3.20099,9.54743,0,11.5252,760,5,
172.532,3.19733,9.54132,0,11.5252,760,5,
172.532,3.19611,9.54437,0,11.5252,760,5,
172.532,3.19672,9.54285,0,11.5252,760,5,
172.532,3.19611,9.54132,0,11.5252,760,5,
172.532,3.19611,9.54437,0,11.5252,760,5,
172.532,3.19489,9.54743,0,11.5252,760,5,
172.532,3.19183,9.54285,0,11.5252,760,5,
172.533,3.19153,9.54743,0,11.5252,760,5,
172.533,3.19183,9.5459,0,11.5252,760,5,
172.533,3.19153,9.5459,0,11.5252,760,5,
172.533,3.19153,9.54132,0,11.5252,760,5,
172.533,3.18695,9.54437,0,11.5252,760,5,
172.533,3.18726,9.54895,0,11.5252,760,5,
172.533,3.18695,9.5459,0,11.5252,760,5,
172.533,3.18634,9.54437,0,11.5252,760,5,
172.533,3.18634,9.5459,0,11.5252,760,5,
172.533,3.18665,9.54437,0,11.5252,760,5,
172.533,3.18176,9.54743,0,11.5252,760,5,
172.533,3.18146,9.54895,0,11.5252,760,5,
172.533,3.18207,9.5459,0,11.5252,760,5,
172.533,3.18237,9.54743,0,11.5252,760,5,
172.533,3.18146,9.54437,0,11.5252,760,5,
172.533,3.17749,9.5459,0,11.5252,760,5,
172.533,3.17657,9.5459,0,11.5252,760,5,
172.533,3.17688,9.54437,0,11.5252,760,5,
172.533,3.17688,9.5459,0,11.5252,760,5,
172.533,3.17657,9.5459,0,11.5252,760,5,
172.533,3.17657,9.54437,0,11.5252,760,5,
172.533,3.17261,9.54743,0,11.5252,760,5,
172.533,3.17139,9.5459,0,11.5252,760,5,
172.533,3.172,9.54437,0,11.5252,760,5,
172.533,3.17169,9.54743,0,11.5252,760,5,
172.533,3.17261,9.54743,0,11.5252,760,5,
172.533,3.16772,9.5459,0,11.5252,760,5,
172.533,3.16742,9.54437,0,11.5252,760,5,
172.533,3.1662,9.54285,0,11.5252,760,5,
172.534,3.16681,9.5459,0,11.5252,760,5,
172.534,3.16711,9.54743,0,11.5252,760,5,
172.534,3.1665,9.5459,0,11.5252,760,5,
172.534,3.16254,9.54437,0,11.5252,760,5,
172.534,3.16223,9.54437,0,11.5252,760,5,
172.534,3.16193,9.5459,0,11.5252,760,5,
172.534,3.16162,9.54743,0,11.5252,760,5,
172.534,3.16315,9.54437,0,11.5252,760,5,
172.534,3.15735,9.5459,0,11.5252,760,5,
172.534,3.15735,9.5459,0,11.5252,760,5,
172.534,3.15674,9.54743,0,11.5252,760,5,
172.534,3.15735,9.54743,0,11.5252,760,5,
172.534,3.15704,9.54285,0,11.5252,760,5,
172.534,3.15186,9.54132,0,11.5252,760,5,
172.534,3.15247,9.54285,0,11.5252,760,5,
172.534,3.15247,9.5459,0,11.5252,760,5,
172.534,3.15247,9.5459,0,11.5252,760,5,
172.534,3.15094,9.54437,0,11.5252,760,5,
172.534,3.14758,9.54437,0,11.5252,760,5,
172.534,3.14789,9.54437,0,11.5252,760,5,
172.534,3.14728,9.54285,0,11.5252,760,5,
172.534,3.14758,9.54285,0,11.5252,760,5,
172.534,3.1427,9.5459,0,11.5252,760,5,
172.534,3.14331,9.54895,0,11.5252,760,5,
172.534,3.1424,9.54285,0,11.5252,760,5,
172.534,3.1427,9.5459,0,11.5252,760,5,
172.534,3.13782,9.54437,0,11.5252,760,5,
172.534,3.13751,9.5459,0,11.5252,760,5,
172.534,3.13782,9.54743,0,11.5252,760,5,
172.534,3.13782,9.54437,0,11.5252,760,5,
172.535,3.13293,9.54437,0,11.5252,760,5,
172.535,3.13293,9.54437,0,11.5252,760,5,
172.535,3.13263,9.5459,0,11.5252,760,5,
172.535,3.13293,9.54743,0,11.5252,760,5,
172.535,3.12805,9.54743,0,11.5252,760,5,
172.535,3.12805,9.54743,0,11.5252,760,5,
172.535,3.12805,9.54437,0,11.5252,760,5,
172.535,3.12378,9.54743,0,11.5252,760,5,
172.535,3.12256,9.5459,0,11.5252,760,5,
172.535,3.12347,9.54895,0,11.5252,760,5,
172.535,3.12286,9.54437,0,11.5252,760,5,
172.535,3.11768,9.54437,0,11.5252,760,5,
172.535,3.11829,9.5459,0,11.5252,760,5,
172.535,3.11859,9.54743,0,11.5252,760,5,
172.535,3.11371,9.5459,0,11.5252,760,5,
172.535,3.1131,9.5459,0,11.5252,760,5,
172.535,3.1131,9.5459,0,11.5252,760,5,
172.535,3.10974,9.54437,0,11.5252,760,5,
172.535,3.1076,9.54437,0,11.5252,760,5,
172.535,3.10791,9.5459,0,11.5252,760,5,
172.535,3.10638,9.5459,0,11.5252,760,5,
172.535,3.10364,9.54743,0,11.5252,760,5,
172.535,3.10333,9.5459,0,11.5252,760,5,
172.535,3.10211,9.5459,0,11.5252,760,5,
172.535,3.09906,9.54743,0,11.5252,760,5,
172.535,3.09845,9.5459,0,11.5252,760,5,
172.535,3.09418,9.5459,0,11.5252,760,5,
172.535,3.09387,9.5459,0,11.5252,760,5,
172.535,3.09418,9.54437,0,11.5252,760,5,
172.535,3.0899,9.5459,0,11.5252,760,5,
172.536,3.08899,9.54285,0,11.5252,760,5,
172.536,3.08838,9.54437,0,11.5252,760,5,
172.536,3.08411,9.54743,0,11.5252,760,5,
172.536,3.08411,9.54743,0,11.5252,760,5,
172.536,3.08136,9.54285,0,11.5252,760,5,
172.536,3.07922,9.54285,0,11.5252,760,5,
172.536,3.07831,9.54437,0,11.5252,760,5,
172.536,3.07465,9.5459,0,11.5252,760,5,
172.536,3.07312,9.5459,0,11.5252,760,5,
172.536,3.07404,9.5459,0,11.5252,760,5,
172.536,3.06915,9.5459,0,11.5252,760,5,
172.536,3.06854,9.5459,0,11.5252,760,5,
172.536,3.06488,9.54437,0,11.5252,760,5,
172.536,3.06427,9.55048,0,11.5252,760,5,
172.536,3.06396,9.54285,0,11.5252,760,5,
172.536,3.05908,9.5459,0,11.5252,760,5,
172.536,3.05908,9.5459,0,11.5252,760,5,
172.536,3.05542,9.54743,0,11.5252,760,5,
172.536,3.05389,9.5459,0,11.5252,760,5,
172.536,3.05267,9.54437,0,11.5252,760,5,
172.536,3.04901,9.5459,0,11.5252,760,5,
172.536,3.04962,9.54895,0,11.5252,760,5,
172.536,3.04474,9.54285,0,11.5252,760,5,
172.536,3.04443,9.5459,0,11.5252,760,5,
172.536,3.04016,9.5459,0,11.5252,760,5,
172.536,3.03986,9.54285,0,11.5252,760,5,
172.536,3.03772,9.54895,0,11.5252,760,5,
172.536,3.03467,9.55048,0,11.5252,760,5,
172.536,3.03528,9.54895,0,11.5252,760,5,
172.536,3.02979,9.5459,0,11.5252,760,5,
172.536,3.02979,9.5459,0,11.5252,760,5,
172.537,3.02521,9.54743,0,11.5252,760,5,
172.537,3.02521,9.5459,0,11.5252,760,5,
172.537,3.02063,9.54437,0,11.5252,760,5,
172.537,3.02002,9.5459,0,11.5252,760,5,
172.537,3.01605,9.54437,0,11.5252,760,5,
172.537,3.01514,9.54285,0,11.5252,760,5,
172.537,3.013,9.54437,0,11.5252,760,5,
172.537,3.00995,9.5459,0,11.5252,760,5,
172.537,3.00873,9.54437,0,11.5252,760,5,
172.537,3.00507,9.54437,2.34,11.5252,760,5,
172.537,3.00537,9.5459,2.34,11.5252,760,5,
172.537,2.99988,9.5459,2.34,11.5252,760,5,
172.537,3.00018,9.5459,2.34,11.5252,760,5,
172.537,2.99561,9.54743,2.34,11.5252,760,5,
172.537,2.99561,9.54743,2.34,11.5252,760,5,
172.537,2.99042,9.54895,2.34,11.5252,760,5,
172.537,2.99103,9.54285,2.34,11.5252,760,5,
172.537,2.98645,9.54437,2.34,11.5252,760,5,
172.537,2.98584,9.5459,2.34,11.5252,760,5,
172.537,2.98065,9.5459,2.34,11.5252,760,5,
172.537,2.98096,9.54437,2.34,11.5252,760,5,
172.537,2.97699,9.54285,2.34,11.5252,760,5,
172.537,2.97577,9.5459,2.34,11.5252,760,5,
172.537,2.9718,9.5459,2.34,11.5252,760,5,
172.537,2.97089,9.54285,2.34,11.5252,760,5,
172.537,2.96692,9.5459,2.34,11.5252,760,5,
172.537,2.96631,9.54437,2.34,11.5252,760,5,
172.537,2.96234,9.54743,2.34,11.5252,760,5,
172.537,2.96173,9.54743,2.34,11.5252,760,5,
172.537,2.95715,9.5459,2.34,11.5252,760,5,
172.538,2.95624,9.5459,2.34,11.5252,760,5,
172.538,2.95471,9.54285,2.34,11.5252,760,5,
172.538,2.95166,9.54285,2.34,11.5252,760,5,
172.538,2.95013,9.54743,2.34,11.5252,760,5,
172.538,2.94647,9.5459,2.34,11.5252,760,5,
172.538,2.94525,9.5459,2.34,11.5252,760,5,
172.538,2.94189,9.54437,2.34,11.5252,760,5,
172.538,2.94098,9.5459,2.34,11.5252,760,5,
172.538,2.93701,9.5459,2.34,11.5252,760,5,
172.538,2.93701,9.54437,2.34,11.5252,760,5,
172.538,2.93243,9.54743,2.34,11.5252,760,5,
172.538,2.93182,9.5459,2.34,11.5252,760,5,
172.538,2.92694,9.5459,2.34,11.5252,760,5,
172.538,2.92694,9.5459,2.34,11.5252,760,5,
172.538,2.92267,9.54437,2.34,11.5252,760,5,
172.538,2.92236,9.54285,2.34,11.5252,760,5,
172.538,2.91748,9.54743,2.34,11.5252,760,5,
172.538,2.91656,9.54437,2.34,11.5252,760,5,
172.538,2.91229,9.54437,2.34,11.5252,760,5,
172.538,2.91199,9.5459,2.34,11.5252,760,5,
172.538,2.90833,9.5459,2.34,11.5252,760,5,
172.538,2.90741,9.54895,2.34,11.5252,760,5,
172.538,2.90588,9.54743,2.34,11.5252,760,5,
172.538,2.90222,9.54285,2.34,11.5252,760,5,
172.538,2.901,9.54895,2.34,11.5252,760,5,
172.538,2.89734,9.54437,2.34,11.5252,760,5,
172.538,2.89734,9.54743,2.34,11.5252,760,5,
172.538,2.89276,9.54132,2.34,11.5252,760,5,
172.538,2.89276,9.5459,2.34,11.5252,760,5,
172.538,2.88788,9.5459,2.34,11.5252,760,5,
172.539,2.88727,9.54743,2.34,11.5252,760,5,
172.539,2.88422,9.54895,2.34,11.5252,760,5,
172.539,2.88239,9.5459,2.34,11.5252,760,5,
172.539,2.88116,9.5459,2.34,11.5252,760,5,
172.539,2.87842,9.54437,2.34,11.5252,760,5,
172.539,2.87842,9.54437,2.34,11.5252,760,5,
172.539,2.87262,9.5459,2.34,11.5252,760,5,
172.539,2.87231,9.54437,2.34,11.5252,760,5,
172.539,2.86804,9.54743,2.34,11.5252,760,5,
172.539,2.86804,9.54895,2.34,11.5252,760,5,
172.539,2.86407,9.54285,2.34,11.5252,760,5,
172.539,2.86377,9.5459,2.34,11.5252,760,5,
172.539,2.86316,9.54743,2.34,11.5252,760,5,
172.539,2.85889,9.54743,2.34,11.5252,760,5,
172.539,2.85797,9.54437,2.34,11.5252,760,5,
172.539,2.85309,9.54895,2.34,11.5252,760,5,
172.539,2.85309,9.54285,2.34,11.5252,760,5,
172.539,2.85217,9.54437,2.34,11.5252,760,5,
172.539,2.84851,9.54285,2.34,11.5252,760,5,
172.539,2.84821,9.5459,2.34,11.5252,760,5,
172.539,2.84363,9.5459,2.34,11.5252,760,5,
172.539,2.84393,9.5459,2.34,11.5252,760,5,
172.539,2.83997,9.5459,2.34,11.5252,760,5,
172.539,2.83905,9.5459,2.34,11.5252,760,5,
172.539,2.83936,9.54437,2.34,11.5252,760,5,
172.539,2.83417,9.54743,2.34,11.5252,760,5,
172.539,2.83417,9.5459,2.34,11.5252,760,5,
172.539,2.8299,9.54743,2.34,11.5252,760,5,
172.539,2.82928,9.5459,2.34,11.5252,760,5,
172.54,2.82959,9.54743,2.34,11.5252,760,5,
172.54,2.82379,9.5459,2.34,11.5252,760,5,
172.54,2.8244,9.54743,2.34,11.5252,760,5,
172.54,2.82257,9.54437,2.34,11.5252,760,5,
172.54,2.81921,9.54437,2.34,11.5252,760,5,
172.54,2.81982,9.5459,2.34,11.5252,760,5,
172.54,2.81525,9.54437,2.34,11.5252,760,5,
172.54,2.81464,9.5459,2.34,11.5252,760,5,
172.54,2.81433,9.54895,2.34,11.5252,760,5,
172.54,2.80975,9.54743,2.34,11.5252,760,5,
172.54,2.80914,9.54895,2.34,11.5252,760,5,
172.54,2.80792,9.5459,2.34,11.5252,760,5,
172.54,2.80487,9.54285,2.34,11.5252,760,5,
172.54,2.80426,9.54895,2.34,11.5252,760,5,
172.54,2.80334,9.5459,2.34,11.5252,760,5,
172.54,2.80029,9.5459,2.34,11.5252,760,5,
172.54,2.79968,9.54285,2.34,11.5252,760,5,
172.54,2.79602,9.5459,2.34,11.5252,760,5,
172.54,2.7948,9.54437,2.34,11.5252,760,5,
172.54,2.7948,9.54437,2.34,11.5252,760,5,
172.54,2.79053,9.54285,2.34,11.5252,760,5,
172.54,2.78992,9.5459,2.34,11.5252,760,5,
172.54,2.78961,9.54743,2.34,11.5252,760,5,
172.54,2.78564,9.5459,2.34,11.5252,760,5,
172.54,2.78473,9.5459,2.34,11.5252,760,5,
172.54,2.78503,9.54437,2.34,11.5252,760,5,
172.54,2.78107,9.5459,2.34,11.5252,760,5,
172.54,2.77954,9.54285,2.34,11.5252,760,5,
172.54,2.77954,9.5459,2.34,11.5252,760,5,
172.54,2.77618,9.5459,2.34,11.5252,760,5,
172.541,2.77588,9.5459,2.34,11.5252,760,5,
172.541,2.77527,9.54743,2.34,11.5252,760,5,
172.541,2.77374,9.54437,2.34,11.5252,760,5,
172.541,2.77008,9.54437,2.34,11.5252,760,5,
172.541,2.771,9.54437,2.34,11.5252,760,5,
172.541,2.77069,9.54285,2.34,11.5252,760,5,
172.541,2.7652,9.54285,0.416,11.5252,760,5,
172.541,2.7655,9.54437,0.416,11.5252,760,5,
172.541,2.76489,9.54437,0.416,11.5252,760,5,
172.541,2.76123,9.54437,0.416,11.5252,760,5,
172.541,2.7597,9.54743,0.416,11.5252,760,5,
172.541,2.76031,9.5459,0.416,11.5252,760,5,
172.541,2.75848,9.5459,0.416,11.5252,760,5,
172.541,2.75543,9.54743,0.416,11.5252,760,5,
172.541,2.75574,9.5459,0.416,11.5252,760,5,
172.541,2.75513,9.5459,0.416,11.5252,760,5,
172.541,2.75116,9.54743,0.416,11.5252,760,5,
172.541,2.74994,9.54437,0.416,11.5252,760,5,
172.541,2.75085,9.55048,0.416,11.5252,760,5,
172.541,2.75055,9.54285,0.416,11.5252,760,5,
172.541,2.74567,9.54743,0.416,11.5252,760,5,
172.541,2.74536,9.5459,0.416,11.5252,760,5,
172.541,2.74628,9.54437,0.416,11.5252,760,5,
172.541,2.74353,9.54743,0.416,11.5252,760,5,
172.541,2.74109,9.5459,0.416,11.5252,760,5,
172.541,2.74078,9.54895,0.416,11.5252,760,5,
172.541,2.74078,9.54743,0.416,11.5252,760,5,
172.541,2.73895,9.54437,0.416,11.5252,760,5,
172.541,2.7359,9.54437,0.416,11.5252,760,5,
172.541,2.7356,9.54437,0.416,11.5252,760,5,
172.542,2.73621,9.5459,0.416,11.5252,760,5,
172.542,2.73468,9.5459,0.416,11.5252,760,5,
172.542,2.73041,9.5459,0.416,11.5252,760,5,
172.542,2.73132,9.5459,0.416,11.5252,760,5,
172.542,2.73132,9.54285,0.416,11.5252,760,5,
172.542,2.7298,9.5459,0.416,11.5252,760,5,
172.542,2.72583,9.54285,0.416,11.5252,760,5,
172.542,2.72675,9.5459,0.416,11.5252,760,5,
172.542,2.72614,9.5459,0.416,11.5252,760,5,
172.542,2.72644,9.54895,0.416,11.5252,760,5,
172.542,2.72186,9.5459,0.416,11.5252,760,5,
172.542,2.72186,9.54437,0.416,11.5252,760,5,
172.542,2.72125,9.54743,0.416,11.5252,760,5,
172.542,2.72095,9.54743,0.416,11.5252,760,5,
172.542,2.71729,9.54437,0.416,11.5252,760,5,
172.542,2.71606,9.54437,0.416,11.5252,760,5,
172.542,2.71698,9.54437,0.416,11.5252,760,5,
172.542,2.71667,9.5459,0.416,11.5252,760,5,
172.542,2.71667,9.54285,0.416,11.5252,760,5,
172.542,2.71149,9.5459,0.416,11.5252,760,5,
172.542,2.71149,9.5459,0.416,11.5252,760,5,
172.542,2.71057,9.54437,0.416,11.5252,760,5,
172.542,2.71088,9.54743,0.416,11.5252,760,5,
172.542,2.71118,9.54743,0.416,11.5252,760,5,
172.542,2.70691,9.54437,0.416,11.5252,760,5,
172.542,2.7063,9.54743,0.416,11.5252,760,5,
172.542,2.7066,9.5459,0.416,11.5252,760,5,
172.542,2.7066,9.54743,0.416,11.5252,760,5,
172.542,2.70599,9.5459,0.416,11.5252,760,5,
172.542,2.70111,9.54285,0.416,11.5252,760,5,
172.542,2.70142,9.54285,0.416,11.5252,760,5,
172.543,2.70142,9.54437,0.416,11.5252,760,5,
172.543,2.70081,9.54285,0.416,11.5252,760,5,
172.543,2.70142,9.54437,0.416,11.5252,760,5,
172.543,2.69958,9.5459,0.416,11.5252,760,5,
172.543,2.69653,9.54437,0.416,11.5252,760,5,
172.543,2.69653,9.54437,0.416,11.5252,760,5,
172.543,2.69623,9.54895,0.416,11.5252,760,5,
172.543,2.69653,9.5459,0.416,11.5252,760,5,
172.543,2.69684,9.54285,0.416,11.5252,760,5,
172.543,2.69196,9.54437,0.416,11.5252,760,5,
172.543,2.69165,9.54743,0.416,11.5252,760,5,
172.543,2.69226,9.54743,0.416,11.5252,760,5,
172.543,2.69226,9.54743,0.416,11.5252,760,5,
172.543,2.69135,9.5459,0.416,11.5252,760,5,
172.543,2.69165,9.5459,0.416,11.5252,760,5,
172.543,2.6889,9.5459,0.416,11.5252,760,5,
172.543,2.68646,9.54437,0.416,11.5252,760,5,
172.543,2.68707,9.5459,0.416,11.5252,760,5,
172.543,2.68707,9.54437,0.416,11.5252,760,5,
172.543,2.68646,9.5459,0.416,11.5252,760,5,
172.543,2.68707,9.54437,0.416,11.5252,760,5,
172.543,2.68677,9.54437,0.416,11.5252,760,5,
172.543,2.6825,9.54437,0.416,11.5252,760,5,
172.543,2.68158,9.54437,0.416,11.5252,760,5,
172.543,2.68219,9.54437,0.416,11.5252,760,5,
172.543,2.68188,9.5459,0.416,11.5252,760,5,
172.543,2.68127,9.54285,0.416,11.5252,760,5,
172.543,2.68188,9.54285,0.416,11.5252,760,5,
172.543,2.67975,9.54437,0.416,11.5252,760,5,
172.543,2.677,9.54743,0.416,11.5252,760,5,
172.544,2.677,9.54743,0.416,11.5252,760,5,
172.544,2.677,9.54437,0.416,11.5252,760,5,
172.544,2.677,9.5459,0.416,11.5252,760,5,
172.544,2.67731,9.5459,0.416,11.5252,760,5,
172.544,2.67731,9.54285,0.416,11.5252,760,5,
172.544,2.67212,9.54285,0.416,11.5252,760,5,
172.544,2.67242,9.54132,0.416,11.5252,760,5,
172.544,2.67212,9.5459,0.416,11.5252,760,5,
172.544,2.67242,9.54437,0.416,11.5252,760,5,
172.544,2.67181,9.54437,0.416,11.5252,760,5,
172.544,2.67181,9.54437,0.416,11.5252,760,5,
172.544,2.67242,9.54437,0.416,11.5252,760,5,
172.544,2.66785,9.54132,0.416,11.5252,760,5,
172.544,2.66754,9.5459,0.416,11.5252,760,5,
172.544,2.66785,9.54895,0.416,11.5252,760,5,
172.544,2.66785,9.5459,0.416,11.5252,760,5,
172.544,2.66785,9.54743,0.416,11.5252,760,5,
172.544,2.66693,9.54437,0.416,11.5252,760,5,
172.544,2.66205,9.54437,0.416,11.5252,760,5,
172.544,2.66296,9.5459,0.416,11.5252,760,5,
172.544,2.66296,9.5459,0.416,11.5252,760,5,
172.544,2.66266,9.5459,0.416,11.5252,760,5,
172.544,2.66235,9.54743,0.416,11.5252,760,5,
172.544,2.66235,9.54285,0.416,11.5252,760,5,
172.544,2.65778,9.5459,0.416,11.5252,760,5,
172.544,2.65778,9.5459,0.416,11.5252,760,5,
172.544,2.65747,9.54437,0.416,11.5252,760,5,
172.544,2.65717,9.54285,0.416,11.5252,760,5,
172.544,2.65839,9.5459,0.416,11.5252,760,5,
172.544,2.65594,9.54437,0.416,11.5252,760,5,
172.545,2.65289,9.54895,0.416,11.5252,760,5,
172.545,2.6532,9.54743,0.416,11.5252,760,5,
172.545,2.65289,9.54285,0.416,11.5252,760,5,
172.545,2.65198,9.54437,0.416,11.5252,760,5,
172.545,2.65228,9.5459,0.416,11.5252,760,5,
172.545,2.64801,9.54285,0.416,11.5252,760,5,
172.545,2.64832,9.54743,0.416,11.5252,760,5,
172.545,2.64771,9.54895,0.416,11.5252,760,5,
172.545,2.64801,9.54285,0.416,11.5252,760,5,
172.545,2.64801,9.5459,0.416,11.5252,760,5,
172.545,2.64343,9.54895,0.416,11.5252,760,5,
172.545,2.64343,9.54285,0.416,11.5252,760,5,
172.545,2.64313,9.5459,0.416,11.5252,760,5,
172.545,2.64252,9.54437,0.416,11.5252,760,5,
172.545,2.64313,9.5459,0.416,11.5252,760,5,
172.545,2.63916,9.54437,0.416,11.5252,760,5,
172.545,2.63733,9.5459,0.416,11.5252,760,5,
172.545,2.63733,9.54285,0.416,11.5252,760,5,
172.545,2.63824,9.5459,0.416,11.5252,760,5,
172.545,2.63763,9.54437,0.416,11.5252,760,5,
172.545,2.63367,9.54437,0.416,11.5252,760,5,
172.545,2.63336,9.54743,0.416,11.5252,760,5,
172.545,2.63306,9.54437,0.416,11.5252,760,5,
172.545,2.63306,9.54743,0.416,11.5252,760,5,
172.545,2.63123,9.54895,0.416,11.5252,760,5,
172.545,2.62817,9.54743,0.416,11.5252,760,5,
172.545,2.62817,9.54743,0.416,11.5252,760,5,
172.545,2.62817,9.5459,0.416,11.5252,760,5,
172.545,2.62817,9.54743,0.416,11.5252,760,5,
172.546,2.6239,9.54437,0.416,11.5252,760,5,
172.546,2.62329,9.5459,0.416,11.5252,760,5,
172.546,2.62329,9.54437,0.416,11.5252,760,5,
172.546,2.62329,9.54743,0.416,11.5252,760,5,
172.546,2.6181,9.53827,0.416,11.5252,760,5,
172.546,2.6181,9.53522,0.416,11.5252,760,5,
172.546,2.6181,9.53217,0.416,11.5252,760,5,
172.546,2.61627,9.53217,0.416,11.5252,760,5,
172.546,2.61475,9.53369,0.416,11.5252,760,5,
172.546,2.61353,9.53369,0.416,11.5252,760,5,
172.546,2.61414,9.53217,0.416,11.5252,760,5,
172.546,2.60925,9.53674,0.416,11.5252,760,5,
172.546,2.60895,9.53064,0.416,11.5252,760,5,
172.546,2.60864,9.53522,0.416,11.5252,760,5,
172.546,2.60895,9.53217,0.416,11.5252,760,5,
172.546,2.60437,9.53369,0.416,11.5252,760,5,
172.546,2.60315,9.53217,0.416,11.5252,760,5,
172.546,2.60345,9.53064,0.416,11.5252,760,5,
172.546,2.60162,9.53064,0.416,11.5252,760,5,
172.546,2.59796,9.53217,0.416,11.5252,760,5,
172.546,2.59918,9.53064,0.416,11.5252,760,5,
172.546,2.59827,9.52911,0.416,11.5252,760,5,
172.546,2.59369,9.53217,0.332,11.5252,760,5,
172.546,2.5946,9.53522,0.332,11.5252,760,5,
172.546,2.59369,9.53217,0.332,11.5252,760,5,
172.546,2.58942,9.53217,0.332,11.5252,760,5,
172.546,2.5882,9.53369,0.332,11.5252,760,5,
172.546,2.5882,9.53217,0.332,11.5252,760,5,
172.546,2.58698,9.53064,0.332,11.5252,760,5,
172.546,2.58331,9.53369,0.332,11.5252,760,5,
172.547,2.58331,9.53064,0.332,11.5252,760,5,
172.547,2.58331,9.53217,0.332,11.5252,760,5,
172.547,2.57904,9.53064,0.332,11.5252,760,5,
172.547,2.57904,9.53064,0.332,11.5252,760,5,
172.547,2.57965,9.53217,0.332,11.5252,760,5,
172.547,2.57507,9.53217,0.332,11.5252,760,5,
172.547,2.57355,9.53217,0.332,11.5252,760,5,
172.547,2.57416,9.53217,0.332,11.5252,760,5,
172.547,2.56927,9.53217,0.332,11.5252,760,5,
172.547,2.56927,9.53369,0.332,11.5252,760,5,
172.547,2.56927,9.53369,0.332,11.5252,760,5,
172.547,2.565,9.53217,0.332,11.5252,760,5,
172.547,2.56439,9.53064,0.332,11.5252,760,5,
172.547,2.5647,9.53674,0.332,11.5252,760,5,
172.547,2.56073,9.53369,0.332,11.5252,760,5,
172.547,2.5589,9.53064,0.332,11.5252,760,5,
172.547,2.56012,9.53064,0.332,11.5252,760,5,
172.547,2.55829,9.53674,0.332,11.5252,760,5,
172.547,2.55463,9.53369,0.332,11.5252,760,5,
172.547,2.55402,9.53674,0.332,11.5252,760,5,
172.547,2.5528,9.53217,0.332,11.5252,760,5,
172.547,2.54974,9.53522,0.332,11.5252,760,5,
172.547,2.54944,9.53369,0.332,11.5252,760,5,
172.547,2.54791,9.53369,0.332,11.5252,760,5,
172.547,2.54456,9.53522,0.332,11.5252,760,5,
172.547,2.54486,9.53217,0.332,11.5252,760,5,
172.547,2.54364,9.53522,0.332,11.5252,760,5,
172.547,2.53967,9.53522,0.332,11.5252,760,5,
172.547,2.54059,9.53369,0.332,11.5252,760,5,
172.547,2.53906,9.53369,0.332,11.5252,760,5,
172.548,2.5351,9.53217,0.332,11.5252,760,5,
172.548,2.53479,9.53217,0.332,11.5252,760,5,
172.548,2.53571,9.53064,0.332,11.5252,760,5,
172.548,2.53052,9.53217,0.332,11.5252,760,5,
172.548,2.52991,9.53369,0.332,11.5252,760,5,
172.548,2.53052,9.53369,0.332,11.5252,760,5,
172.548,2.52533,9.53217,0.332,11.5252,760,5,
172.548,2.52563,9.53674,0.332,11.5252,760,5,
172.548,2.52502,9.53369,0.332,11.5252,760,5,
172.548,2.52014,9.53217,0.332,11.5252,760,5,
172.548,2.52045,9.53064,0.332,11.5252,760,5,
172.548,2.52106,9.53369,0.332,11.5252,760,5,
172.548,2.51495,9.53217,0.332,11.5252,760,5,
172.548,2.51556,9.53369,0.332,11.5252,760,5,
172.548,2.51556,9.53217,0.332,11.5252,760,5,
172.548,2.51007,9.53522,0.332,11.5252,760,5,
172.548,2.51038,9.53369,0.332,11.5252,760,5,
172.548,2.51068,9.52911,0.332,11.5252,760,5,
172.548,2.50549,9.53217,0.332,11.5252,760,5,
172.548,2.5061,9.53369,0.332,11.5252,760,5,
172.548,2.50549,9.53217,0.332,11.5252,760,5,
172.548,2.50092,9.53369,0.332,11.5252,760,5,
172.548,2.50061,9.53522,0.332,11.5252,760,5,
172.548,2.50061,9.53369,0.332,11.5252,760,5,
172.548,2.49573,9.53674,0.332,11.5252,760,5,
172.548,2.49634,9.53217,0.332,11.5252,760,5,
172.548,2.49603,9.53064,0.332,11.5252,760,5,
172.548,2.49237,9.53674,0.332,11.5252,760,5,
172.548,2.49084,9.53064,0.332,11.5252,760,5,
172.548,2.49146,9.53522,0.332,11.5252,760,5,
172.548,2.48718,9.53369,0.332,11.5252,760,5,
172.549,2.48627,9.53522,0.332,11.5252,760,5,
172.549,2.48596,9.53522,0.332,11.5252,760,5,
172.549,2.48444,9.53064,0.332,11.5252,760,5,
172.549,2.48169,9.53369,0.332,11.5252,760,5,
172.549,2.48108,9.53522,0.332,11.5252,760,5,
172.549,2.47955,9.52911,0.332,11.5252,760,5,
172.549,2.4762,9.52911,0.332,11.5252,760,5,
172.549,2.4762,9.53217,0.332,11.5252,760,5,
172.549,2.47681,9.53217,0.332,11.5252,760,5,
172.549,2.47101,9.53217,0.332,11.5252,760,5,
172.549,2.47162,9.53217,0.332,11.5252,760,5,
172.549,2.47162,9.53217,0.332,11.5252,760,5,
172.549,2.46674,9.53064,0.332,11.5252,760,5,
172.549,2.46613,9.53217,0.332,11.5252,760,5,
172.549,2.46674,9.53064,0.332,11.5252,760,5,
172.549,2.46277,9.53217,0.332,11.5252,760,5,
172.549,2.46155,9.53217,0.332,11.5252,760,5,
172.549,2.46216,9.53064,0.332,11.5252,760,5,
172.549,2.46185,9.53369,0.332,11.5252,760,5,
172.549,2.45697,9.53217,0.332,11.5252,760,5,
172.549,2.45667,9.53369,0.332,11.5252,760,5,
172.549,2.45697,9.53064,0.332,11.5252,760,5,
172.549,2.4527,9.53217,0.332,11.5252,760,5,
172.549,2.45178,9.53369,0.332,11.5252,761,5,
172.549,2.45209,9.53369,0.332,11.5252,761,5,
172.549,2.44751,9.53064,0.332,11.5252,761,5,
172.549,2.4469,9.53522,0.332,11.5252,761,5,
172.549,2.44629,9.53217,0.332,11.5252,761,5,
172.549,2.4472,9.53064,0.332,11.5252,761,5,
172.549,2.44202,9.53064,0.332,11.5252,761,5,
172.55,2.44232,9.53674,0.332,11.5252,761,5,
172.55,2.44202,9.53064,0.332,11.5252,761,5,
172.55,2.43774,9.53674,0.332,11.5252,761,5,
172.55,2.43652,9.53369,0.332,11.5252,761,5,
172.55,2.43744,9.53217,0.332,11.5252,761,5,
172.55,2.43774,9.53064,0.332,11.5252,761,5,
172.55,2.43195,9.53522,0.332,11.5252,761,5,
172.55,2.43256,9.53369,0.332,11.5252,761,5,
172.55,2.43164,9.53369,0.332,11.5252,761,5,
172.55,2.43011,9.52759,0.332,11.5252,761,5,
172.55,2.42737,9.51996,0.332,11.5252,761,5,
172.55,2.42676,9.52149,0.332,11.5252,761,5,
172.55,2.42706,9.51996,0.332,11.5252,761,5,
172.55,2.4231,9.51843,0.332,11.5252,761,5,
172.55,2.42279,9.51843,0.332,11.5252,761,5,
172.55,2.4231,9.52301,0.332,11.5252,761,5,
172.55,2.42249,9.52149,0.332,11.5252,761,5,
172.55,2.41913,9.51996,0.332,11.5252,761,5,
172.55,2.41821,9.52149,0.332,11.5252,761,5,
172.55,2.41821,9.51996,0.332,11.5252,761,5,
172.55,2.4176,9.51843,0.332,11.5252,761,5,
172.55,2.41394,9.52149,0.332,11.5252,761,5,
172.55,2.41211,9.51996,0.332,11.5252,761,5,
172.55,2.41302,9.51996,0.332,11.5252,761,5,
172.55,2.41302,9.51996,0.332,11.5252,761,5,
172.55,2.41089,9.51996,0.332,11.5252,761,5,
172.55,2.40784,9.52301,0.332,11.5252,761,5,
172.55,2.40784,9.51996,0.332,11.5252,761,5,
172.55,2.40753,9.52149,0.332,11.5252,761,5,
172.55,2.40784,9.51996,0.332,11.5252,761,5,
172.551,2.40356,9.51996,0.332,11.5252,761,5,
172.551,2.40295,9.52149,0.332,11.5252,761,5,
172.551,2.40234,9.52454,0.332,11.5252,761,5,
172.551,2.40295,9.51538,0.332,11.5252,761,5,
172.551,2.40326,9.51996,0.332,11.5252,761,5,
172.551,2.39716,9.52149,0.332,11.5252,761,5,
172.551,2.39807,9.51996,0.332,11.5252,761,5,
172.551,2.39838,9.52149,0.332,11.5252,761,5,
172.551,2.39777,9.52149,0.332,11.5252,761,5,
172.551,2.39807,9.52301,0.332,11.5252,761,5,
172.551,2.3941,9.52454,0.332,11.5252,761,5,
172.551,2.39288,9.52149,0.332,11.5252,761,5,
172.551,2.39288,9.51691,0.332,11.5252,761,5,
172.551,2.39288,9.52454,0.332,11.5252,761,5,
172.551,2.39319,9.51843,0.332,11.5252,761,5,
172.551,2.39319,9.52149,0.332,11.5252,761,5,
172.551,2.388,9.51996,0.332,11.5252,761,5,
172.551,2.38739,9.52149,0.332,11.5252,761,5,
172.551,2.3877,9.52301,0.332,11.5252,761,5,
172.551,2.38831,9.51843,0.332,11.5252,761,5,
172.551,2.38831,9.51996,0.332,11.5252,761,5,
172.551,2.388,9.51843,0.332,11.5252,761,5,
172.551,2.38617,9.52301,0.332,11.5252,761,5,
172.551,2.38312,9.51996,0.332,11.5252,761,5,
172.551,2.38281,9.52301,0.332,11.5252,761,5,
172.551,2.38342,9.51996,0.332,11.5252,761,5,
172.551,2.38251,9.52301,0.332,11.5252,761,5,
172.551,2.38312,9.51996,0.332,11.5252,761,5,
172.551,2.38342,9.51843,0.332,11.5252,761,5,
172.552,2.38312,9.52149,0.332,11.5252,761,5,
172.552,2.37854,9.51691,0.332,11.5252,761,5,
172.552,2.37885,9.51996,0.332,11.5252,761,5,
172.552,2.37823,9.52149,0.332,11.5252,761,5,
172.552,2.37823,9.52149,0.332,11.5252,761,5,
172.552,2.37823,9.51996,0.332,11.5252,761,5,
172.552,2.37823,9.52301,0.332,11.5252,761,5,
172.552,2.37823,9.51996,0.332,11.5252,761,5,
172.552,2.37823,9.51996,0.332,11.5252,761,5,
172.552,2.37823,9.51996,0.332,11.5252,761,5,
172.552,2.37335,9.51996,0.332,11.5252,761,5,
172.552,2.37335,9.52454,0.332,11.5252,761,5,
172.552,2.37396,9.52149,0.332,11.5252,761,5,
172.552,2.37305,9.51996,0.332,11.5252,761,5,
172.552,2.37396,9.52149,0.332,11.5252,761,5,
172.552,2.37335,9.51691,0.332,11.5252,761,5,
172.552,2.37305,9.52149,0.332,11.5252,761,5,
172.552,2.37305,9.51996,0.332,11.5252,761,5,
172.552,2.37366,9.52149,0.332,11.5252,761,5,
172.552,2.37366,9.52149,0.332,11.5252,761,5,
172.552,2.37335,9.52149,0.332,11.5252,761,5,
172.552,2.37335,9.51996,0.332,11.5252,761,5,
172.552,2.36877,9.51843,0.332,11.5252,761,5,
172.552,2.36847,9.52454,0.332,11.5252,761,5,
172.552,2.36786,9.52149,0.332,11.5252,761,5,
172.552,2.36877,9.51996,0.332,11.5252,761,5,
172.552,2.36786,9.51996,0.332,11.5252,761,5,
172.552,2.36908,9.52301,0.332,11.5252,761,5,
172.552,2.36847,9.52149,0.332,11.5252,761,5,
172.552,2.36877,9.51843,0.332,11.5252,761,5,
172.553,2.36847,9.51996,0.332,11.5252,761,5,
172.553,2.36847,9.51843,0.332,11.5252,761,5,
172.553,2.36816,9.52301,0.332,11.5252,761,5,
172.553,2.36847,9.52149,0.332,11.5252,761,5,
172.553,2.36877,9.52454,0.332,11.5252,761,5,
172.553,2.36816,9.51996,0.332,11.5252,761,5,
172.553,2.36816,9.51996,0.332,11.5252,761,5,
172.553,2.36786,9.52149,0.332,11.5252,761,5,
172.553,2.36816,9.52149,0.332,11.5252,761,5,
172.553,2.36847,9.52149,0.332,11.5252,761,5,
172.553,2.36755,9.52454,0.332,11.5252,761,5,
172.553,2.36877,9.52301,0.332,11.5252,761,5,
172.553,2.36877,9.52149,0.332,11.5252,761,5,
172.553,2.36816,9.51996,0.332,11.5252,761,5,
172.553,2.36847,9.52149,0.332,11.5252,761,5,
172.553,2.36847,9.51843,0.332,11.5252,761,5,
172.553,2.36877,9.51996,0.332,11.5252,761,5,
172.553,2.36786,9.52149,0.332,11.5252,761,5,
172.553,2.36847,9.51996,0.332,11.5252,761,5,
172.553,2.36816,9.51843,0.332,11.5252,761,5,
172.553,2.36847,9.51996,0.332,11.5252,761,5,
172.553,2.36847,9.51996,0.332,11.5252,761,5,
172.553,2.36847,9.51996,0.332,11.5252,761,5,
172.553,2.36847,9.5108,0.332,11.5252,761,5,
172.553,2.36847,9.5047,0.332,11.5252,761,5,
172.553,2.36847,9.50775,0.332,11.5252,761,5,
172.553,2.36786,9.50775,0.332,11.5252,761,5,
172.553,2.36847,9.51233,0.332,11.5252,761,5,
172.553,2.36847,9.50928,0.332,11.5252,761,5,
172.553,2.36847,9.50775,0.332,11.5252,761,5,
172.554,2.36847,9.51386,0.332,11.5252,761,5,
172.554,2.36816,9.50623,0.332,11.5252,761,5,
172.554,2.36877,9.5108,0.332,11.5252,761,5,
172.554,2.36786,9.5108,0.332,11.5252,761,5,
172.554,2.36908,9.50928,0.332,11.5252,761,5,
172.554,2.36877,9.50623,0.332,11.5252,761,5,
172.554,2.36755,9.50623,0.332,11.5252,761,5,
172.554,2.36786,9.50623,0.332,11.5252,761,5,
172.554,2.36816,9.50623,0.332,11.5252,761,5,
172.554,2.36816,9.50928,0.332,11.5252,761,5,
172.554,2.36847,9.5047,0.332,11.5252,761,5,
172.554,2.36877,9.50928,0.332,11.5252,761,5,
172.554,2.36847,9.50775,0.332,11.5252,761,5,
172.554,2.36847,9.50775,0.332,11.5252,761,5,
172.554,2.36847,9.51233,0.332,11.5252,761,5,
172.554,2.37,9.51233,0.332,11.5252,761,5,
172.554,2.37366,9.50928,0.332,11.5252,761,5,
172.554,2.37366,9.50928,0.332,11.5252,761,5,
172.554,2.37396,9.50928,0.332,11.5252,761,5,
172.554,2.37335,9.5108,0.332,11.5252,761,5,
172.554,2.37366,9.50623,0.332,11.5252,761,5,
172.554,2.37366,9.50775,0.332,11.5252,761,5,
172.554,2.37427,9.50623,0.332,11.5252,761,5,
172.554,2.37274,9.50928,0.332,11.5252,761,5,
172.554,2.37335,9.50623,0.332,11.5252,761,5,
172.554,2.37396,9.50623,0.332,11.5252,761,5,
172.554,2.37488,9.50928,0.332,11.5252,761,5,
172.554,2.37854,9.5108,0.332,11.5252,761,5,
172.554,2.37793,9.50928,0.332,11.5252,761,5,
172.554,2.37793,9.50928,0.332,11.5252,761,5,
172.554,2.37793,9.5108,0.332,11.5252,761,5,
172.555,2.37854,9.50775,0.332,11.5252,761,5,
172.555,2.37915,9.50928,0.332,11.5252,761,5,
172.555,2.37823,9.50775,0.332,11.5252,761,5,
172.555,2.37885,9.50775,0.332,11.5252,761,5,
172.555,2.3819,9.50775,0.332,11.5252,761,5,
172.555,2.38342,9.50928,0.332,11.5252,761,5,
172.555,2.38312,9.50928,0.332,11.5252,761,5,
172.555,2.38312,9.50775,0.332,11.5252,761,5,
172.555,2.38342,9.50928,0.332,11.5252,761,5,
172.555,2.38373,9.51233,0.332,11.5252,761,5,
172.555,2.38312,9.50775,0.332,11.5252,761,5,
172.555,2.38342,9.50928,0.332,11.5252,761,5,
172.555,2.38861,9.51386,0.332,11.5252,761,5,
172.555,2.38861,9.50775,0.332,11.5252,761,5,
172.555,2.3877,9.51538,0.332,11.5252,761,5,
172.555,2.38831,9.50623,0.332,11.5252,761,5,
172.555,2.388,9.50623,0.332,11.5252,761,5,
172.555,2.388,9.50775,0.332,11.5252,761,5,
172.555,2.38953,9.50928,0.332,11.5252,761,5,
172.555,2.39258,9.50928,0.332,11.5252,761,5,
172.555,2.39349,9.51233,0.332,11.5252,761,5,
172.555,2.39288,9.50775,0.332,11.5252,761,5,
172.555,2.39197,9.50775,0.332,11.5252,761,5,
172.555,2.39288,9.5108,0.332,11.5252,761,5,
172.555,2.39471,9.50775,0.332,11.5252,761,5,
172.555,2.39807,9.50623,0.332,11.5252,761,5,
172.555,2.39777,9.50928,0.332,11.5252,761,5,
172.555,2.39777,9.5047,0.332,11.5252,761,5,
172.555,2.39777,9.5047,0.332,11.5252,761,5,
172.555,2.39777,9.5108,0.332,11.5252,761,5,
172.556,2.40234,9.51233,0.332,11.5252,761,5,
172.556,2.40326,9.50775,0.332,11.5252,761,5,
172.556,2.40234,9.50928,0.332,11.5252,761,5,
172.556,2.40265,9.50775,0.332,11.5252,761,5,
172.556,2.40326,9.50775,0.332,11.5252,761,5,
172.556,2.40692,9.50775,0.332,11.5252,761,5,
172.556,2.40753,9.50775,0.332,11.5252,761,5,
172.556,2.40723,9.5108,0.332,11.5252,761,5,
172.556,2.40845,9.50775,0.332,11.5252,761,5,
172.556,2.40723,9.50623,0.332,11.5252,761,5,
172.556,2.41302,9.50928,0.332,11.5252,761,5,
172.556,2.41241,9.5108,0.332,11.5252,761,5,
172.556,2.41272,9.50928,0.332,11.5252,761,5,
172.556,2.41211,9.50928,0.332,11.5252,761,5,
172.556,2.41638,9.50775,0.332,11.5252,761,5,
172.556,2.4176,9.50775,0.332,11.5252,761,5,
172.556,2.41791,9.50775,0.332,11.5252,761,5,
172.556,2.41791,9.50928,0.332,11.5252,761,5,
172.556,2.41943,9.5108,0.332,11.5252,761,5,
172.556,2.42218,9.5047,0.332,11.5252,761,5,
172.556,2.4231,9.49402,0.332,11.5252,761,5,
172.556,2.42218,9.50165,0.332,11.5252,761,5,
172.556,2.42432,9.49555,0.332,11.5252,761,5,
172.556,2.42767,9.49707,0.332,11.5252,761,5,
172.556,2.42798,9.49707,0.332,11.5252,761,5,
172.556,2.42767,9.4986,0.332,11.5252,761,5,
172.556,2.42981,9.49707,0.332,11.5252,761,5,
172.556,2.43286,9.49555,0.332,11.5252,761,5,
172.556,2.43195,9.50012,0.332,11.5252,761,5,
172.556,2.43256,9.49707,0.332,11.5252,761,5,
172.557,2.43683,9.49402,0.332,11.5252,761,5,
172.557,2.43744,9.49707,0.332,11.5252,761,5,
172.557,2.43744,9.49555,0.332,11.5252,761,5,
172.557,2.43713,9.49555,0.332,11.5252,761,5,
172.557,2.44141,9.4986,0.332,11.5252,761,5,
172.557,2.44263,9.49707,0.332,11.5252,761,5,
172.557,2.44232,9.49707,0.332,11.5252,761,5,
172.557,2.44232,9.49402,0.332,11.5252,761,5,
172.557,2.44781,9.4986,0.332,11.5252,761,5,
172.557,2.4472,9.49707,0.332,11.5252,761,5,
172.557,2.4469,9.4986,0.332,11.5252,761,5,
172.557,2.45117,9.49555,0.332,11.5252,761,5,
172.557,2.45209,9.49555,0.332,11.5252,761,5,
172.557,2.45209,9.49555,0.332,11.5252,761,5,
172.557,2.4527,9.50012,0.332,11.5252,761,5,
172.557,2.45697,9.49555,0.332,11.5252,761,5,
172.557,2.45697,9.49555,0.332,11.5252,761,5,
172.557,2.45697,9.49402,0.332,11.5252,761,5,
172.557,2.4588,9.50012,0.332,11.5252,761,5,
172.557,2.46124,9.49555,0.332,11.5252,761,5,
172.557,2.46246,9.49402,0.332,11.5252,761,5,
172.557,2.46216,9.49555,0.332,11.5252,761,5,
172.557,2.46613,9.49555,0.332,11.5252,761,5,
172.557,2.46674,9.4986,0.332,11.5252,761,5,
172.557,2.46735,9.49555,0.332,11.5252,761,5,
172.557,2.46735,9.4986,0.332,11.5252,761,5,
172.557,2.47162,9.49402,0.332,11.5252,761,5,
172.557,2.47162,9.49707,0.332,11.5252,761,5,
172.557,2.47223,9.49555,0.332,11.5252,761,5,
172.558,2.47375,9.49402,0.332,11.5252,761,5,
172.558,2.4762,9.49402,0.332,11.5252,761,5,
172.558,2.47681,9.49402,0.332,11.5252,761,5,
172.558,2.47681,9.49402,0.332,11.5252,761,5,
172.558,2.48138,9.49555,0.332,11.5252,761,5,
172.558,2.48108,9.49402,0.332,11.5252,761,5,
172.558,2.48138,9.49555,0.332,11.5252,761,5,
172.558,2.48108,9.4986,0.332,11.5252,761,5,
172.558,2.48627,9.4986,0.332,11.5252,761,5,
172.558,2.48657,9.49707,0.332,11.5252,761,5,
172.558,2.48596,9.49555,0.332,11.5252,761,5,
172.558,2.49115,9.49707,0.332,11.5252,761,5,
172.558,2.49115,9.49402,0.332,11.5252,761,5,
172.558,2.49146,9.49555,0.332,11.5252,761,5,
172.558,2.49084,9.49555,0.332,11.5252,761,5,
172.558,2.49634,9.49707,0.332,11.5252,761,5,
172.558,2.49634,9.49555,0.332,11.5252,761,5,
172.558,2.49634,9.49555,0.332,11.5252,761,5,
172.558,2.49603,9.49707,0.332,11.5252,761,5,
172.558,2.50092,9.49402,0.332,11.5252,761,5,
172.558,2.50122,9.49707,0.332,11.5252,761,5,
172.558,2.50122,9.49707,0.332,11.5252,761,5,
172.558,2.50305,9.49555,0.332,11.5252,761,5,
172.558,2.5058,9.49707,0.332,11.5252,761,5,
172.558,2.5061,9.4986,0.332,11.5252,761,5,
172.558,2.5058,9.49707,0.332,11.5252,761,5,
172.558,2.50793,9.49707,0.332,11.5252,761,5,
172.558,2.51099,9.4986,0.332,11.5252,761,5,
172.558,2.51068,9.49707,0.332,11.5252,761,5,
172.558,2.51068,9.49555,0.332,11.5252,761,5,
172.559,2.51465,9.49707,0.332,11.5252,761,5,
172.559,2.51526,9.49707,0.332,11.5252,761,5,
172.559,2.51526,9.49707,0.332,11.5252,761,5,
172.559,2.51526,9.49707,0.332,11.5252,761,5,
172.559,2.51953,9.50012,0.332,11.5252,761,5,
172.559,2.52075,9.49555,0.332,11.5252,761,5,
172.559,2.52106,9.49555,0.332,11.5252,761,5,
172.559,2.52045,9.50012,0.332,11.5252,761,5,
172.559,2.52441,9.4986,0.332,11.5252,761,5,
172.559,2.52533,9.49555,0.332,11.5252,761,5,
172.559,2.52533,9.49707,0.332,11.5252,761,5,
172.559,2.52502,9.4986,0.332,11.5252,761,5,
172.559,2.5293,9.49707,0.332,11.5252,761,5,
172.559,2.5296,9.4986,0.332,11.5252,761,5,
172.559,2.53052,9.49707,0.332,11.5252,761,5,
172.559,2.53052,9.49555,0.332,11.5252,761,5,
172.559,2.53204,9.48486,0.332,11.5252,761,5,
172.559,2.5351,9.48334,0.332,11.5252,761,5,
172.559,2.5351,9.48486,0.332,11.5252,761,5,
172.559,2.5351,9.48181,0.332,11.5252,761,5,
172.559,2.53632,9.48181,0.332,11.5252,761,5,
172.559,2.54028,9.48639,0.332,11.5252,761,5,
172.559,2.53967,9.48486,0.332,11.5252,761,5,
172.559,2.53967,9.48486,0.332,11.5252,761,5,
172.559,2.53967,9.48792,0.332,11.5252,761,5,
172.559,2.54486,9.48486,0.332,11.5252,761,5,
172.559,2.54517,9.48334,0.332,11.5252,761,5,
172.559,2.54456,9.48181,0.332,11.5252,761,5,
172.559,2.54517,9.48181,0.332,11.5252,761,5,
172.559,2.55005,9.48181,0.332,11.5252,761,5,
172.56,2.55066,9.48486,0.332,11.5252,761,5,
172.56,2.55005,9.48486,0.332,11.5252,761,5,
172.56,2.54974,9.48639,0.332,11.5252,761,5,
172.56,2.55127,9.48181,0.332,11.5252,761,5,
172.56,2.55463,9.48792,0.332,11.5252,761,5,
172.56,2.55493,9.48334,0.332,11.5252,761,5,
172.56,2.55463,9.48334,0.332,11.5252,761,5,
172.56,2.55493,9.48639,0.332,11.5252,761,5,
172.56,2.55981,9.48334,0.332,11.5252,761,5,
172.56,2.55951,9.48334,0.332,11.5252,761,5,
172.56,2.55981,9.48334,0.332,11.5252,761,5,
172.56,2.55981,9.48639,0.332,11.5252,761,5,
172.56,2.56134,9.48334,0.332,11.5252,761,5,
172.56,2.56409,9.48486,0.332,11.5252,761,5,
172.56,2.56439,9.48486,0.332,11.5252,761,5,
172.56,2.56439,9.48334,0.332,11.5252,761,5,
172.56,2.565,9.48334,0.332,11.5252,761,5,
172.56,2.56866,9.48486,0.332,11.5252,761,5,
172.56,2.56958,9.48486,0.332,11.5252,761,5,
172.56,2.56958,9.48639,0.332,11.5252,761,5,
172.56,2.56989,9.48486,0.332,11.5252,761,5,
172.56,2.56958,9.48029,0.332,11.5252,761,5,
172.56,2.57507,9.48486,0.332,11.5252,761,5,
172.56,2.57446,9.48334,0.332,11.5252,761,5,
172.56,2.57446,9.48486,0.332,11.5252,761,5,
172.56,2.57446,9.48181,0.332,11.5252,761,5,
172.56,2.57416,9.48486,0.332,11.5252,761,5,
172.56,2.57965,9.48029,0.332,11.5252,761,5,
172.56,2.57935,9.48792,0.332,11.5252,761,5,
172.56,2.57843,9.48334,0.332,11.5252,761,5,
172.56,2.57965,9.48181,0.332,11.5252,761,5,
172.561,2.58118,9.48486,0.332,11.5252,761,5,
172.561,2.58331,9.48334,0.332,11.5252,761,5,
172.561,2.58423,9.48792,0.332,11.5252,761,5,
172.561,2.58423,9.48334,0.332,11.5252,761,5,
172.561,2.58392,9.48486,0.332,11.5252,761,5,
172.561,2.58362,9.48334,0.332,11.5252,761,5,
172.561,2.58881,9.48486,0.332,11.5252,761,5,
172.561,2.58911,9.48334,0.332,11.5252,761,5,
172.561,2.5882,9.48792,0.332,11.5252,761,5,
172.561,2.58881,9.48334,0.332,11.5252,761,5,
172.561,2.58881,9.48639,0.332,11.5252,761,5,
172.561,2.59369,9.48639,0.332,11.5252,761,5,
172.561,2.59369,9.48486,0.332,11.5252,761,5,
172.561,2.59338,9.48486,0.332,11.5252,761,5,
172.561,2.59338,9.48792,0.332,11.5252,761,5,
172.561,2.59369,9.48334,0.332,11.5252,761,5,
172.561,2.59735,9.48486,0.332,11.5252,761,5,
172.561,2.59827,9.48639,0.332,11.5252,761,5,
172.561,2.59827,9.48486,0.332,11.5252,761,5,
172.561,2.59857,9.48334,0.332,11.5252,761,5,
172.561,2.59857,9.48334,0.332,11.5252,761,5,
172.561,2.59827,9.48334,0.332,11.5252,761,5,
172.561,2.60406,9.48486,0.332,11.5252,761,5,
172.561,2.60284,9.48486,0.332,11.5252,761,5,
172.561,2.60376,9.48029,0.332,11.5252,761,5,
172.561,2.60345,9.48334,0.332,11.5252,761,5,
172.561,2.60376,9.48334,0.332,11.5252,761,5,
172.561,2.60773,9.48334,0.332,11.5252,761,5,
172.561,2.60834,9.48181,0.332,11.5252,761,5,
172.561,2.60834,9.48639,0.332,11.5252,761,5,
172.562,2.60803,9.48792,0.332,11.5252,761,5,
172.562,2.60803,9.48486,0.332,11.5252,761,5,
172.562,2.60895,9.48639,0.332,11.5252,761,5,
172.562,2.61322,9.48486,0.332,11.5252,761,5,
172.562,2.61261,9.48486,0.332,11.5252,761,5,
172.562,2.61353,9.48944,0.332,11.5252,761,5,
172.562,2.61292,9.48334,0.332,11.5252,761,5,
172.562,2.61322,9.48181,0.332,11.5252,761,5,
172.562,2.61322,9.48639,0.332,11.5252,761,5,
172.562,2.61871,9.48639,0.332,11.5252,761,5,
172.562,2.61841,9.48639,0.332,11.5252,761,5,
172.562,2.61749,9.48792,0.332,11.5252,761,5,
172.562,2.61871,9.48639,0.332,11.5252,761,5,
172.562,2.61902,9.47418,0.332,11.5252,761,5,
172.562,2.61932,9.47418,0.332,11.5252,761,5,
172.562,2.62329,9.47266,0.332,11.5252,761,5,
172.562,2.62299,9.47113,0.332,11.5252,761,5,
172.562,2.62299,9.46808,0.332,11.5252,761,5,
172.562,2.6236,9.47418,0.332,11.5252,761,5,
172.562,2.62329,9.47113,0.332,11.5252,761,5,
172.562,2.62695,9.47113,0.332,11.5252,761,5,
172.562,2.62787,9.47418,0.332,11.5252,761,5,
172.562,2.62848,9.47113,0.332,11.5252,761,5,
172.562,2.62817,9.47266,0.332,11.5252,761,5,
172.562,2.62787,9.47266,0.332,11.5252,761,5,
172.562,2.62817,9.47266,0.332,11.5252,761,5,
172.562,2.6297,9.47266,0.332,11.5252,761,5,
172.562,2.63306,9.47266,0.332,11.5252,761,5,
172.562,2.63275,9.47113,0.332,11.5252,761,5,
172.562,2.63275,9.47418,0.332,11.5252,761,5,
172.563,2.63245,9.46961,0.332,11.5252,761,5,
172.563,2.63214,9.46961,0.332,11.5252,761,5,
172.563,2.63489,9.47418,0.332,11.5252,761,5,
172.563,2.63733,9.47418,0.332,11.5252,761,5,
172.563,2.63824,9.47266,0.332,11.5252,761,5,
172.563,2.63824,9.47266,0.332,11.5252,761,5,
172.563,2.63824,9.47113,0.332,11.5252,761,5,
172.563,2.63794,9.47266,0.332,11.5252,761,5,
172.563,2.63733,9.47418,0.332,11.5252,761,5,
172.563,2.64343,9.47113,0.332,11.5252,761,5,
172.563,2.64343,9.47418,0.332,11.5252,761,5,
172.563,2.64221,9.47418,0.332,11.5252,761,5,
172.563,2.64282,9.47418,0.332,11.5252,761,5,
172.563,2.64343,9.47571,0.332,11.5252,761,5,
172.563,2.64313,9.47113,0.332,11.5252,761,5,
172.563,2.64771,9.47113,0.332,11.5252,761,5,
172.563,2.6474,9.47266,0.332,11.5252,761,5,
172.563,2.6474,9.47418,0.332,11.5252,761,5,
172.563,2.64801,9.46961,0.332,11.5252,761,5,
172.563,2.64771,9.46961,0.332,11.5252,761,5,
172.563,2.64771,9.46961,0.332,11.5252,761,5,
172.563,2.65228,9.47266,0.332,11.5252,761,5,
172.563,2.65259,9.47571,0.332,11.5252,761,5,
172.563,2.65259,9.47113,0.332,11.5252,761,5,
172.563,2.65228,9.47266,0.332,11.5252,761,5,
172.563,2.65259,9.47113,0.332,11.5252,761,5,
172.563,2.65656,9.47266,0.332,11.5252,761,5,
172.563,2.65717,9.47571,0.332,11.5252,761,5,
172.563,2.65747,9.47418,0.332,11.5252,761,5,
172.564,2.65747,9.47266,0.332,11.5252,761,5,
172.564,2.65808,9.47266,0.332,11.5252,761,5,
172.564,2.66266,9.46961,0.332,11.5252,761,5,
172.564,2.66296,9.47113,0.332,11.5252,761,5,
172.564,2.66235,9.47571,0.332,11.5252,761,5,
172.564,2.66144,9.47418,0.332,11.5252,761,5,
172.564,2.66357,9.47266,0.332,11.5252,761,5,
172.564,2.66754,9.47113,0.332,11.5252,761,5,
172.564,2.66785,9.46808,0.332,11.5252,761,5,
172.564,2.66724,9.47266,0.332,11.5252,761,5,
172.564,2.66724,9.47418,0.332,11.5252,761,5,
172.564,2.67212,9.47113,0.332,11.5252,761,5,
172.564,2.67212,9.47113,0.332,11.5252,761,5,
172.564,2.67242,9.47266,0.332,11.5252,761,5,
172.564,2.67212,9.47418,0.332,11.5252,761,5,
172.564,2.67792,9.46961,0.332,11.5252,761,5,
172.564,2.6767,9.47113,0.332,11.5252,761,5,
172.564,2.6767,9.47418,0.332,11.5252,761,5,
172.564,2.67731,9.47266,0.332,11.5252,761,5,
172.564,2.68219,9.47418,0.332,11.5252,761,5,
172.564,2.68188,9.47113,0.332,11.5252,761,5,
172.564,2.68158,9.46808,0.332,11.5252,761,5,
172.564,2.68188,9.47113,0.332,11.5252,761,5,
172.564,2.68677,9.47571,0.332,11.5252,761,5,
172.564,2.68646,9.47113,0.332,11.5252,761,5,
172.564,2.68616,9.47266,0.332,11.5252,761,5,
172.564,2.68799,9.47113,0.332,11.5252,761,5,
172.564,2.69226,9.47723,0.332,11.5252,761,5,
172.564,2.69226,9.47113,0.332,11.5252,761,5,
172.564,2.69135,9.47266,0.332,11.5252,761,5,
172.565,2.69531,9.47266,0.332,11.5252,761,5,
172.565,2.69684,9.47266,0.332,11.5252,761,5,
172.565,2.69592,9.46808,0.332,11.5252,761,5,
172.565,2.69684,9.47113,0.332,11.5252,761,5,
172.565,2.70111,9.47418,0.332,11.5252,761,5,
172.565,2.70172,9.47266,0.332,11.5252,761,5,
172.565,2.70111,9.45892,0.332,11.5252,761,5,
172.565,2.70355,9.45892,0.332,11.5252,761,5,
172.565,2.7063,9.45892,0.332,11.5252,761,5,
172.565,2.7066,9.45892,0.332,11.5252,761,5,
172.565,2.7066,9.4574,0.332,11.5252,761,5,
172.565,2.71088,9.45892,0.332,11.5252,761,5,
172.565,2.71088,9.45892,0.332,11.5252,761,5,
172.565,2.71149,9.46198,0.332,11.5252,761,5,
172.565,2.71301,9.46198,0.332,11.5252,761,5,
172.565,2.71637,9.4574,0.332,11.5252,761,5,
172.565,2.71606,9.45892,0.332,11.5252,761,5,
172.565,2.71576,9.46045,0.332,11.5252,761,5,
172.565,2.72064,9.4574,0.332,11.5252,761,5,
172.565,2.72095,9.46198,0.332,11.5252,761,5,
172.565,2.72125,9.46045,0.332,11.5252,761,5,
172.565,2.72247,9.46198,0.332,11.5252,761,5,
172.565,2.72583,9.46198,0.332,11.5252,761,5,
172.565,2.72644,9.45892,0.332,11.5252,761,5,
172.565,2.72644,9.45892,0.332,11.5252,761,5,
172.565,2.73071,9.4574,0.332,11.5252,761,5,
172.565,2.73041,9.46198,0.332,11.5252,761,5,
172.565,2.73102,9.45435,0.332,11.5252,761,5,
172.565,2.73285,9.45435,0.332,11.5252,761,5,
172.565,2.73621,9.45892,0.332,11.5252,761,5,
172.565,2.7359,9.46045,0.332,11.5252,761,5,
172.566,2.7356,9.46045,0.332,11.5252,761,5,
172.566,2.74139,9.46198,0.332,11.5252,761,5,
172.566,2.74048,9.45892,0.332,11.5252,761,5,
172.566,2.74048,9.46045,0.332,11.5252,761,5,
172.566,2.74506,9.4574,0.332,11.5252,761,5,
172.566,2.74567,9.46045,0.332,11.5252,761,5,
172.566,2.74567,9.46045,0.332,11.5252,761,5,
172.566,2.74536,9.45892,0.332,11.5252,761,5,
172.566,2.75085,9.45892,0.332,11.5252,761,5,
172.566,2.75055,9.46045,0.332,11.5252,761,5,
172.566,2.75116,9.46045,0.332,11.5252,761,5,
172.566,2.75421,9.4635,0.332,11.5252,761,5,
172.566,2.75574,9.45892,0.332,11.5252,761,5,
172.566,2.75574,9.46045,0.332,11.5252,761,5,
172.566,2.75574,9.45892,0.332,11.5252,761,5,
172.566,2.76031,9.45892,0.332,11.5252,761,5,
172.566,2.76001,9.45892,0.332,11.5252,761,5,
172.566,2.76031,9.45892,0.332,11.5252,761,5,
172.566,2.76459,9.46045,0.332,11.5252,761,5,
172.566,2.7655,9.46045,0.332,11.5252,761,5,
172.566,2.76581,9.46045,0.332,11.5252,761,5,
172.566,2.76581,9.45892,0.332,11.5252,761,5,
172.566,2.771,9.45892,0.332,11.5252,761,5,
172.566,2.77008,9.4574,0.332,11.5252,761,5,
172.566,2.77008,9.4574,0.332,11.5252,761,5,
172.566,2.77222,9.46045,0.332,11.5252,761,5,
172.566,2.77557,9.46045,0.332,11.5252,761,5,
172.566,2.77527,9.45892,0.332,11.5252,761,5,
172.566,2.77435,9.46045,0.332,11.5252,761,5,
172.566,2.78015,9.45892,0.332,11.5252,761,5,
172.567,2.78015,9.46045,0.332,11.5252,761,5,
172.567,2.77985,9.45892,0.332,11.5252,761,5,
172.567,2.78168,9.46045,0.332,11.5252,761,5,
172.567,2.78473,9.46045,0.332,11.5252,761,5,
172.567,2.78473,9.46045,0.332,11.5252,761,5,
172.567,2.78534,9.46198,0.332,11.5252,761,5,
172.567,2.78961,9.4574,0.332,11.5252,761,5,
172.567,2.78931,9.45892,0.332,11.5252,761,5,
172.567,2.78992,9.45892,0.332,11.5252,761,5,
172.567,2.79022,9.4635,0.332,11.5252,761,5,
172.567,2.7948,9.45892,0.332,11.5252,761,5,
172.567,2.79388,9.45892,0.332,11.5252,761,5,
172.567,2.7948,9.46045,0.332,11.5252,761,5,
172.567,2.79633,9.46045,0.332,11.5252,761,5,
172.567,2.79999,9.46198,0.332,11.5252,761,5,
172.567,2.79938,9.46045,0.332,11.5252,761,5,
172.567,2.79968,9.4635,0.332,11.5252,761,5,
172.567,2.80396,9.45892,0.332,11.5252,761,5,
172.567,2.80487,9.46045,0.332,11.5252,761,5,
172.567,2.80487,9.4574,0.332,11.5252,761,5,
172.567,2.80426,9.4574,0.332,11.5252,761,5,
172.567,2.80792,9.46045,0.332,11.5252,761,5,
172.567,2.80884,9.45587,0.332,11.5252,761,5,
172.567,2.80975,9.46045,0.332,11.5252,761,5,
172.567,2.80975,9.45892,0.332,11.5252,761,5,
172.567,2.81403,9.4635,0.332,11.5252,761,5,
172.567,2.81433,9.4574,0.332,11.5252,761,5,
172.567,2.81372,9.45892,0.332,11.5252,761,5,
172.567,2.81464,9.46198,0.332,11.5252,761,5,
172.567,2.81921,9.44519,0.332,11.5252,761,5,
172.568,2.81921,9.44519,0.332,11.5252,761,5,
172.568,2.81952,9.44672,0.332,11.5252,761,5,
172.568,2.81921,9.44519,0.332,11.5252,761,5,
172.568,2.8241,9.44672,0.332,11.5252,761,5,
172.568,2.82379,9.44824,0.332,11.5252,761,5,
172.568,2.82318,9.44519,0.332,11.5252,761,5,
172.568,2.82318,9.44672,0.332,11.5252,761,5,
172.568,2.82898,9.44519,0.332,11.5252,761,5,
172.568,2.82928,9.44824,0.332,11.5252,761,5,
172.568,2.82867,9.44824,0.332,11.5252,761,5,
172.568,2.82928,9.44367,0.332,11.5252,761,5,
172.568,2.83264,9.44519,0.332,11.5252,761,5,
172.568,2.83386,9.44824,0.332,11.5252,761,5,
172.568,2.83325,9.44672,0.332,11.5252,761,5,
172.568,2.83386,9.44824,0.332,11.5252,761,5,
172.568,2.83508,9.44977,0.332,11.5252,761,5,
172.568,2.83844,9.45129,0.332,11.5252,761,5,
172.568,2.83905,9.44824,0.332,11.5252,761,5,
172.568,2.83875,9.44824,0.332,11.5252,761,5,
172.568,2.83936,9.45282,0.332,11.5252,761,5,
172.568,2.84332,9.44519,0.332,11.5252,761,5,
172.568,2.84424,9.45435,0.332,11.5252,761,5,
172.568,2.84393,9.45129,0.332,11.5252,761,5,
172.568,2.84363,9.44977,0.332,11.5252,761,5,
172.568,2.84515,9.44519,0.332,11.5252,761,5,
172.568,2.84821,9.44824,0.332,11.5252,761,5,
172.568,2.84912,9.44824,0.332,11.5252,761,5,
172.568,2.84851,9.44519,0.332,11.5252,761,5,
172.568,2.84821,9.44824,0.332,11.5252,761,5,
172.569,2.85339,9.44977,0.332,11.5252,761,5,
172.569,2.8537,9.44824,0.332,11.5252,761,5,
172.569,2.85339,9.44519,0.332,11.5252,761,5,
172.569,2.8537,9.44672,0.332,11.5252,761,5,
172.569,2.85339,9.44977,0.332,11.5252,761,5,
172.569,2.85889,9.44519,0.332,11.5252,761,5,
172.569,2.85889,9.44824,0.332,11.5252,761,5,
172.569,2.85828,9.44824,0.332,11.5252,761,5,
172.569,2.85889,9.44824,0.332,11.5252,761,5,
172.569,2.85858,9.44977,0.332,11.5252,761,5,
172.569,2.86285,9.44824,0.332,11.5252,761,5,
172.569,2.86316,9.44977,0.332,11.5252,761,5,
172.569,2.86316,9.44519,0.332,11.5252,761,5,
172.569,2.86346,9.44824,0.332,11.5252,761,5,
172.569,2.86377,9.45129,0.332,11.5252,761,5,
172.569,2.86713,9.44824,0.332,11.5252,761,5,
172.569,2.86865,9.44672,0.332,11.5252,761,5,
172.569,2.86835,9.44824,0.332,11.5252,761,5,
172.569,2.86804,9.44824,0.332,11.5252,761,5,
172.569,2.86804,9.44672,0.332,11.5252,761,5,
172.569,2.86865,9.44977,0.332,11.5252,761,5,
172.569,2.87354,9.44519,0.332,11.5252,761,5,
172.569,2.87292,9.44977,0.332,11.5252,761,5,
172.569,2.87354,9.44824,0.332,11.5252,761,5,
172.569,2.87323,9.44824,0.332,11.5252,761,5,
172.569,2.87323,9.44824,0.332,11.5252,761,5,
172.569,2.87323,9.44824,0.332,11.5252,761,5,
172.569,2.8775,9.43756,0.332,11.5252,761,5,
172.569,2.87781,9.43756,0.332,11.5252,761,5,
172.569,2.87811,9.43604,0.332,11.5252,761,5,
172.57,2.8775,9.43298,0.332,11.5252,761,5,
172.57,2.87781,9.43604,0.332,11.5252,761,5,
172.57,2.87872,9.43604,0.332,11.5252,761,5,
172.57,2.88208,9.43298,0.332,11.5252,761,5,
172.57,2.883,9.43604,0.332,11.5252,761,5,
172.57,2.88391,9.43604,0.332,11.5252,761,5,
172.57,2.88361,9.43604,0.332,11.5252,761,5,
172.57,2.88269,9.43298,0.332,11.5252,761,5,
172.57,2.883,9.43604,0.332,11.5252,761,5,
172.57,2.88269,9.43451,0.332,11.5252,761,5,
172.57,2.88727,9.43298,0.332,11.5252,761,5,
172.57,2.88788,9.43451,0.332,11.5252,761,5,
172.57,2.88788,9.43451,0.332,11.5252,761,5,
172.57,2.88818,9.43604,0.332,11.5252,761,5,
172.57,2.88757,9.43756,0.332,11.5252,761,5,
172.57,2.88818,9.43298,0.332,11.5252,761,5,
172.57,2.88849,9.43451,0.332,11.5252,761,5,
172.57,2.88727,9.43451,0.332,11.5252,761,5,
172.57,2.89215,9.43604,0.332,11.5252,761,5,
172.57,2.89246,9.43451,0.332,11.5252,761,5,
172.57,2.89307,9.43756,0.332,11.5252,761,5,
172.57,2.89276,9.43451,0.332,11.5252,761,5,
172.57,2.89276,9.43298,0.332,11.5252,761,5,
172.57,2.89307,9.43604,0.332,11.5252,761,5,
172.57,2.89246,9.43604,0.332,11.5252,761,5,
172.57,2.89337,9.43298,0.332,11.5252,761,5,
172.57,2.89276,9.44061,0.332,11.5252,761,5,
172.57,2.89795,9.43604,0.332,11.5252,761,5,
172.57,2.89795,9.43451,0.332,11.5252,761,5,
172.57,2.89703,9.43604,0.332,11.5252,761,5,
172.571,2.89703,9.43604,0.332,11.5252,761,5,
172.571,2.89764,9.43604,0.332,11.5252,761,5,
172.571,2.89825,9.43298,0.332,11.5252,761,5,
172.571,2.89795,9.43756,0.332,11.5252,761,5,
172.571,2.89764,9.43298,0.332,11.5252,761,5,
172.571,2.89795,9.43756,0.332,11.5252,761,5,
172.571,2.89703,9.43604,0.332,11.5252,761,5,
172.571,2.89734,9.43604,0.332,11.5252,761,5,
172.571,2.90283,9.43451,0.332,11.5252,761,5,
172.571,2.90253,9.43298,0.332,11.5252,761,5,
172.571,2.90222,9.4223,0.332,11.5252,761,5,
172.571,2.90314,9.42535,0.332,11.5252,761,5,
172.571,2.90192,9.42535,0.332,11.5252,761,5,
172.571,2.90283,9.42688,0.332,11.5252,761,5,
172.571,2.90192,9.42535,0.332,11.5252,761,5,
172.571,2.90222,9.42383,0.332,11.5252,761,5,
172.571,2.90253,9.42383,0.332,11.5252,761,5,
172.571,2.90222,9.4223,0.332,11.5252,761,5,
172.571,2.90253,9.42383,0.332,11.5252,761,5,
172.571,2.90222,9.4223,0.332,11.5252,761,5,
172.571,2.90314,9.42535,0.332,11.5252,761,5,
172.571,2.90558,9.42383,0.332,11.5252,761,5,
172.571,2.90771,9.42688,0.332,11.5252,761,5,
172.571,2.90741,9.42383,0.332,11.5252,761,5,
172.571,2.9071,9.42078,0.332,11.5252,761,5,
172.571,2.9071,9.4223,0.332,11.5252,761,5,
172.571,2.9068,9.42383,0.332,11.5252,761,5,
172.571,2.90741,9.4223,0.332,11.5252,761,5,
172.571,2.9071,9.42078,0.332,11.5252,761,5,
172.571,2.90771,9.42383,0.332,11.5252,761,5,
172.571,2.90741,9.41925,0.332,11.5252,761,5,
172.572,2.90741,9.42383,0.332,11.5252,761,5,
172.572,2.90741,9.42078,0.332,11.5252,761,5,
172.572,2.9071,9.42688,0.332,11.5252,761,5,
172.572,2.9071,9.42383,0.332,11.5252,761,5,
172.572,2.9071,9.41925,0.332,11.5252,761,5,
172.572,2.90741,9.4223,0.332,11.5252,761,5,
172.572,2.90741,9.4223,0.332,11.5252,761,5,
172.572,2.9071,9.42535,0.332,11.5252,761,5,
172.572,2.90771,9.4223,0.332,11.5252,761,5,
172.572,2.90741,9.41925,0.332,11.5252,761,5,
172.572,2.91168,9.42078,0.332,11.5252,761,5,
172.572,2.91199,9.42383,0.332,11.5252,761,5,
172.572,2.91229,9.42383,0.332,11.5252,761,5,
172.572,2.91229,9.4223,0.332,11.5252,761,5,
172.572,2.91229,9.42535,0.332,11.5252,761,5,
172.572,2.9126,9.42078,0.332,11.5252,761,5,
172.572,2.9129,9.42841,0.332,11.5252,761,5,
172.572,2.9126,9.41925,0.332,11.5252,761,5,
172.572,2.91199,9.42383,0.332,11.5252,761,5,
172.572,2.91229,9.42078,0.332,11.5252,761,5,
172.572,2.91229,9.4223,0.332,11.5252,761,5,
172.572,2.9126,9.42078,0.332,11.5252,761,5,
172.572,2.9126,9.42535,0.332,11.5252,761,5,
172.572,2.91229,9.42078,0.332,11.5252,761,5,
172.572,2.91199,9.42078,0.332,11.5252,761,5,
172.572,2.91229,9.42688,0.332,11.5252,761,5,
172.572,2.9126,9.4223,0.332,11.5252,761,5,
172.572,2.91229,9.4223,0.332,11.5252,761,5,
172.572,2.91199,9.4223,0.332,11.5252,761,5,
172.572,2.91229,9.41925,0.332,11.5252,761,5,
172.573,2.91229,9.4223,0.332,11.5252,761,5,
172.573,2.91321,9.42383,0.332,11.5252,761,5,
172.573,2.91199,9.42535,0.332,11.5252,761,5,
172.573,2.9126,9.42383,0.332,11.5252,761,5,
172.573,2.91229,9.42383,0.332,11.5252,761,5,
172.573,2.91229,9.42383,0.332,11.5252,761,5,
172.573,2.91199,9.4223,0.332,11.5252,761,5,
172.573,2.91229,9.4223,0.332,11.5252,761,5,
172.573,2.91229,9.4223,0.332,11.5252,761,5,
172.573,2.91199,9.4223,0.332,11.5252,761,5,
172.573,2.91168,9.42535,0.332,11.5252,761,5,
172.573,2.91229,9.42383,0.332,11.5252,761,5,
172.573,2.91199,9.42688,0.332,11.5252,761,5,
172.573,2.91229,9.4223,0.332,11.5252,761,5,
172.573,2.91229,9.42383,0.332,11.5252,761,5,
172.573,2.91321,9.42383,0.332,11.5252,761,5,
172.573,2.91199,9.4223,0.332,11.5252,761,5,
172.573,2.91229,9.42535,0.332,11.5252,761,5,
172.573,2.9126,9.4223,0.332,11.5252,761,5,
172.573,2.91229,9.4223,0.332,11.5252,761,5,
172.573,2.91229,9.42383,0.332,11.5252,761,5,
172.573,2.91229,9.42535,0.332,11.5252,761,5,
172.573,2.91229,9.4101,0.332,11.5252,761,5,
172.573,2.9126,9.41162,0.332,11.5252,761,5,
172.573,2.91229,9.4101,0.332,11.5252,761,5,
172.573,2.91229,9.41467,0.332,11.5252,761,5,
172.573,2.91229,9.41162,0.332,11.5252,761,5,
172.573,2.91229,9.41162,0.332,11.5252,761,5,
172.573,2.91229,9.41162,0.332,11.5252,761,5,
172.573,2.91229,9.40704,0.332,11.5252,761,5,
172.574,2.91199,9.41315,0.332,11.5252,761,5,
172.574,2.9129,9.41315,0.332,11.5252,761,5,
172.574,2.9126,9.40857,0.332,11.5252,761,5,
172.574,2.9126,9.41467,0.332,11.5252,761,5,
172.574,2.91229,9.41315,0.332,11.5252,761,5,
172.574,2.91321,9.40857,0.332,11.5252,761,5,
172.574,2.9126,9.41315,0.332,11.5252,761,5,
172.574,2.91199,9.4101,0.332,11.5252,761,5,
172.574,2.91199,9.4101,0.332,11.5252,761,5,
172.574,2.9126,9.4101,0.332,11.5252,761,5,
172.574,2.91199,9.4101,0.332,11.5252,761,5,
172.574,2.91077,9.40704,0.332,11.5252,761,5,
172.574,2.9071,9.41467,0.332,11.5252,761,5,
172.574,2.90771,9.41162,0.332,11.5252,761,5,
172.574,2.90771,9.40857,0.332,11.5252,761,5,
172.574,2.9071,9.4101,0.332,11.5252,761,5,
172.574,2.9068,9.41162,0.332,11.5252,761,5,
172.574,2.90741,9.41162,0.332,11.5252,761,5,
172.574,2.9071,9.4101,0.332,11.5252,761,5,
172.574,2.90741,9.41162,0.332,11.5252,761,5,
172.574,2.90802,9.40857,0.332,11.5252,761,5,
172.574,2.9071,9.41162,0.332,11.5252,761,5,
172.574,2.90741,9.40857,0.332,11.5252,761,5,
172.574,2.90771,9.41162,0.332,11.5252,761,5,
172.574,2.90771,9.4101,0.332,11.5252,761,5,
172.574,2.9071,9.40857,0.332,11.5252,761,5,
172.574,2.9068,9.41467,0.332,11.5252,761,5,
172.574,2.90741,9.41315,0.332,11.5252,761,5,
172.574,2.90649,9.41467,0.332,0,761,5,
172.575,2.9068,9.4101,0.332,0,761,5,
172.575,2.90771,9.41162,0.332,0,761,5,
172.575,2.90741,9.41315,0.332,0,761,5,
172.575,2.9071,9.40857,0.332,0,761,5,
172.575,2.9071,9.41162,0.332,0,761,5,
172.575,2.9068,9.40552,0.332,0,761,5,
172.575,2.90771,9.41162,0.332,0,761,5,
172.575,2.90741,9.41467,0.332,0,761,5,
172.575,2.90802,9.41315,0.332,0,761,5,
172.575,2.90741,9.4101,0.332,0,761,5,
172.575,2.9068,9.41162,0.332,0,761,5,
172.575,2.90741,9.40857,0.332,0,761,5,
172.575,2.90741,9.41162,0.332,0,761,5,
172.575,2.9071,9.41315,0.332,0,761,5,
172.575,2.90314,9.41315,0.332,0,761,5,
172.575,2.90253,9.41162,0.332,0,761,5,
172.575,2.90314,9.40857,0.332,0,761,5,
172.575,2.90283,9.4101,0.332,0,761,5,
172.575,2.90253,9.41315,0.332,0,761,5,
172.575,2.90222,9.41162,0.332,0,761,5,
172.575,2.90253,9.4101,0.332,0,761,5,
172.575,2.90253,9.41162,0.332,0,761,5,
172.575,2.90283,9.41315,0.332,0,761,5,
172.575,2.90253,9.4101,0.332,0,761,5,
172.575,2.90253,9.4101,0.332,0,761,5,
172.575,2.90222,9.40857,0.332,0,761,5,
172.575,2.90253,9.4101,0.332,0,761,5,
172.575,2.90253,9.41162,0.332,0,761,5,
172.575,2.90283,9.4101,0.332,0,761,5,
172.575,2.90192,9.40704,0.332,0,761,5,
172.576,2.90253,9.41162,0.332,0,761,5,
172.576,2.90253,9.41162,0.332,0,761,5,
172.576,2.90253,9.40857,0.332,0,761,5,
172.576,2.90283,9.40704,0.332,0,761,5,
172.576,2.90222,9.4101,0.332,0,761,5,
172.576,2.90253,9.4101,0.332,0,761,5,
172.576,2.90283,9.41162,0.332,0,761,5,
172.576,2.90283,9.41162,0.332,0,761,5,
172.576,2.90283,9.4101,0.332,0,761,5,
172.576,2.90253,9.4101,0.332,0,761,5,
172.576,2.90314,9.41162,0.332,0,761,5,
172.576,2.90222,9.41162,0.332,0,761,5,
172.576,2.90253,9.4101,0.332,0,761,5,
172.576,2.9007,9.41162,0.332,0,761,5,
172.576,2.89734,9.40857,0.332,0,761,5,
172.576,2.89703,9.41315,0.332,0,761,5,
172.576,2.89795,9.4101,0.332,0,761,5,
172.576,2.89764,9.41162,0.332,0,761,5,
172.576,2.89764,9.41162,0.332,0,761,5,
172.576,2.89764,9.4101,0.332,0,761,5,
172.576,2.89764,9.41315,0.332,0,761,5,
172.576,2.89795,9.41162,0.332,0,761,5,
172.576,2.89825,9.4101,0.332,0,761,5,
172.576,2.89734,9.41467,0.332,0,761,5,
172.576,2.89825,9.41162,0.332,0,761,5,
172.576,2.89825,9.41315,0.332,0,761,5,
172.576,2.89795,9.40552,0.332,0,761,5,
172.576,2.89795,9.39636,0.332,0,761,5,
172.576,2.89764,9.39789,0.332,0,761,5,
172.576,2.89703,9.39636,0.332,0,761,5,
172.577,2.89856,9.39789,0.332,0,761,5,
172.577,2.89795,9.39789,0.332,0,761,5,
172.577,2.89825,9.39789,0.332,0,761,5,
172.577,2.89764,9.39789,0.332,0,761,5,
172.577,2.89734,9.39789,0.332,0,761,5,
172.577,2.89764,9.39789,0.332,0,761,5,
172.577,2.89764,9.39636,0.332,0,761,5,
172.577,2.89795,9.39636,0.332,0,761,5,
172.577,2.89795,9.39942,0.332,0,761,5,
172.577,2.89795,9.40094,0.332,0,761,5,
172.577,2.89764,9.39942,0.332,0,761,5,
172.577,2.89734,9.39636,0.332,0,761,5,
172.577,2.89734,9.40094,0.332,0,761,5,
172.577,2.89856,9.39942,0.332,0,761,5,
172.577,2.89673,9.39942,0.332,0,761,5,
172.577,2.89337,9.40094,0.332,0,761,5,
172.577,2.89246,9.39636,0.332,0,761,5,
172.577,2.89246,9.40094,0.332,0,761,5,
172.577,2.89246,9.39789,0.332,0,761,5,
172.577,2.89215,9.39942,0.332,0,761,5,
172.577,2.89276,9.39789,0.332,0,761,5,
172.577,2.89276,9.39789,0.332,0,761,5,
172.577,2.89215,9.40094,0.332,0,761,5,
172.577,2.89246,9.39942,0.332,0,761,5,
172.577,2.89246,9.40399,0.332,0,761,5,
172.577,2.89246,9.40094,0.332,0,761,5,
172.577,2.89185,9.39789,0.332,0,761,5,
172.577,2.89246,9.39789,0.332,0,761,5,
172.577,2.89246,9.39789,0.332,0,761,5,
172.577,2.89246,9.39942,0.332,0,761,5,
172.577,2.89276,9.39942,0.332,0,761,5,
172.578,2.89215,9.40247,0.332,0,761,5,
172.578,2.89276,9.39942,0.332,0,761,5,
172.578,2.89276,9.40094,0.332,0,761,5,
172.578,2.89276,9.39942,0.332,0,761,5,
172.578,2.89276,9.40399,0.332,0,761,5,
172.578,2.89307,9.39789,0.332,0,761,5,
172.578,2.89307,9.39942,0.332,0,761,5,
172.578,2.89307,9.39789,0.332,0,761,5,
172.578,2.89276,9.39942,0.332,0,761,5,
172.578,2.89307,9.39942,0.332,0,761,5,
172.578,2.89276,9.39942,0.332,0,761,5,
172.578,2.89215,9.39942,0.332,0,761,5,
172.578,2.89337,9.40094,0.332,0,761,5,
172.578,2.89276,9.39789,0.332,0,761,5,
172.578,2.89276,9.40094,0.332,0,761,5,
172.578,2.89307,9.39942,0.332,0,761,5,
172.578,2.89276,9.39789,0.332,0,761,5,
172.578,2.89276,9.39789,0.332,0,761,5,
172.578,2.89276,9.39789,0.332,0,761,5,
172.578,2.89276,9.39942,0.332,0,761,5,
172.578,2.89276,9.39942,0.332,0,761,5,
172.578,2.89246,9.39942,0.332,0,761,5,
172.578,2.89276,9.39942,0.332,0,761,5,
172.578,2.89276,9.39789,0.332,0,761,5,
172.578,2.89276,9.39636,0.332,0,761,5,
172.578,2.89276,9.40247,0.332,0,761,5,
172.578,2.89246,9.39942,0.332,0,761,5,
172.578,2.89154,9.40094,0.332,0,761,5,
172.578,2.89307,9.39942,0.332,0,761,5,
172.578,2.89276,9.39636,0.332,0,761,5,
172.579,2.89246,9.39942,0.332,0,761,5,
172.579,2.89307,9.39942,0.332,0,761,5,
172.579,2.89307,9.40094,0.332,0,761,5,
172.579,2.89246,9.40094,0.332,0,761,5,
172.579,2.89337,9.39789,0.332,0,761,5,
172.579,2.89276,9.40094,0.332,0,761,5,
172.579,2.89307,9.39942,0.332,0,761,5,
172.579,2.89276,9.39789,0.332,0,761,5,
172.579,2.89246,9.39789,0.332,0,761,5,
172.579,2.89276,9.39789,0.332,0,761,5,
172.579,2.89276,9.39789,0.332,0,761,5,
172.579,2.89276,9.39942,0.332,0,761,5,
172.579,2.89246,9.39636,0.332,0,761,5,
172.579,2.88849,9.39942,0.332,0,761,5,
172.579,2.88818,9.39789,0.332,0,761,5,
172.579,2.88788,9.38568,0.332,0,761,5,
172.579,2.88788,9.38721,0.332,0,761,5,
172.579,2.88757,9.38416,0.332,0,761,5,
172.579,2.88757,9.38721,0.332,0,761,5,
172.579,2.88818,9.38721,0.332,0,761,5,
172.579,2.88757,9.38721,0.332,0,761,5,
172.579,2.88757,9.39026,0.332,0,761,5,
172.579,2.88727,9.38721,0.332,0,761,5,
172.579,2.88757,9.38416,0.332,0,761,5,
172.579,2.88818,9.38416,0.332,0,761,5,
172.579,2.88788,9.39026,0.332,0,761,5,
172.579,2.88757,9.38721,0.332,0,761,5,
172.579,2.88818,9.38416,0.332,0,761,5,
172.579,2.88757,9.38721,0.332,0,761,5,
172.579,2.88788,9.38721,0.332,0,761,5,
172.58,2.88757,9.38568,0.332,0,761,5,
172.58,2.88818,9.39026,0.332,0,761,5,
172.58,2.88727,9.38721,0.332,0,761,5,
172.58,2.88757,9.38873,0.332,0,761,5,
172.58,2.88757,9.38873,0.332,0,761,5,
172.58,2.88727,9.38721,0.332,0,761,5,
172.58,2.88788,9.38721,0.332,0,761,5,
172.58,2.88727,9.38568,0.332,0,761,5,
172.58,2.88788,9.38721,0.332,0,761,5,
172.58,2.88788,9.38568,0.332,0,761,5,
172.58,2.88788,9.38568,0.332,0,761,5,
172.58,2.88757,9.38416,0.332,0,761,5,
172.58,2.88757,9.39026,0.332,0,761,5,
172.58,2.88818,9.38416,0.332,0,761,5,
172.58,2.88757,9.38721,0.332,0,761,5,
172.58,2.88788,9.38568,0.332,0,761,5,
172.58,2.88818,9.38721,0.332,0,761,5,
172.58,2.88788,9.38416,0.332,0,761,5,
172.58,2.88818,9.38568,0.332,0,761,5,
172.58,2.88757,9.38568,0.332,0,761,5,
172.58,2.88788,9.38416,0.332,0,761,5,
172.58,2.88788,9.38873,0.332,0,761,5,
172.58,2.88788,9.38568,0.332,0,761,5,
172.58,2.88788,9.38568,0.332,0,761,5,
172.58,2.88757,9.38568,0.332,0,761,5,
172.58,2.88757,9.38721,0.332,0,761,5,
172.58,2.88788,9.38721,0.332,0,761,5,
172.58,2.88818,9.38568,0.332,0,761,5,
172.58,2.88788,9.38721,0.332,0,761,5,
172.581,2.88788,9.38263,0.332,0,761,5,
172.581,2.88849,9.38568,0.332,0,761,5,
172.581,2.88849,9.38873,0.332,0,761,5,
172.581,2.88818,9.39026,0.332,3.90472,761,5,
172.581,2.88818,9.38263,0.332,3.90472,761,5,
172.581,2.88788,9.38568,0.332,3.90472,761,5,
172.581,2.88788,9.38873,0.332,3.90472,761,5,
172.581,2.88757,9.38721,0.332,3.90472,761,5,
172.581,2.88788,9.38416,0.332,3.90472,761,5,
172.581,2.88788,9.38873,0.332,3.90472,761,5,
172.581,2.88788,9.38873,0.332,3.90472,761,5,
172.581,2.88818,9.38568,0.332,3.90472,761,5,
172.581,2.88727,9.38721,0.332,3.90472,761,5,
172.581,2.88757,9.38873,0.332,3.90472,761,5,
172.581,2.88818,9.38568,0.332,3.90472,761,5,
172.581,2.88818,9.38416,0.332,3.90472,761,5,
172.581,2.88818,9.38873,0.332,3.90472,761,5,
172.581,2.88788,9.38416,0.332,3.90472,761,5,
172.581,2.88818,9.38568,0.332,3.90472,761,5,
172.581,2.88849,9.39026,0.332,3.90472,761,5,
172.581,2.88788,9.38721,0.332,3.90472,761,5,
172.581,2.88818,9.38568,0.332,3.90472,761,5,
172.581,2.883,9.38568,0.332,3.90472,761,5,
172.581,2.8833,9.38568,0.332,3.90472,761,5,
172.581,2.88208,9.38873,0.332,3.90472,761,5,
172.581,2.88239,9.39026,0.332,3.90472,761,5,
172.581,2.883,9.38873,0.332,3.90472,761,5,
172.581,2.88391,9.38721,0.332,3.90472,761,5,
172.581,2.88269,9.38568,0.332,3.90472,761,5,
172.581,2.883,9.38263,0.332,3.90472,761,5,
172.582,2.88391,9.38416,0.332,3.90472,761,5,
172.582,2.88269,9.38721,0.332,3.90472,761,5,
172.582,2.88239,9.38416,0.332,3.90472,761,5,
172.582,2.88269,9.38873,0.332,3.90472,761,5,
172.582,2.883,9.38721,0.332,3.90472,761,5,
172.582,2.87811,9.38721,0.332,3.90472,761,5,
172.582,2.8775,9.38721,0.332,3.90472,761,5,
172.582,2.87781,9.38721,0.332,3.90472,761,5,
172.582,2.87811,9.38873,0.332,3.90472,761,5,
172.582,2.87811,9.38263,0.332,3.90472,761,5,
172.582,2.87811,9.37653,0.332,3.90472,761,5,
172.582,2.87781,9.375,0.332,3.90472,761,5,
172.582,2.87811,9.375,0.332,3.90472,761,5,
172.582,2.87628,9.375,0.332,3.90472,761,5,
172.582,2.87323,9.37195,0.332,3.90472,761,5,
172.582,2.87354,9.37348,0.332,3.90472,761,5,
172.582,2.87354,9.375,0.332,3.90472,761,5,
172.582,2.87323,9.37348,0.332,3.90472,761,5,
172.582,2.87415,9.37653,0.332,3.90472,761,5,
172.582,2.87292,9.37348,0.332,3.90472,761,5,
172.582,2.86896,9.3689,0.332,3.90472,761,5,
172.582,2.86804,9.37195,0.332,3.90472,761,5,
172.582,2.86865,9.37348,0.332,3.90472,761,5,
172.582,2.86865,9.37195,0.332,3.90472,761,5,
172.582,2.86804,9.37348,0.332,3.90472,761,5,
172.582,2.86865,9.37958,0.332,3.90472,761,5,
172.582,2.86438,9.37195,0.332,3.90472,761,5,
172.582,2.86316,9.37653,0.332,3.90472,761,5,
172.582,2.86377,9.37348,0.332,3.90472,761,5,
172.582,2.86316,9.37653,0.332,3.90472,761,5,
172.583,2.86316,9.375,0.332,3.90472,761,5,
172.583,2.86346,9.37653,0.332,3.90472,761,5,
172.583,2.85889,9.37195,0.332,3.90472,761,5,
172.583,2.85797,9.37195,0.332,3.90472,761,5,
172.583,2.85828,9.37348,0.332,3.90472,761,5,
172.583,2.85858,9.37042,0.332,3.90472,761,5,
172.583,2.85797,9.37653,0.332,3.90472,761,5,
172.583,2.85339,9.37653,0.332,3.90472,761,5,
172.583,2.85309,9.375,0.332,3.90472,761,5,
172.583,2.85339,9.37348,0.332,3.90472,761,5,
172.583,2.85339,9.37805,0.332,3.90472,761,5,
172.583,2.85156,9.375,0.332,3.90472,761,5,
172.583,2.84851,9.375,0.332,3.90472,761,5,
172.583,2.84821,9.37195,0.332,3.90472,761,5,
172.583,2.8476,9.37348,0.332,3.90472,761,5,
172.583,2.84882,9.37348,0.332,3.90472,761,5,
172.583,2.84424,9.37348,0.332,3.90472,761,5,
172.583,2.84332,9.375,0.332,3.90472,761,5,
172.583,2.84363,9.37653,0.332,3.90472,761,5,
172.583,2.84363,9.375,0.332,3.90472,761,5,
172.583,2.8421,9.37348,0.332,3.90472,761,5,
172.583,2.83844,9.375,0.332,3.90472,761,5,
172.583,2.83875,9.37348,0.332,3.90472,761,5,
172.583,2.83905,9.37348,0.332,3.90472,761,5,
172.583,2.83752,9.375,0.332,3.90472,761,5,
172.583,2.83356,9.37348,0.332,3.90472,761,5,
172.583,2.83417,9.37348,0.332,3.90472,761,5,
172.583,2.83356,9.37348,0.332,3.90472,761,5,
172.583,2.83417,9.37348,0.332,3.90472,761,5,
172.583,2.8299,9.37348,0.332,3.90472,761,5,
172.583,2.82898,9.37348,0.332,3.90472,761,5,
172.584,2.8299,9.375,0.332,3.90472,761,5,
172.584,2.82654,9.37348,0.332,3.90472,761,5,
172.584,2.8241,9.37195,0.332,3.90472,761,5,
172.584,2.8241,9.375,0.332,3.90472,761,5,
172.584,2.8241,9.37653,0.332,3.90472,761,5,
172.584,2.82257,9.37348,1.156,3.90472,761,5,
172.584,2.81921,9.37348,1.156,3.90472,761,5,
172.584,2.81891,9.37348,1.156,3.90472,761,5,
172.584,2.81891,9.375,1.156,3.90472,761,5,
172.584,2.81525,9.37348,1.156,3.90472,761,5,
172.584,2.81433,9.37195,1.156,3.90472,761,5,
172.584,2.81372,9.37348,1.156,3.90472,761,5,
172.584,2.81464,9.375,1.156,3.90472,761,5,
172.584,2.81036,9.37348,1.156,3.90472,761,5,
172.584,2.80945,9.375,1.156,3.90472,761,5,
172.584,2.80945,9.37042,1.156,3.90472,761,5,
172.584,2.80945,9.37348,1.156,3.90472,761,5,
172.584,2.80426,9.37805,1.156,3.90472,761,5,
172.584,2.80457,9.375,1.156,3.90472,761,5,
172.584,2.80487,9.375,1.156,3.90472,761,5,
172.584,2.80457,9.37348,1.156,3.90472,761,5,
172.584,2.79968,9.37348,1.156,3.90472,761,5,
172.584,2.79968,9.37653,1.156,3.90472,761,5,
172.584,2.79968,9.375,1.156,3.90472,761,5,
172.584,2.79724,9.375,1.156,3.90472,761,5,
172.584,2.7951,9.37348,1.156,3.90472,761,5,
172.584,2.79449,9.37348,1.156,3.90472,761,5,
172.584,2.7951,9.36737,1.156,3.90472,761,5,
172.584,2.79022,9.36279,1.156,3.90472,761,5,
172.584,2.79053,9.36279,1.156,3.90472,761,5,
172.585,2.78931,9.36279,1.156,3.90472,761,5,
172.585,2.78992,9.36127,1.156,3.90472,761,5,
172.585,2.78473,9.36279,1.156,3.90472,761,5,
172.585,2.78473,9.36737,1.156,3.90472,761,5,
172.585,2.78564,9.36127,1.156,3.90472,761,5,
172.585,2.78473,9.36279,1.156,3.90472,761,5,
172.585,2.77954,9.35974,1.156,3.90472,761,5,
172.585,2.78015,9.36279,1.156,3.90472,761,5,
172.585,2.77954,9.36432,1.156,3.90472,761,5,
172.585,2.78046,9.36432,1.156,3.90472,761,5,
172.585,2.77466,9.35974,1.156,3.90472,761,5,
172.585,2.77466,9.35974,1.156,3.90472,761,5,
172.585,2.77496,9.36279,1.156,3.90472,761,5,
172.585,2.77374,9.36279,1.156,3.90472,761,5,
172.585,2.77039,9.36279,1.156,3.90472,761,5,
172.585,2.77039,9.36279,1.156,3.90472,761,5,
172.585,2.77008,9.36127,1.156,3.90472,761,5,
172.585,2.76855,9.36279,1.156,3.90472,761,5,
172.585,2.76489,9.36585,1.156,3.90472,761,5,
172.585,2.7652,9.36127,1.156,3.90472,761,5,
172.585,2.7655,9.35974,1.156,3.90472,761,5,
172.585,2.76367,9.3689,1.156,3.90472,761,5,
172.585,2.76001,9.36279,1.156,3.90472,761,5,
172.585,2.76001,9.36432,1.156,3.90472,761,5,
172.585,2.76062,9.36279,1.156,3.90472,761,5,
172.585,2.76001,9.36127,1.156,3.90472,761,5,
172.585,2.75543,9.36127,1.156,3.90472,761,5,
172.585,2.75574,9.36127,1.156,3.90472,761,5,
172.585,2.75543,9.35822,1.156,3.90472,761,5,
172.585,2.75604,9.36585,1.156,3.90472,761,5,
172.586,2.74994,9.36279,1.156,3.90472,761,5,
172.586,2.75055,9.36127,1.156,3.90472,761,5,
172.586,2.75055,9.36432,1.156,3.90472,761,5,
172.586,2.75085,9.36127,1.156,3.90472,761,5,
172.586,2.74567,9.36279,1.156,3.90472,761,5,
172.586,2.74506,9.36279,1.156,3.90472,761,5,
172.586,2.74597,9.36127,1.156,3.90472,761,5,
172.586,2.74567,9.36127,1.156,3.90472,761,5,
172.586,2.74109,9.36127,1.156,3.90472,761,5,
172.586,2.74017,9.36279,1.156,3.90472,761,5,
172.586,2.74078,9.36432,1.156,3.90472,761,5,
172.586,2.74078,9.36432,1.156,3.90472,761,5,
172.586,2.74017,9.36127,1.156,3.90472,761,5,
172.586,2.7359,9.36127,1.156,3.90472,761,5,
172.586,2.7356,9.36432,1.156,3.90472,761,5,
172.586,2.7359,9.36432,1.156,3.90472,761,5,
172.586,2.73621,9.36279,1.156,3.90472,761,5,
172.586,2.73163,9.36279,1.156,3.90472,761,5,
172.586,2.73102,9.36279,1.156,3.90472,761,5,
172.586,2.73132,9.36127,1.156,3.90472,761,5,
172.586,2.73163,9.36279,1.156,3.90472,761,5,
172.586,2.73102,9.36432,1.156,3.90472,761,5,
172.586,2.72644,9.36127,1.156,3.90472,761,5,
172.586,2.72583,9.36279,1.156,3.90472,761,5,
172.586,2.72583,9.36432,1.156,3.90472,761,5,
172.586,2.72583,9.35974,1.156,3.90472,761,5,
172.586,2.72675,9.35974,1.156,3.90472,761,5,
172.586,2.72125,9.36432,1.156,3.90472,761,5,
172.586,2.72095,9.36279,1.156,3.90472,761,5,
172.587,2.72125,9.36432,1.156,3.90472,761,5,
172.587,2.72095,9.36432,1.156,3.90472,761,5,
172.587,2.72034,9.36737,1.156,3.90472,761,5,
172.587,2.71576,9.36432,1.156,3.90472,761,5,
172.587,2.71545,9.36127,1.156,3.90472,761,5,
172.587,2.71606,9.36279,1.156,3.90472,761,5,
172.587,2.71576,9.36279,1.156,3.90472,761,5,
172.587,2.71576,9.36432,1.156,3.90472,761,5,
172.587,2.71179,9.36585,1.156,3.90472,761,5,
172.587,2.71088,9.36737,1.156,3.90472,761,5,
172.587,2.71118,9.35974,1.156,3.90472,761,5,
172.587,2.71149,9.36432,1.156,3.90472,761,5,
172.587,2.71118,9.36279,1.156,3.90472,761,5,
172.587,2.70935,9.35974,1.156,3.90472,761,5,
172.587,2.7063,9.35974,1.156,3.90472,761,5,
172.587,2.7063,9.36279,1.156,3.90472,761,5,
172.587,2.7063,9.36279,1.156,3.90472,761,5,
172.587,2.70691,9.36127,1.156,3.90472,761,5,
172.587,2.7066,9.36127,1.156,3.90472,761,5,
172.587,2.70447,9.34906,1.156,3.90472,761,5,
172.587,2.70172,9.35211,1.156,3.90472,761,5,
172.587,2.70142,9.34906,1.156,3.90472,761,5,
172.587,2.70142,9.35059,1.156,3.90472,761,5,
172.587,2.70203,9.34906,1.156,3.90472,761,5,
172.587,2.70142,9.34906,1.156,3.90472,761,5,
172.587,2.70081,9.34906,1.156,3.90472,761,5,
172.587,2.69653,9.35059,1.156,3.90472,761,5,
172.587,2.69653,9.34906,1.156,3.90472,761,5,
172.587,2.69623,9.35059,1.156,3.90472,761,5,
172.587,2.69653,9.35059,1.156,3.90472,761,5,
172.588,2.69592,9.35211,1.156,3.90472,761,5,
172.588,2.69684,9.34754,1.156,3.90472,761,5,
172.588,2.69653,9.35059,1.156,3.90472,761,5,
172.588,2.6947,9.35059,1.156,3.90472,761,5,
172.588,2.69135,9.34906,1.156,3.90472,761,5,
172.588,2.69135,9.35211,1.156,3.90472,761,5,
172.588,2.69165,9.35211,1.156,3.90472,761,5,
172.588,2.69104,9.35059,1.156,3.90472,761,5,
172.588,2.69104,9.34754,1.156,3.90472,761,5,
172.588,2.69196,9.35364,1.156,3.90472,761,5,
172.588,2.69196,9.34601,1.156,3.90472,761,5,
172.588,2.69165,9.34906,1.156,3.90472,761,5,
172.588,2.69012,9.35059,1.156,3.90472,761,5,
172.588,2.68707,9.34906,1.156,3.90472,761,5,
172.588,2.68646,9.34754,1.156,3.90472,761,5,
172.588,2.68646,9.34754,1.156,3.90472,761,5,
172.588,2.68707,9.34906,1.156,3.90472,761,5,
172.588,2.68646,9.34906,1.156,3.90472,761,5,
172.588,2.68677,9.34906,1.156,3.90472,761,5,
172.588,2.68677,9.35059,1.156,3.90472,761,5,
172.588,2.68646,9.35059,1.156,3.90472,761,5,
172.588,2.68677,9.34906,1.156,3.90472,761,5,
172.588,2.68738,9.34754,1.156,3.90472,761,5,
172.588,2.68677,9.35059,1.156,3.90472,761,5,
172.588,2.68219,9.35059,1.156,3.90472,761,5,
172.588,2.68158,9.34906,1.156,3.90472,761,5,
172.588,2.68158,9.35059,1.156,3.90472,761,5,
172.588,2.68188,9.34906,1.156,3.90472,761,5,
172.588,2.68188,9.34906,1.156,3.90472,761,5,
172.588,2.68188,9.34906,1.156,3.90472,761,5,
172.589,2.68188,9.35211,1.156,3.90472,761,5,
172.589,2.6825,9.34906,1.156,3.90472,761,5,
172.589,2.68219,9.34906,1.156,3.90472,761,5,
172.589,2.68219,9.35059,1.156,3.90472,761,5,
172.589,2.68219,9.35059,1.156,3.90472,761,5,
172.589,2.6825,9.35059,1.156,3.90472,761,5,
172.589,2.68188,9.35059,1.156,3.90472,761,5,
172.589,2.68219,9.35211,1.156,3.90472,761,5,
172.589,2.68219,9.35364,1.156,3.90472,761,5,
172.589,2.68127,9.35211,1.156,3.90472,761,5,
172.589,2.68219,9.34906,1.156,3.90472,761,5,
172.589,2.6825,9.35059,1.156,3.90472,761,5,
172.589,2.68219,9.35211,1.156,3.90472,761,5,
172.589,2.68158,9.34906,1.156,3.90472,761,5,
172.589,2.68219,9.35059,1.156,3.90472,761,5,
172.589,2.67761,9.34906,1.156,3.90472,761,5,
172.589,2.67731,9.35059,1.156,3.90472,761,5,
172.589,2.6767,9.35364,1.156,3.90472,761,5,
172.589,2.67731,9.34906,1.156,3.90472,761,5,
172.589,2.677,9.35059,1.156,3.90472,761,5,
172.589,2.67761,9.34906,1.156,3.90472,761,5,
172.589,2.67731,9.34906,1.156,3.90472,761,5,
172.589,2.67761,9.35211,1.156,3.90472,761,5,
172.589,2.677,9.34754,1.156,3.90472,761,5,
172.589,2.6767,9.35364,1.156,3.90472,761,5,
172.589,2.6767,9.35059,1.156,3.90472,761,5,
172.589,2.677,9.35059,1.156,3.90472,761,5,
172.589,2.67761,9.34601,1.156,3.90472,761,5,
172.589,2.67761,9.33838,1.156,3.90472,761,5,
172.589,2.67761,9.33533,1.156,3.90472,761,5,
172.589,2.6767,9.34143,1.156,3.90472,761,5,
172.59,2.6767,9.33685,1.156,3.90472,761,5,
172.59,2.6767,9.33838,1.156,3.90472,761,5,
172.59,2.6767,9.33838,1.156,3.90472,761,5,
172.59,2.67761,9.33991,1.156,3.90472,761,5,
172.59,2.6767,9.33838,1.156,3.90472,761,5,
172.59,2.6767,9.33838,1.156,3.90472,761,5,
172.59,2.67731,9.33685,1.156,3.90472,761,5,
172.59,2.67731,9.33838,1.156,3.90472,761,5,
172.59,2.6767,9.33838,1.156,3.90472,761,5,
172.59,2.6767,9.34143,1.156,3.90472,761,5,
172.59,2.6767,9.33533,1.156,3.90472,761,5,
172.59,2.6767,9.33838,1.156,3.90472,761,5,
172.59,2.67731,9.33533,1.156,3.90472,761,5,
172.59,2.67639,9.33685,1.156,3.90472,761,5,
172.59,2.67914,9.33838,1.156,3.90472,761,5,
172.59,2.68127,9.3338,1.156,3.90472,761,5,
172.59,2.68219,9.33838,1.156,3.90472,761,5,
172.59,2.68188,9.33685,1.156,3.90472,761,5,
172.59,2.68219,9.33991,1.156,3.90472,761,5,
172.59,2.68188,9.33685,1.156,3.90472,761,5,
172.59,2.68188,9.33838,1.156,3.90472,761,5,
172.59,2.6825,9.33991,1.156,3.90472,761,5,
172.59,2.6825,9.34143,1.156,3.90472,761,5,
172.59,2.68188,9.33685,1.156,3.90472,761,5,
172.59,2.68188,9.33685,1.156,3.90472,761,5,
172.59,2.68219,9.33838,1.156,3.90472,761,5,
172.59,2.68219,9.33838,1.156,3.90472,761,5,
172.59,2.68188,9.33685,1.156,3.90472,761,5,
172.59,2.68158,9.33838,1.156,3.90472,761,5,
172.59,2.6825,9.33838,1.156,3.90472,761,5,
172.591,2.68188,9.33685,1.156,3.90472,761,5,
172.591,2.6825,9.33991,1.156,3.90472,761,5,
172.591,2.68188,9.33991,1.156,3.90472,761,5,
172.591,2.68219,9.34143,1.156,3.90472,761,5,
172.591,2.68158,9.33838,1.156,3.90472,761,5,
172.591,2.68219,9.33685,1.156,3.90472,761,5,
172.591,2.68677,9.33838,1.156,3.90472,761,5,
172.591,2.68677,9.34143,1.156,3.90472,761,5,
172.591,2.68738,9.33838,1.156,3.90472,761,5,
172.591,2.68768,9.33685,1.156,3.90472,761,5,
172.591,2.68677,9.33685,1.156,3.90472,761,5,
172.591,2.68707,9.33685,1.156,3.90472,761,5,
172.591,2.68677,9.33991,1.156,3.90472,761,5,
172.591,2.68677,9.33685,1.156,3.90472,761,5,
172.591,2.68585,9.33838,1.156,3.90472,761,5,
172.591,2.68738,9.33838,1.156,3.90472,761,5,
172.591,2.68707,9.33533,1.156,3.90472,761,5,
172.591,2.68646,9.33685,1.156,3.90472,761,5,
172.591,2.68677,9.33685,1.156,3.90472,761,5,
172.591,2.68646,9.33685,1.156,3.90472,761,5,
172.591,2.68738,9.33838,1.156,3.90472,761,5,
172.591,2.68646,9.33991,1.156,3.90472,761,5,
172.591,2.69165,9.33685,1.156,3.90472,761,5,
172.591,2.69135,9.33991,1.156,3.90472,761,5,
172.591,2.69165,9.33685,1.156,3.90472,761,5,
172.591,2.69196,9.33685,1.156,3.90472,761,5,
172.591,2.69104,9.33991,1.156,3.90472,761,5,
172.591,2.69165,9.33533,1.156,3.90472,761,5,
172.591,2.69165,9.33533,1.156,3.90472,761,5,
172.591,2.69165,9.33838,1.156,3.90472,761,5,
172.592,2.69165,9.33685,1.156,3.90472,761,5,
172.592,2.69135,9.33685,1.156,3.90472,761,5,
172.592,2.69135,9.33838,1.156,3.90472,761,5,
172.592,2.69073,9.33838,1.156,3.90472,761,5,
172.592,2.69196,9.34143,1.156,3.90472,761,5,
172.592,2.69165,9.3338,1.156,3.90472,761,5,
172.592,2.69196,9.33991,1.156,3.90472,761,5,
172.592,2.69348,9.33838,1.156,3.90472,761,5,
172.592,2.69653,9.33838,1.156,3.90472,761,5,
172.592,2.69684,9.33533,1.156,3.90472,761,5,
172.592,2.69684,9.33838,1.156,3.90472,761,5,
172.592,2.69653,9.33838,1.156,3.90472,761,5,
172.592,2.69684,9.33838,1.156,3.90472,761,5,
172.592,2.69623,9.3216,1.156,3.90472,761,5,
172.592,2.69714,9.32312,1.156,3.90472,761,5,
172.592,2.69684,9.32465,1.156,3.90472,761,5,
172.592,2.69653,9.32465,1.156,3.90472,761,5,
172.592,2.69684,9.32617,1.156,3.90472,761,5,
172.592,2.69684,9.32465,1.156,3.90472,761,5,
172.592,2.69684,9.32617,1.156,3.90472,761,5,
172.592,2.69684,9.3277,1.156,3.90472,761,5,
172.592,2.69653,9.32617,1.156,3.90472,761,5,
172.592,2.69806,9.32312,1.156,3.90472,761,5,
172.592,2.70172,9.32465,1.156,3.90472,761,5,
172.592,2.70142,9.3277,1.156,3.90472,761,5,
172.592,2.70172,9.32617,1.156,3.90472,761,5,
172.592,2.70142,9.32465,1.156,3.90472,761,5,
172.592,2.70142,9.3277,1.156,3.90472,761,5,
172.592,2.70172,9.32617,1.156,3.90472,761,5,
172.593,2.70142,9.32922,1.156,3.90472,761,5,
172.593,2.70111,9.32617,1.156,3.90472,761,5,
172.593,2.70203,9.3277,1.156,3.90472,761,5,
172.593,2.70111,9.32465,1.156,3.90472,761,5,
172.593,2.70172,9.32617,1.156,3.90472,761,5,
172.593,2.70142,9.32617,1.156,3.90472,761,5,
172.593,2.70172,9.3277,1.156,3.90472,761,5,
172.593,2.70142,9.3216,1.156,3.90472,761,5,
172.593,2.70172,9.32617,1.156,3.90472,761,5,
172.593,2.7066,9.32617,1.156,3.90472,761,5,
172.593,2.70721,9.32312,1.156,3.90472,761,5,
172.593,2.7066,9.32617,1.156,3.90472,761,5,
172.593,2.70691,9.3277,1.156,3.90472,761,5,
172.593,2.70752,9.32465,1.156,3.90472,761,5,
172.593,2.7063,9.32922,1.156,3.90472,761,5,
172.593,2.7063,9.3216,1.156,3.90472,761,5,
172.593,2.70691,9.32312,1.156,3.90472,761,5,
172.593,2.7063,9.32465,1.156,3.90472,761,5,
172.593,2.7063,9.32617,1.156,3.90472,761,5,
172.593,2.7066,9.32617,1.156,3.90472,761,5,
172.593,2.70691,9.32465,1.156,3.90472,761,5,
172.593,2.70691,9.32465,1.156,3.90472,761,5,
172.593,2.7063,9.32922,1.156,3.90472,761,5,
172.593,2.70691,9.32617,1.156,3.90472,761,5,
172.593,2.70599,9.32922,1.156,3.90472,761,5,
172.593,2.7066,9.32465,1.156,3.90472,761,5,
172.593,2.7066,9.32617,1.156,3.90472,761,5,
172.593,2.7066,9.3277,1.156,3.90472,761,5,
172.593,2.7066,9.32922,1.156,3.90472,761,5,
172.593,2.7066,9.3277,1.156,3.90472,761,5,
172.594,2.7063,9.32465,1.156,3.90472,761,5,
172.594,2.71057,9.32465,1.156,3.90472,761,5,
172.594,2.71149,9.32465,1.156,3.90472,761,5,
172.594,2.71179,9.32465,1.156,3.90472,761,5,
172.594,2.7121,9.32617,1.156,3.90472,761,5,
172.594,2.71149,9.3277,1.156,3.90472,761,5,
172.594,2.71118,9.32312,1.156,3.90472,761,5,
172.594,2.71118,9.32617,1.156,3.90472,761,5,
172.594,2.71149,9.32617,1.156,3.90472,761,5,
172.594,2.71118,9.32617,1.156,3.90472,761,5,
172.594,2.71149,9.3277,1.156,3.90472,761,5,
172.594,2.71149,9.32617,1.156,3.90472,761,5,
172.594,2.71118,9.32617,1.156,3.90472,761,5,
172.594,2.71149,9.32617,1.156,3.90472,761,5,
172.594,2.71179,9.3277,1.156,3.90472,761,5,
172.594,2.71118,9.32617,1.156,3.90472,761,5,
172.594,2.71118,9.32312,1.156,3.90472,761,5,
172.594,2.71118,9.32312,1.156,3.90472,761,5,
172.594,2.71088,9.32617,1.156,3.90472,761,5,
172.594,2.71179,9.3277,1.156,3.90472,761,5,
172.594,2.71149,9.3277,1.156,3.90472,761,5,
172.594,2.71149,9.32465,1.156,3.90472,761,5,
172.594,2.71118,9.32465,1.156,3.90472,761,5,
172.594,2.71179,9.3216,1.156,3.90472,761,5,
172.594,2.71118,9.32465,1.156,3.90472,761,5,
172.594,2.71088,9.3277,1.156,3.90472,761,5,
172.594,2.71088,9.32465,1.156,3.90472,761,5,
172.594,2.7124,9.32617,1.156,3.90472,761,5,
172.594,2.71149,9.32465,1.156,3.90472,761,5,
172.594,2.71118,9.32617,1.156,3.90472,761,5,
172.595,2.71088,9.32922,1.156,3.90472,761,5,
172.595,2.71179,9.32465,1.156,3.90472,761,5,
172.595,2.71179,9.32465,1.156,3.90472,761,5,
172.595,2.71179,9.32617,1.156,3.90472,761,5,
172.595,2.71118,9.32617,1.156,3.90472,761,5,
172.595,2.71118,9.31244,1.156,3.90472,761,5,
172.595,2.7124,9.30939,1.156,3.90472,761,5,
172.595,2.71088,9.30939,1.156,3.90472,761,5,
172.595,2.71179,9.31244,1.156,3.90472,761,5,
172.595,2.71149,9.30939,1.156,3.90472,761,5,
172.595,2.7121,9.31397,1.156,3.90472,761,5,
172.595,2.71149,9.31091,1.156,3.90472,761,5,
172.595,2.71149,9.31091,1.156,3.90472,761,5,
172.595,2.71149,9.31397,1.156,3.90472,761,5,
172.595,2.71057,9.31091,1.156,3.90472,761,5,
172.595,2.71118,9.31244,1.156,3.90472,761,5,
172.595,2.71179,9.31244,1.156,3.90472,761,5,
172.595,2.71118,9.31244,1.156,3.90472,761,5,
172.595,2.71088,9.31244,1.156,3.90472,761,5,
172.595,2.71149,9.30939,1.156,3.90472,761,5,
172.595,2.71149,9.31244,1.156,3.90472,761,5,
172.595,2.7121,9.31091,1.156,3.90472,761,5,
172.595,2.71149,9.31244,1.156,3.90472,761,5,
172.595,2.71088,9.31397,1.156,3.90472,761,5,
172.595,2.71149,9.31244,1.156,3.90472,761,5,
172.595,2.71118,9.31244,1.156,3.90472,761,5,
172.595,2.71118,9.31397,1.156,3.90472,761,5,
172.595,2.71088,9.31397,1.156,3.90472,761,5,
172.595,2.70935,9.31244,1.156,3.90472,761,5,
172.595,2.70569,9.31549,1.156,3.90472,761,5,
172.595,2.70599,9.31244,1.156,3.90472,761,5,
172.596,2.70599,9.31397,1.156,3.90472,761,5,
172.596,2.7063,9.31244,1.156,3.90472,761,5,
172.596,2.70569,9.31244,1.156,3.90472,761,5,
172.596,2.70599,9.31244,1.156,3.90472,761,5,
172.596,2.70691,9.31397,1.156,3.90472,761,5,
172.596,2.7063,9.31091,1.156,3.90472,761,5,
172.596,2.70569,9.31244,1.156,3.90472,761,5,
172.596,2.70569,9.31397,1.156,3.90472,761,5,
172.596,2.7066,9.30939,1.156,3.90472,761,5,
172.596,2.7066,9.31397,1.156,3.90472,761,5,
172.596,2.7066,9.31091,1.156,3.90472,761,5,
172.596,2.7066,9.31397,1.156,3.90472,761,5,
172.596,2.7063,9.31549,1.156,3.90472,761,5,
172.596,2.7063,9.31091,1.156,3.90472,761,5,
172.596,2.7066,9.31244,1.156,3.90472,761,5,
172.596,2.7063,9.31397,1.156,3.90472,761,5,
172.596,2.7063,9.31091,1.156,3.90472,761,5,
172.596,2.7066,9.31702,1.156,3.90472,761,5,
172.596,2.70538,9.31397,1.156,3.90472,761,5,
172.596,2.7066,9.31397,1.156,3.90472,761,5,
172.596,2.70599,9.31244,1.156,3.90472,761,5,
172.596,2.7063,9.31397,1.156,3.90472,761,5,
172.596,2.7063,9.31091,1.156,3.90472,761,5,
172.596,2.70599,9.31244,1.156,3.90472,761,5,
172.596,2.70599,9.31702,1.156,3.90472,761,5,
172.596,2.7066,9.31244,1.156,3.90472,761,5,
172.596,2.70569,9.31549,1.156,3.90472,761,5,
172.596,2.7063,9.31244,1.156,3.90472,761,5,
172.596,2.7066,9.31702,1.156,3.90472,761,5,
172.596,2.7066,9.31244,1.156,3.90472,761,5,
172.597,2.7063,9.31397,1.156,3.90472,761,5,
172.597,2.7063,9.31244,1.156,3.90472,761,5,
172.597,2.70691,9.31244,1.156,3.90472,761,5,
172.597,2.7066,9.31397,1.156,3.90472,761,5,
172.597,2.7063,9.31244,1.156,3.90472,761,5,
172.597,2.7063,9.31091,1.156,3.90472,761,5,
172.597,2.70691,9.31244,1.156,3.90472,761,5,
172.597,2.7066,9.31397,1.156,3.90472,761,5,
172.597,2.7063,9.31091,1.156,3.90472,761,5,
172.597,2.7066,9.31397,1.156,3.90472,761,5,
172.597,2.70691,9.31397,1.156,3.90472,761,5,
172.597,2.7066,9.31549,1.156,3.90472,761,5,
172.597,2.70569,9.31702,1.156,3.90472,761,5,
172.597,2.7063,9.31091,1.156,3.90472,761,5,
172.597,2.7063,9.31549,1.156,3.90472,761,5,
172.597,2.70691,9.31244,1.156,3.90472,761,5,
172.597,2.70599,9.31397,1.156,3.90472,761,5,
172.597,2.70813,9.31091,1.156,3.90472,761,5,
172.597,2.71149,9.31244,1.156,3.90472,761,5,
172.597,2.71149,9.31549,1.156,3.90472,761,5,
172.597,2.71149,9.31549,1.156,3.90472,761,5,
172.597,2.71118,9.31397,1.156,3.90472,761,5,
172.597,2.7121,9.31549,1.156,3.90472,761,5,
172.597,2.71149,9.31244,1.156,3.90472,761,5,
172.597,2.71118,9.31091,1.156,3.90472,761,5,
172.597,2.71149,9.31244,1.156,3.90472,761,5,
172.597,2.71088,9.31244,1.156,3.90472,761,5,
172.597,2.71149,9.30939,1.156,3.90472,761,5,
172.597,2.71149,9.31244,1.156,3.90472,761,5,
172.597,2.71332,9.31549,1.156,3.90472,761,5,
172.598,2.71606,9.31397,1.156,3.90472,761,5,
172.598,2.71576,9.31549,1.156,3.90472,761,5,
172.598,2.71606,9.31397,1.156,3.90472,761,5,
172.598,2.71576,9.31244,1.156,3.90472,761,5,
172.598,2.71637,9.31702,1.156,3.90472,761,5,
172.598,2.71667,9.31397,1.156,3.90472,761,5,
172.598,2.71576,9.31244,1.156,3.90472,761,5,
172.598,2.71637,9.31397,1.156,3.90472,761,5,
172.598,2.72003,9.31244,1.156,3.90472,761,5,
172.598,2.72186,9.31091,1.156,3.90472,761,5,
172.598,2.72125,9.31244,1.156,3.90472,761,5,
172.598,2.72064,9.31244,1.156,3.90472,761,5,
172.598,2.72156,9.31397,1.156,3.90472,761,5,
172.598,2.72125,9.31091,1.156,3.90472,761,5,
172.598,2.72156,9.31549,1.156,3.90472,761,5,
172.598,2.72186,9.31702,1.156,3.90472,761,5,
172.598,2.72583,9.31397,1.156,3.90472,761,5,
172.598,2.72675,9.31091,1.156,3.90472,761,5,
172.598,2.72583,9.31091,1.156,3.90472,761,5,
172.598,2.72644,9.31397,1.156,3.90472,761,5,
172.598,2.72644,9.31244,1.156,3.90472,761,5,
172.598,2.72644,9.31397,1.156,3.90472,761,5,
172.598,2.72858,9.31244,1.156,3.90472,761,5,
172.598,2.73102,9.31244,1.156,3.90472,761,5,
172.598,2.73102,9.31397,1.156,3.90472,761,5,
172.598,2.73193,9.31244,1.156,3.90472,761,5,
172.598,2.73071,9.31549,1.974,3.90472,761,5,
172.598,2.73102,9.31244,1.974,3.90472,761,5,
172.598,2.73041,9.31091,1.974,3.90472,761,5,
172.599,2.73529,9.31091,1.974,3.90472,761,5,
172.599,2.73621,9.31091,1.974,3.90472,761,5,
172.599,2.73621,9.31397,1.974,3.90472,761,5,
172.599,2.7359,9.30481,1.974,3.90472,761,5,
172.599,2.7356,9.30176,1.974,3.90472,761,5,
172.599,2.73773,9.30023,1.974,3.90472,761,5,
172.599,2.74078,9.29871,1.974,3.90472,761,5,
172.599,2.74078,9.30023,1.974,3.90472,761,5,
172.599,2.74017,9.30481,1.974,3.90472,761,5,
172.599,2.74048,9.30023,1.974,3.90472,761,5,
172.599,2.74048,9.29871,1.974,3.90472,761,5,
172.599,2.74567,9.30328,1.974,3.90472,761,5,
172.599,2.74536,9.30481,1.974,3.90472,761,5,
172.599,2.74597,9.30176,1.974,3.90472,761,5,
172.599,2.74536,9.30176,1.974,3.90472,761,5,
172.599,2.74567,9.30328,1.974,3.90472,761,5,
172.599,2.75024,9.30023,1.974,3.90472,761,5,
172.599,2.75085,9.30176,1.974,3.90472,761,5,
172.599,2.75085,9.30023,1.974,3.90472,761,5,
172.599,2.75055,9.30634,1.974,3.90472,761,5,
172.599,2.75085,9.30176,1.974,3.90472,761,5,
172.599,2.75543,9.30023,1.974,3.90472,761,5,
172.599,2.75543,9.30023,1.974,3.90472,761,5,
172.599,2.75543,9.30023,1.974,3.90472,761,5,
172.599,2.75574,9.29871,1.974,3.90472,761,5,
172.599,2.75726,9.30481,1.974,3.90472,761,5,
172.599,2.76062,9.30176,1.974,3.90472,761,5,
172.599,2.76093,9.30176,1.974,3.90472,761,5,
172.599,2.76031,9.30481,1.974,3.90472,761,5,
172.599,2.76001,9.30023,1.974,3.90472,761,5,
172.6,2.76459,9.30023,1.974,3.90472,761,5,
172.6,2.76581,9.30023,1.974,3.90472,761,5,
172.6,2.76489,9.30328,1.974,3.90472,761,5,
172.6,2.7655,9.30328,1.974,3.90472,761,5,
172.6,2.76855,9.30023,1.974,3.90472,761,5,
172.6,2.77008,9.29871,1.974,3.90472,761,5,
172.6,2.76978,9.29871,1.974,3.90472,761,5,
172.6,2.77069,9.30176,1.974,3.90472,761,5,
172.6,2.77161,9.30023,1.974,3.90472,761,5,
172.6,2.77588,9.30328,1.974,3.90472,761,5,
172.6,2.77527,9.30023,1.974,3.90472,761,5,
172.6,2.77435,9.30176,1.974,3.90472,761,5,
172.6,2.77679,9.29718,1.974,3.90472,761,5,
172.6,2.77954,9.30023,1.974,3.90472,761,5,
172.6,2.77985,9.30328,1.974,3.90472,761,5,
172.6,2.78015,9.30481,1.974,3.90472,761,5,
172.6,2.78168,9.30176,1.974,3.90472,761,5,
172.6,2.78412,9.30176,1.974,3.90472,761,5,
172.6,2.78534,9.30328,1.974,3.90472,761,5,
172.6,2.78534,9.30176,1.974,3.90472,761,5,
172.6,2.78656,9.30176,1.974,3.90472,761,5,
172.6,2.78961,9.30023,1.974,3.90472,761,5,
172.6,2.78992,9.29871,1.974,3.90472,761,5,
172.6,2.79022,9.30328,1.974,3.90472,761,5,
172.6,2.79144,9.30176,1.974,3.90472,761,5,
172.6,2.7948,9.30176,1.974,3.90472,761,5,
172.6,2.79449,9.30176,1.974,3.90472,761,5,
172.6,2.79449,9.30481,1.974,3.90472,761,5,
172.6,2.79846,9.30176,1.974,3.90472,761,5,
172.6,2.79907,9.29871,1.974,3.90472,761,5,
172.601,2.79938,9.30328,1.974,3.90472,761,5,
172.601,2.79907,9.30328,1.974,3.90472,761,5,
172.601,2.80396,9.30481,1.974,3.90472,761,5,
172.601,2.80426,9.30328,1.974,3.90472,761,5,
172.601,2.80396,9.30328,1.974,3.90472,761,5,
172.601,2.80426,9.30176,1.974,3.90472,761,5,
172.601,2.80914,9.30023,1.974,3.90472,761,5,
172.601,2.80975,9.30023,1.974,3.90472,761,5,
172.601,2.80975,9.30176,1.974,3.90472,761,5,
172.601,2.81372,9.29871,1.974,3.90472,761,5,
172.601,2.81403,9.30481,1.974,3.90472,761,5,
172.601,2.81403,9.30328,1.974,3.90472,761,5,
172.601,2.81403,9.30176,1.974,3.90472,761,5,
172.601,2.81921,9.29871,1.974,3.90472,761,5,
172.601,2.81891,9.30023,1.974,3.90472,761,5,
172.601,2.81891,9.30176,1.974,3.90472,761,5,
172.601,2.82104,9.30176,1.974,3.90472,761,5,
172.601,2.8244,9.29871,1.974,3.90472,761,5,
172.601,2.82379,9.30176,1.974,3.90472,761,5,
172.601,2.8244,9.30176,1.974,3.90472,761,5,
172.601,2.82806,9.30328,1.974,3.90472,761,5,
172.601,2.82928,9.30328,1.974,3.90472,761,5,
172.601,2.82928,9.29871,1.974,3.90472,761,5,
172.601,2.83112,9.30328,1.974,3.90472,761,5,
172.601,2.83417,9.30176,1.974,3.90472,761,5,
172.601,2.83417,9.30176,1.974,3.90472,761,5,
172.601,2.83386,9.30023,1.974,3.90472,761,5,
172.601,2.83875,9.30176,1.974,3.90472,761,5,
172.601,2.83905,9.29718,1.974,3.90472,761,5,
172.601,2.83844,9.29413,1.974,3.90472,761,5,
172.601,2.84241,9.2865,1.974,3.90472,761,5,
172.602,2.84363,9.28803,1.974,3.90472,761,5,
172.602,2.84363,9.28955,1.974,3.90472,761,5,
172.602,2.84546,9.29108,1.974,3.90472,761,5,
172.602,2.84943,9.28955,1.974,3.90472,761,5,
172.602,2.84882,9.2926,1.974,3.90472,761,5,
172.602,2.84912,9.28803,1.974,3.90472,761,5,
172.602,2.854,9.2926,1.974,3.90472,761,5,
172.602,2.85431,9.28955,1.974,3.90472,761,5,
172.602,2.85339,9.29108,1.974,3.90472,761,5,
172.602,2.85736,9.28803,1.974,3.90472,761,5,
172.602,2.85767,9.2865,1.974,3.90472,761,5,
172.602,2.85889,9.29108,1.974,3.90472,761,5,
172.602,2.86255,9.2865,1.974,3.90472,761,5,
172.602,2.86346,9.29108,1.974,3.90472,761,5,
172.602,2.86316,9.29108,1.974,3.90472,761,5,
172.602,2.8656,9.2926,1.974,3.90472,761,5,
172.602,2.86865,9.28803,1.974,3.90472,761,5,
172.602,2.86835,9.28955,1.974,3.90472,761,5,
172.602,2.86804,9.2865,1.974,3.90472,761,5,
172.602,2.87323,9.28803,1.974,3.90472,761,5,
172.602,2.87292,9.28497,1.974,3.90472,761,5,
172.602,2.87323,9.28803,1.974,3.90472,761,5,
172.602,2.87811,9.28955,1.974,3.90472,761,5,
172.602,2.87811,9.28497,1.974,3.90472,761,5,
172.602,2.87781,9.28803,1.974,3.90472,761,5,
172.602,2.88239,9.2865,1.974,3.90472,761,5,
172.602,2.883,9.28955,1.974,3.90472,761,5,
172.602,2.88239,9.29108,1.974,3.90472,761,5,
172.602,2.88727,9.2865,1.974,3.90472,761,5,
172.602,2.88757,9.29108,1.974,3.90472,761,5,
172.603,2.88757,9.28955,1.974,3.90472,761,5,
172.603,2.89215,9.28803,1.974,3.90472,761,5,
172.603,2.89307,9.2865,1.974,3.90472,761,5,
172.603,2.89276,9.28955,1.974,3.90472,761,5,
172.603,2.89673,9.29108,1.974,3.90472,761,5,
172.603,2.89764,9.29108,1.974,3.90472,761,5,
172.603,2.89764,9.29108,1.974,3.90472,761,5,
172.603,2.90131,9.28955,1.974,3.90472,761,5,
172.603,2.90283,9.28803,1.974,3.90472,761,5,
172.603,2.90222,9.28803,1.974,3.90472,761,5,
172.603,2.9068,9.2865,1.974,3.90472,761,5,
172.603,2.9068,9.28955,1.974,3.90472,761,5,
172.603,2.9071,9.2926,1.974,3.90472,761,5,
172.603,2.91138,9.28803,1.974,3.90472,761,5,
172.603,2.91229,9.29108,1.974,3.90472,761,5,
172.603,2.9126,9.28803,1.974,3.90472,761,5,
172.603,2.91656,9.28955,1.974,3.90472,761,5,
172.603,2.91718,9.28803,1.974,3.90472,761,5,
172.603,2.91748,9.28803,1.974,3.90472,761,5,
172.603,2.92145,9.2865,1.974,3.90472,761,5,
172.603,2.92175,9.2926,1.974,3.90472,761,5,
172.603,2.92236,9.28803,1.974,3.90472,761,5,
172.603,2.92725,9.29108,1.974,3.90472,761,5,
172.603,2.92694,9.29108,1.974,3.90472,761,5,
172.603,2.92725,9.28803,1.974,3.90472,761,5,
172.603,2.93152,9.28803,1.974,3.90472,761,5,
172.603,2.93152,9.28955,1.974,3.90472,761,5,
172.603,2.93365,9.2865,1.974,3.90472,761,5,
172.603,2.93732,9.29108,1.974,3.90472,761,5,
172.603,2.93732,9.28803,1.974,3.90472,761,5,
172.604,2.94159,9.2865,1.974,3.90472,761,5,
172.604,2.9422,9.28955,1.974,3.90472,761,5,
172.604,2.94189,9.28803,1.974,3.90472,761,5,
172.604,2.94647,9.28497,1.974,3.90472,761,5,
172.604,2.94739,9.28955,1.974,3.90472,761,5,
172.604,2.95105,9.28803,1.974,3.90472,761,5,
172.604,2.95135,9.28803,1.974,3.90472,761,5,
172.604,2.95197,9.28955,1.974,3.90472,761,5,
172.604,2.95715,9.28955,1.974,3.90472,761,5,
172.604,2.95715,9.2865,1.974,3.90472,761,5,
172.604,2.95898,9.29108,1.974,3.90472,761,5,
172.604,2.96173,9.28803,1.974,3.90472,761,5,
172.604,2.96204,9.28955,1.974,3.90472,761,5,
172.604,2.96631,9.27429,1.974,3.90472,761,5,
172.604,2.96722,9.27887,1.974,3.90472,761,5,
172.604,2.96906,9.27887,1.974,3.90472,761,5,
172.604,2.97089,9.27582,1.974,3.90472,761,5,
172.604,2.97089,9.27582,1.974,3.90472,761,5,
172.604,2.97577,9.2804,1.974,3.90472,761,5,
172.604,2.97607,9.27582,1.974,3.90472,761,5,
172.604,2.98035,9.27429,1.974,3.90472,761,5,
172.604,2.98096,9.27734,1.974,3.90472,761,5,
172.604,2.98096,9.27582,1.974,3.90472,761,5,
172.604,2.98492,9.27734,1.974,3.90472,761,5,
172.604,2.98553,9.27734,1.974,3.90472,761,5,
172.604,2.99042,9.27887,1.974,3.90472,761,5,
172.604,2.99072,9.27734,1.974,3.90472,761,5,
172.604,2.995,9.27734,1.974,3.90472,761,5,
172.604,2.9953,9.27734,1.974,3.90472,761,5,
172.605,2.99713,9.27887,1.974,3.90472,761,5,
172.605,3.00079,9.27734,1.974,3.90472,761,5,
172.605,3.00018,9.27429,1.974,3.90472,761,5,
172.605,3.00507,9.2804,1.974,3.90472,761,5,
172.605,3.00537,9.27582,1.974,3.90472,761,5,
172.605,3.00995,9.27582,1.974,3.90472,761,5,
172.605,3.01056,9.27734,1.974,3.90472,761,5,
172.605,3.01422,9.27734,1.974,3.90472,761,5,
172.605,3.01514,9.27582,1.974,3.90472,761,5,
172.605,3.01666,9.27582,1.974,3.90472,761,5,
172.605,3.02002,9.27582,1.974,3.90472,761,5,
172.605,3.02155,9.27734,1.974,3.90472,761,5,
172.605,3.0246,9.27887,1.974,3.90472,761,5,
172.605,3.0249,9.27734,1.974,3.90472,761,5,
172.605,3.02917,9.27887,1.974,3.90472,761,5,
172.605,3.02979,9.27887,1.974,3.90472,761,5,
172.605,3.03436,9.27887,1.974,3.90472,761,5,
172.605,3.03436,9.27887,1.974,3.90472,761,5,
172.605,3.03894,9.27887,1.974,3.90472,761,5,
172.605,3.03986,9.27887,1.974,3.90472,761,5,
172.605,3.04504,9.27582,1.974,3.90472,761,5,
172.605,3.04504,9.2804,1.974,3.90472,761,5,
172.605,3.04871,9.27582,1.974,3.90472,761,5,
172.605,3.04901,9.27582,1.974,3.90472,761,5,
172.605,3.05389,9.27887,1.974,3.90472,761,5,
172.605,3.05359,9.27734,1.974,3.90472,761,5,
172.605,3.05847,9.27734,1.974,3.90472,761,5,
172.605,3.05939,9.27582,1.974,3.90472,761,5,
172.605,3.06335,9.27582,1.974,3.90472,761,5,
172.605,3.06335,9.27734,1.974,3.90472,761,5,
172.606,3.06824,9.27887,1.974,3.90472,761,5,
172.606,3.06946,9.27734,1.974,3.90472,761,5,
172.606,3.07281,9.27582,1.974,3.90472,761,5,
172.606,3.07404,9.27887,1.974,3.90472,761,5,
172.606,3.0777,9.27734,1.974,3.90472,761,5,
172.606,3.07892,9.27887,1.974,3.90472,761,5,
172.606,3.08258,9.27582,1.974,3.90472,761,5,
172.606,3.0838,9.27429,1.974,3.90472,761,5,
172.606,3.08777,9.27734,1.974,3.90472,761,5,
172.606,3.08899,9.27582,1.974,3.90472,761,5,
172.606,3.09296,9.27429,1.974,3.90472,761,5,
172.606,3.09418,9.27734,1.974,3.90472,761,5,
172.606,3.09784,9.2804,1.974,3.90472,761,5,
172.606,3.09906,9.27887,1.974,3.90472,761,5,
172.606,3.10333,9.27582,1.974,3.90472,761,5,
172.606,3.10303,9.27582,1.974,3.90472,761,5,
172.606,3.10822,9.27887,1.974,3.90472,761,5,
172.606,3.10852,9.27582,1.974,3.90472,761,5,
172.606,3.11218,9.27734,1.974,3.90472,761,5,
172.606,3.1131,9.27887,1.974,3.90472,761,5,
172.606,3.11768,9.27887,1.974,3.90472,761,5,
172.606,3.11859,9.27582,1.974,3.90472,761,5,
172.606,3.12286,9.27734,1.974,3.90472,761,5,
172.606,3.12286,9.27734,1.974,3.90472,761,5,
172.606,3.12805,9.27582,1.974,3.90472,761,5,
172.606,3.12744,9.27734,1.974,3.90472,761,5,
172.606,3.13324,9.27734,1.974,3.90472,761,5,
172.606,3.13232,9.27582,1.974,3.90472,761,5,
172.606,3.13812,9.27734,1.974,3.90472,761,5,
172.606,3.13812,9.27734,1.974,3.90472,761,5,
172.607,3.1427,9.27734,1.974,3.90472,761,5,
172.607,3.1427,9.27734,1.974,3.90472,761,5,
172.607,3.14728,9.27734,1.974,3.90472,761,5,
172.607,3.14789,9.27582,1.974,3.90472,761,5,
172.607,3.15186,9.27582,1.974,3.90472,761,5,
172.607,3.15247,9.27887,1.974,3.90472,761,5,
172.607,3.15704,9.27734,1.974,3.90472,761,5,
172.607,3.15796,9.27734,1.974,3.90472,761,5,
172.607,3.16193,9.27734,1.974,3.90472,761,5,
172.607,3.16193,9.27582,1.974,3.90472,761,5,
172.607,3.16681,9.27582,1.974,3.90472,761,5,
172.607,3.16681,9.27734,1.974,3.90472,761,5,
172.607,3.1723,9.27887,1.974,3.90472,761,5,
172.607,3.1723,9.27887,1.974,3.90472,761,5,
172.607,3.17627,9.2804,1.974,3.90472,761,5,
172.607,3.17657,9.27734,1.974,3.90472,761,5,
172.607,3.18176,9.27429,1.974,3.90472,761,5,
172.607,3.18176,9.27582,1.974,3.90472,761,5,
172.607,3.18634,9.27582,1.974,3.90472,761,5,
172.607,3.18604,9.27582,1.974,3.90472,761,5,
172.607,3.19122,9.27734,1.974,3.90472,761,5,
172.607,3.19214,9.27582,1.974,3.90472,761,5,
172.607,3.19641,9.27734,1.974,3.90472,761,5,
172.607,3.19641,9.2804,1.974,3.90472,761,5,
172.607,3.20129,9.27582,1.974,3.90472,761,5,
172.607,3.20129,9.27887,1.974,3.90472,761,5,
172.607,3.20526,9.27734,1.974,3.90472,761,5,
172.607,3.20618,9.27582,1.974,3.90472,761,5,
172.607,3.21014,9.27582,1.974,3.90472,761,5,
172.607,3.21106,9.27277,1.974,3.90472,761,5,
172.607,3.21289,9.27582,1.974,3.90472,761,5,
172.608,3.21564,9.28192,1.974,3.90472,761,5,
172.608,3.21747,9.27429,1.974,3.90472,761,5,
172.608,3.22083,9.27734,1.974,3.90472,761,5,
172.608,3.22113,9.27582,1.974,3.90472,761,5,
172.608,3.22601,9.27887,1.974,3.90472,761,5,
172.608,3.2254,9.27277,1.974,3.90472,761,5,
172.608,3.22998,9.26819,1.974,3.90472,761,5,
172.608,3.2312,9.26666,1.974,3.90472,761,5,
172.608,3.23517,9.26666,1.974,3.90472,761,5,
172.608,3.23578,9.26514,1.974,3.90472,761,5,
172.608,3.23975,9.26666,1.974,3.90472,761,5,
172.608,3.24036,9.26514,1.974,3.90472,761,5,
172.608,3.24188,9.26514,1.974,3.90472,761,5,
172.608,3.24493,9.26361,1.974,3.90472,761,5,
172.608,3.24524,9.26514,1.974,3.90472,761,5,
172.608,3.24982,9.26514,1.974,3.90472,761,5,
172.608,3.25043,9.26514,1.974,3.90472,761,5,
172.608,3.25439,9.26361,1.974,3.90472,761,5,
172.608,3.25531,9.26819,1.974,3.90472,761,5,
172.608,3.25745,9.26056,1.974,3.90472,761,5,
172.608,3.26019,9.26209,1.974,3.90472,761,5,
172.608,3.26019,9.26361,1.974,3.90472,761,5,
172.608,3.26447,9.26209,1.974,3.90472,761,5,
172.608,3.26508,9.26514,1.974,3.90472,761,5,
172.608,3.26904,9.26514,1.974,3.90472,761,5,
172.608,3.26935,9.25903,1.974,3.90472,761,5,
172.608,3.26996,9.26819,1.974,3.90472,761,5,
172.608,3.27545,9.26209,1.974,3.90472,761,5,
172.608,3.27515,9.26514,1.974,3.90472,761,5,
172.608,3.2785,9.26514,1.974,3.90472,761,5,
172.609,3.28003,9.26361,1.974,3.90472,761,5,
172.609,3.28003,9.26514,1.974,3.90472,761,5,
172.609,3.28491,9.26361,1.974,3.90472,761,5,
172.609,3.2843,9.26666,1.974,3.90472,761,5,
172.609,3.28918,9.26056,1.974,3.90472,761,5,
172.609,3.28949,9.25903,1.974,3.90472,761,5,
172.609,3.28979,9.26666,1.974,3.90472,761,5,
172.609,3.29407,9.26209,1.974,3.90472,761,5,
172.609,3.29437,9.26361,1.974,3.90472,761,5,
172.609,3.2959,9.26209,1.974,3.90472,761,5,
172.609,3.29956,9.26666,1.974,3.90472,761,5,
172.609,3.29956,9.26514,1.974,3.90472,761,5,
172.609,3.30353,9.26819,1.974,3.90472,761,5,
172.609,3.30414,9.26209,1.974,3.90472,761,5,
172.609,3.30383,9.26514,1.974,3.90472,761,5,
172.609,3.30933,9.25903,1.974,3.90472,761,5,
172.609,3.30841,9.26361,1.974,3.90472,761,5,
172.609,3.31146,9.26361,1.974,3.90472,761,5,
172.609,3.3139,9.26361,1.974,3.90472,761,5,
172.609,3.3136,9.26514,1.974,3.90472,761,5,
172.609,3.31604,9.26514,1.974,3.90472,761,5,
172.609,3.31879,9.26361,1.974,3.90472,761,5,
172.609,3.31879,9.26514,1.974,3.90472,761,5,
172.609,3.32275,9.26361,1.974,3.90472,761,5,
172.609,3.32397,9.26056,1.974,3.90472,761,5,
172.609,3.32336,9.26209,1.974,3.90472,761,5,
172.609,3.32794,9.26361,1.974,3.90472,761,5,
172.609,3.32825,9.26514,1.974,3.90472,761,5,
172.609,3.32825,9.26056,1.974,3.90472,761,5,
172.609,3.33252,9.26209,1.974,3.90472,761,5,
172.61,3.33344,9.26361,1.974,3.90472,761,5,
172.61,3.33344,9.26666,1.974,3.90472,761,5,
172.61,3.33557,9.26666,1.974,3.90472,761,5,
172.61,3.33862,9.26209,1.974,3.90472,761,5,
172.61,3.33801,9.26361,1.974,3.90472,761,5,
172.61,3.34015,9.26361,1.974,3.90472,761,5,
172.61,3.3432,9.26514,1.974,3.90472,761,5,
172.61,3.3429,9.26209,1.974,3.90472,761,5,
172.61,3.34351,9.26514,1.974,3.90472,761,5,
172.61,3.34869,9.26056,1.974,3.90472,761,5,
172.61,3.34839,9.26514,1.974,3.90472,761,5,
172.61,3.34808,9.26209,1.974,3.90472,761,5,
172.61,3.35236,9.26514,1.974,3.90472,761,5,
172.61,3.35297,9.26514,1.974,3.90472,761,5,
172.61,3.35358,9.26514,1.974,3.90472,761,5,
172.61,3.35541,9.26514,1.974,3.90472,761,5,
172.61,3.35815,9.26666,1.974,3.90472,761,5,
172.61,3.35785,9.26361,1.974,3.90472,761,5,
172.61,3.35815,9.26514,1.974,3.90472,761,5,
172.61,3.36304,9.26819,1.974,3.90472,761,5,
172.61,3.36334,9.26361,1.974,3.90472,761,5,
172.61,3.36304,9.26514,1.974,3.90472,761,5,
172.61,3.36273,9.26514,1.974,3.90472,761,5,
172.61,3.367,9.26666,1.974,3.90472,761,5,
172.61,3.36761,9.26209,1.974,3.90472,761,5,
172.61,3.36761,9.26972,1.974,3.90472,761,5,
172.61,3.36975,9.2514,1.974,3.90472,761,5,
172.61,3.3728,9.25293,1.974,3.90472,761,5,
172.61,3.3728,9.25446,1.974,3.90472,761,5,
172.611,3.37189,9.25293,1.974,3.90472,761,5,
172.611,3.37646,9.25293,1.974,3.90472,761,5,
172.611,3.37738,9.25293,1.974,3.90472,761,5,
172.611,3.37738,9.25293,1.974,3.90472,761,5,
172.611,3.37708,9.2514,1.974,3.90472,761,5,
172.611,3.38196,9.25293,1.974,3.90472,761,5,
172.611,3.38196,9.25446,1.974,3.90472,761,5,
172.611,3.38257,9.2514,1.974,3.90472,761,5,
172.611,3.38226,9.25293,1.974,3.90472,761,5,
172.611,3.3844,9.24988,1.974,3.90472,761,5,
172.611,3.38715,9.2514,1.974,3.90472,761,5,
172.611,3.38745,9.25293,1.974,3.90472,761,5,
172.611,3.38806,9.2514,1.974,3.90472,761,5,
172.611,3.38715,9.25293,1.974,3.90472,761,5,
172.611,3.39233,9.25293,1.974,3.90472,761,5,
172.611,3.39172,9.25293,1.974,3.90472,761,5,
172.611,3.39233,9.24988,1.974,3.90472,761,5,
172.611,3.39264,9.2514,1.974,3.90472,761,5,
172.611,3.39172,9.25446,1.974,3.90472,761,5,
172.611,3.39722,9.25293,1.974,3.90472,761,5,
172.611,3.39783,9.25293,1.974,3.90472,761,5,
172.611,3.39752,9.25293,1.974,3.90472,761,5,
172.611,3.39722,9.24988,1.974,3.90472,761,5,
172.611,3.39874,9.25293,1.974,3.90472,761,5,
172.611,3.40179,9.2514,1.974,3.90472,761,5,
172.611,3.40302,9.24988,1.974,3.90472,761,5,
172.611,3.4024,9.2514,1.974,3.90472,761,5,
172.611,3.4024,9.2514,1.974,3.90472,761,5,
172.611,3.40179,9.25446,1.974,3.90472,761,5,
172.611,3.40729,9.2514,1.974,3.90472,761,5,
172.612,3.40668,9.2514,1.974,3.90472,761,5,
172.612,3.40698,9.25293,1.974,3.90472,761,5,
172.612,3.40668,9.25446,1.974,3.90472,761,5,
172.612,3.40698,9.2514,1.974,3.90472,761,5,
172.612,3.41187,9.2514,1.974,3.90472,761,5,
172.612,3.41248,9.2514,1.974,3.90472,761,5,
172.612,3.41187,9.25446,1.974,3.90472,761,5,
172.612,3.41217,9.25293,1.974,3.90472,761,5,
172.612,3.41217,9.24988,1.974,3.90472,761,5,
172.612,3.41187,9.25293,1.974,3.90472,761,5,
172.612,3.41644,9.2514,1.974,3.90472,761,5,
172.612,3.41736,9.2514,1.974,3.90472,761,5,
172.612,3.41675,9.24988,1.974,3.90472,761,5,
172.612,3.41675,9.2514,1.974,3.90472,761,5,
172.612,3.41644,9.2514,1.974,3.90472,761,5,
172.612,3.41675,9.25293,1.974,3.90472,761,5,
172.612,3.42041,9.25446,1.974,3.90472,761,5,
172.612,3.42194,9.2514,1.974,3.90472,761,5,
172.612,3.42224,9.2514,1.974,3.90472,761,5,
172.612,3.42163,9.25293,1.974,3.90472,761,5,
172.612,3.42133,9.2514,1.974,3.90472,761,5,
172.612,3.42224,9.25293,1.974,3.90472,761,5,
172.612,3.42194,9.2514,0.45,3.90472,761,5,
172.612,3.4256,9.25293,0.45,3.90472,761,5,
172.612,3.42682,9.25293,0.45,3.90472,761,5,
172.612,3.42682,9.24988,0.45,3.90472,761,5,
172.612,3.42712,9.25293,0.45,3.90472,761,5,
172.612,3.42651,9.2514,0.45,3.90472,761,5,
172.612,3.42651,9.25293,0.45,3.90472,761,5,
172.612,3.42651,9.24835,0.45,3.90472,761,5,
172.613,3.42804,9.25293,0.45,3.90472,761,5,
172.613,3.43262,9.25446,0.45,3.90472,761,5,
172.613,3.43109,9.2514,0.45,3.90472,761,5,
172.613,3.43109,9.24988,0.45,3.90472,761,5,
172.613,3.43201,9.25446,0.45,3.90472,761,5,
172.613,3.4314,9.25293,0.45,3.90472,761,5,
172.613,3.4314,9.25293,0.45,3.90472,761,5,
172.613,3.4314,9.25293,0.45,3.90472,761,5,
172.613,3.4314,9.25446,0.45,3.90472,761,5,
172.613,3.43658,9.24378,0.45,3.90472,761,5,
172.613,3.43689,9.2392,0.45,3.90472,761,5,
172.613,3.43658,9.23767,0.45,3.90472,761,5,
172.613,3.43658,9.2392,0.45,3.90472,761,5,
172.613,3.43658,9.24225,0.45,3.90472,761,5,
172.613,3.43597,9.2453,0.45,3.90472,761,5,
172.613,3.43658,9.24072,0.45,3.90472,761,5,
172.613,3.43689,9.23767,0.45,3.90472,761,5,
172.613,3.43628,9.23767,0.45,3.90472,761,5,
172.613,3.44147,9.24378,0.45,3.90472,761,5,
172.613,3.44177,9.24072,0.45,3.90472,761,5,
172.613,3.44177,9.24225,0.45,3.90472,761,5,
172.613,3.44177,9.24072,0.45,3.90472,761,5,
172.613,3.44086,9.24378,0.45,3.90472,761,5,
172.613,3.44116,9.24072,0.45,3.90472,761,5,
172.613,3.44086,9.2392,0.45,3.90472,761,5,
172.613,3.44116,9.24072,0.45,3.90472,761,5,
172.613,3.44116,9.2392,0.45,3.90472,761,5,
172.613,3.44147,9.24225,0.45,3.90472,761,5,
172.613,3.44604,9.24072,0.45,3.90472,761,5,
172.613,3.44635,9.24072,0.45,3.90472,761,5,
172.613,3.44574,9.24225,0.45,3.90472,761,5,
172.614,3.44604,9.2392,0.45,3.90472,761,5,
172.614,3.44604,9.24072,0.45,3.90472,761,5,
172.614,3.44604,9.2392,0.45,3.90472,761,5,
172.614,3.44635,9.2392,0.45,3.90472,761,5,
172.614,3.44604,9.24072,0.45,3.90472,761,5,
172.614,3.44635,9.2392,0.45,3.90472,761,5,
172.614,3.44604,9.2392,0.45,3.90472,761,5,
172.614,3.44574,9.24072,0.45,3.90472,761,5,
172.614,3.44635,9.2392,0.45,3.90472,761,5,
172.614,3.44574,9.24072,0.45,3.90472,761,5,
172.614,3.45154,9.2392,0.45,3.90472,761,5,
172.614,3.45093,9.2392,0.45,3.90472,761,5,
172.614,3.45093,9.24072,0.45,3.90472,761,5,
172.614,3.45154,9.2392,0.45,3.90472,761,5,
172.614,3.45123,9.2392,0.45,3.90472,761,5,
172.614,3.45123,9.24072,0.45,3.90472,761,5,
172.614,3.45123,9.24072,0.45,3.90472,761,5,
172.614,3.45123,9.2392,0.45,3.90472,761,5,
172.614,3.45032,9.24225,0.45,3.90472,761,5,
172.614,3.45184,9.2392,0.45,3.90472,761,5,
172.614,3.45123,9.24378,0.45,3.90472,761,5,
172.614,3.45123,9.2392,0.45,3.90472,761,5,
172.614,3.45062,9.24072,0.45,3.90472,761,5,
172.614,3.45062,9.2392,0.45,3.90472,761,5,
172.614,3.45093,9.2392,0.45,3.90472,761,5,
172.614,3.45123,9.23767,0.45,3.90472,761,5,
172.614,3.45123,9.23767,0.45,3.90472,761,5,
172.614,3.45581,9.2392,0.45,3.90472,761,5,
172.614,3.45551,9.2392,0.45,3.90472,761,5,
172.614,3.45612,9.2392,0.45,3.90472,761,5,
172.615,3.45612,9.23767,0.45,3.90472,761,5,
172.615,3.45612,9.2392,0.45,3.90472,761,5,
172.615,3.45642,9.2392,0.45,3.90472,761,5,
172.615,3.45612,9.23615,0.45,3.90472,761,5,
172.615,3.45551,9.24072,0.45,3.90472,761,5,
172.615,3.45612,9.2392,0.45,3.90472,761,5,
172.615,3.45581,9.24072,0.45,3.90472,761,5,
172.615,3.45581,9.24072,0.45,3.90472,761,5,
172.615,3.45551,9.24072,0.45,3.90472,761,5,
172.615,3.45581,9.24225,0.45,3.90472,761,5,
172.615,3.45612,9.24378,0.45,3.90472,761,5,
172.615,3.45581,9.24225,0.45,3.90472,761,5,
172.615,3.45551,9.2392,0.45,3.90472,761,5,
172.615,3.45581,9.24225,0.45,3.90472,761,5,
172.615,3.45612,9.24225,0.45,3.90472,761,5,
172.615,3.45581,9.23767,0.45,3.90472,761,5,
172.615,3.45551,9.23767,0.45,3.90472,761,5,
172.615,3.45581,9.24072,0.45,3.90472,761,5,
172.615,3.45581,9.24072,0.45,3.90472,761,5,
172.615,3.45612,9.23767,0.45,3.90472,761,5,
172.615,3.45642,9.24378,0.45,3.90472,761,5,
172.615,3.45612,9.23767,0.45,3.90472,761,5,
172.615,3.45581,9.23615,0.45,3.90472,761,5,
172.615,3.45581,9.24225,0.45,3.90472,761,5,
172.615,3.45612,9.24225,0.45,3.90472,761,5,
172.615,3.45581,9.23615,0.45,3.90472,761,5,
172.615,3.45612,9.23767,0.45,3.90472,761,5,
172.615,3.45581,9.2392,0.45,3.90472,761,5,
172.615,3.45551,9.22852,0.45,3.90472,761,5,
172.615,3.45581,9.22699,0.45,3.90472,761,5,
172.616,3.45581,9.22394,0.45,3.90472,761,5,
172.616,3.45612,9.22852,0.45,3.90472,761,5,
172.616,3.45612,9.23004,0.45,3.90472,761,5,
172.616,3.45581,9.22699,0.45,3.90472,761,5,
172.616,3.45581,9.23157,0.45,3.90472,761,5,
172.616,3.45581,9.22546,0.45,3.90472,761,5,
172.616,3.45551,9.23157,0.45,3.90472,761,5,
172.616,3.45642,9.23004,0.45,3.90472,761,5,
172.616,3.45612,9.22852,0.45,3.90472,761,5,
172.616,3.45612,9.22546,0.45,3.90472,761,5,
172.616,3.45612,9.22699,0.45,3.90472,761,5,
172.616,3.45612,9.23157,0.45,3.90472,761,5,
172.616,3.45612,9.22852,0.45,3.90472,761,5,
172.616,3.45581,9.22852,0.45,3.90472,761,5,
172.616,3.45581,9.22546,0.45,3.90472,761,5,
172.616,3.45612,9.23004,0.45,3.90472,761,5,
172.616,3.45612,9.22852,0.45,3.90472,761,5,
172.616,3.45673,9.22852,0.45,3.90472,761,5,
172.616,3.45581,9.22546,0.45,3.90472,761,5,
172.616,3.45612,9.22546,0.45,3.90472,761,5,
172.616,3.45673,9.22699,0.45,3.90472,761,5,
172.616,3.45673,9.23004,0.45,3.90472,761,5,
172.616,3.45642,9.23157,0.45,3.90472,761,5,
172.616,3.45703,9.22394,0.45,3.90472,761,5,
172.616,3.45551,9.22852,0.45,3.90472,761,5,
172.616,3.45612,9.22852,0.45,3.90472,761,5,
172.616,3.45612,9.22699,0.45,3.90472,761,5,
172.616,3.45703,9.22546,0.45,3.90472,761,5,
172.616,3.45581,9.22546,0.45,3.90472,761,5,
172.617,3.45612,9.22699,0.45,3.90472,761,5,
172.617,3.45581,9.22852,0.45,3.90472,761,5,
172.617,3.45581,9.23004,0.45,3.90472,761,5,
172.617,3.45581,9.22852,0.45,3.90472,761,5,
172.617,3.45581,9.23004,0.45,3.90472,761,5,
172.617,3.45612,9.22852,0.45,3.90472,761,5,
172.617,3.4552,9.22394,0.45,3.90472,761,5,
172.617,3.45551,9.22699,0.45,3.90472,761,5,
172.617,3.45642,9.22699,0.45,3.90472,761,5,
172.617,3.45673,9.22852,0.45,3.90472,761,5,
172.617,3.45581,9.22546,0.45,3.90472,761,5,
172.617,3.45551,9.23004,0.45,3.90472,761,5,
172.617,3.45581,9.22852,0.45,3.90472,761,5,
172.617,3.45581,9.22546,0.45,3.90472,761,5,
172.617,3.45581,9.22852,0.45,3.90472,761,5,
172.617,3.45581,9.22394,0.45,3.90472,761,5,
